Dividing Wavelength (nm)	Counts (n)	Blue Motor Position (mm): 22.700000	Red Motor Position (mm): 0.000000	
326.493990	2132.808849
326.888308	2132.808849
327.282561	2132.808849
327.676750	2101.956987
328.070874	2100.648808
328.464933	2103.464292
328.858929	2110.216918
329.252859	2119.419544
329.646726	2131.077212
330.040528	2144.032978
330.434265	2160.371357
330.827938	2176.989521
331.221547	2197.257480
331.615091	2216.330686
332.008571	2231.865001
332.401986	2256.962386
332.795338	2272.219438
333.188625	2291.375822
333.581847	2312.621765
333.975006	2327.669609
334.368100	2348.817250
334.761129	2366.746113
335.154095	2382.398896
335.546996	2401.285579
335.939833	2423.020514
336.332606	2439.923503
336.725315	2452.370112
337.117960	2462.195320
337.510540	2470.445169
337.903056	2482.730461
338.295508	2491.497027
338.687896	2495.446771
339.080220	2505.032525
339.472480	2510.744152
339.864676	2513.831859
340.256807	2521.254958
340.648875	2523.518436
341.040879	2524.970289
341.432818	2525.575227
341.824694	2530.407173
342.216506	2529.303160
342.608253	2531.503624
342.999937	2528.438602
343.391557	2530.349200
343.783113	2529.401463
344.174605	2525.441637
344.566033	2525.597912
344.957397	2524.151101
345.348697	2524.723272
345.739934	2521.459125
346.131106	2519.707324
346.522215	2517.368229
346.913260	2514.136849
347.304241	2513.834380
347.695159	2512.909328
348.086012	2508.246261
348.476802	2508.972187
348.867528	2504.344408
349.258191	2506.320540
349.648789	2501.826351
350.039324	2502.595127
350.429796	2503.036228
350.820203	2500.717298
351.210548	2500.235867
351.600828	2497.364930
351.991045	2497.400218
352.381198	2494.534322
352.771288	2497.294354
353.161314	2496.003819
353.551276	2497.657317
353.941175	2494.138592
354.331010	2497.009529
354.720782	2496.850733
355.110490	2495.739158
355.500135	2497.556494
355.889717	2495.078767
356.279235	2496.714621
356.668689	2498.015239
357.058080	2494.662872
357.447408	2495.819817
357.836672	2492.522902
358.225873	2497.017091
358.615010	2496.273520
359.004084	2500.984479
359.393095	2496.863335
359.782043	2504.556136
360.170927	2498.970538
360.559748	2499.172184
360.948505	2502.106135
361.337199	2504.868688
361.725830	2498.889879
362.114398	2505.087978
362.502903	2502.368275
362.891344	2504.074706
363.279722	2502.877432
363.668037	2506.459172
364.056289	2504.049500
364.444478	2506.706188
364.832603	2507.296003
365.220665	2504.848523
365.608665	2505.889521
365.996601	2506.378513
366.384474	2508.359687
366.772284	2507.142248
367.160031	2507.666528
367.547715	2510.093844
367.935336	2506.514624
368.322893	2509.244409
368.710388	2509.498987
369.097820	2511.770027
369.485189	2508.074862
369.872495	2512.652229
370.259738	2507.232989
370.646918	2509.378000
371.034035	2510.595438
371.421090	2509.630057
371.808081	2508.757938
372.195010	2510.018226
372.581875	2509.793895
372.968678	2514.187261
373.355418	2514.220028
373.742096	2515.014010
374.128710	2511.321365
374.515262	2513.272291
374.901751	2513.572240
375.288177	2512.644668
375.674540	2512.316992
376.060841	2513.942765
376.447079	2512.755573
376.833254	2511.896056
377.219367	2509.854389
377.605417	2510.890346
377.991404	2510.242558
378.377329	2513.340347
378.763191	2510.207270
379.148991	2514.792199
379.534727	2513.383197
379.920402	2519.450225
380.306013	2516.912004
380.691563	2517.847138
381.077049	2518.689011
381.462474	2518.343692
381.847835	2515.876047
382.233134	2518.406706
382.618371	2516.632220
383.003545	2519.553569
383.388657	2515.611387
383.773706	2518.517612
384.158693	2514.509894
384.543618	2517.348064
384.928480	2519.689680
385.313280	2519.384690
385.698017	2518.505009
386.082692	2518.031140
386.467305	2520.017355
386.851856	2520.967613
387.236344	2519.828312
387.620770	2522.353930
388.005133	2521.401152
388.389435	2519.651871
388.773674	2521.068436
389.157851	2519.939217
389.541965	2520.188754
389.926018	2520.612211
390.310008	2522.638755
390.693936	2522.795031
391.077802	2520.599608
391.461606	2523.851153
391.845348	2522.071625
392.229027	2521.917870
392.612645	2521.139012
392.996200	2523.392407
393.379694	2522.364012
393.763125	2527.841226
394.146494	2523.105062
394.529801	2524.352747
394.913047	2525.010618
395.296230	2526.235618
395.679351	2523.392408
396.062410	2527.228726
396.445408	2523.465504
396.828343	2527.135464
397.211217	2518.600791
397.594028	2520.723117
397.976778	2526.084384
398.359466	2523.271420
398.742092	2519.893847
399.124656	2525.456760
399.507158	2525.262676
399.889598	2524.017511
400.271977	2526.956503
400.654294	2526.593540
401.036549	2525.779394
401.418742	2525.981040
401.800874	2528.458767
402.182944	2529.910619
402.564952	2528.637728
402.946898	2529.961031
403.328783	2530.571011
403.710606	2528.652852
404.092367	2527.037162
404.474067	2527.024559
404.855705	2530.717204
405.237282	2529.446833
405.618797	2529.814837
406.000250	2529.872811
406.381642	2528.998171
406.762972	2528.700742
407.144240	2528.685619
407.525447	2531.866587
407.906593	2529.640918
408.287677	2529.736700
408.668700	2530.500434
409.049661	2529.620753
409.430560	2529.280475
409.811399	2531.816176
410.192176	2532.161495
410.572891	2531.493542
410.953545	2529.635877
411.334138	2533.472195
411.714669	2530.296268
412.095139	2529.993798
412.475547	2533.769623
412.855894	2534.125024
413.236180	2533.489839
413.616405	2533.618388
413.996568	2530.061854
414.376670	2529.708973
414.756711	2534.888759
415.136691	2531.304498
415.516609	2534.745086
415.896466	2532.978162
416.276262	2533.968748
416.655997	2531.407842
417.035670	2528.526823
417.415283	2532.342976
417.794834	2530.444982
418.174324	2536.285158
418.553753	2531.768285
418.933121	2536.547298
419.312428	2534.684592
419.691674	2534.389685
420.070859	2535.803728
420.449983	2533.099149
420.829045	2534.636701
421.208047	2536.726259
421.586988	2536.575025
421.965867	2536.602751
422.344686	2534.908923
422.723444	2536.401105
423.102141	2536.335570
423.480777	2536.892617
423.859352	2535.599562
424.237866	2536.975797
424.616319	2540.880170
424.994712	2539.067875
425.373044	2538.311702
425.751314	2539.448482
426.129524	2539.209028
426.507673	2538.377237
426.885762	2536.315405
427.263789	2539.075437
427.641756	2536.020498
428.019662	2539.854295
428.397508	2538.561239
428.775292	2539.514018
429.153016	2539.980324
429.530679	2538.977135
429.908282	2537.336239
430.285824	2539.632485
430.663305	2540.280273
431.040726	2540.597866
431.418086	2540.187012
431.795385	2539.080478
432.172624	2541.220448
432.549802	2540.706250
432.926920	2539.960160
433.303977	2541.895963
433.680974	2540.318082
434.057910	2542.546272
434.434786	2539.738349
434.811601	2544.315717
435.188355	2541.495191
435.565050	2540.744059
435.941683	2540.108874
436.318257	2539.052752
436.694770	2540.262629
437.071222	2539.798843
437.447614	2538.457896
437.823946	2540.497042
438.200218	2543.483926
438.576429	2542.495860
438.952580	2544.444266
439.328670	2544.194729
439.704700	2544.729091
440.080670	2544.658515
440.456580	2541.701878
440.832429	2543.912424
441.208218	2543.294883
441.583947	2545.167672
441.959616	2544.688762
442.335224	2545.712116
442.710773	2544.330840
443.086261	2544.441745
443.461689	2544.797147
443.837057	2546.581715
444.212365	2544.449307
444.587612	2546.087682
444.962800	2545.528114
445.337927	2546.576674
445.712995	2544.154400
446.088002	2544.298072
446.462949	2545.797816
446.837837	2545.455017
447.212664	2544.779503
447.587431	2547.965512
447.962139	2545.797816
448.336786	2549.384597
448.711374	2547.206818
449.085901	2547.537014
449.460369	2547.594987
449.834776	2548.018444
450.209124	2546.508618
450.583412	2550.140770
450.957640	2548.792261
451.331808	2549.704710
451.705917	2550.130688
452.079965	2549.631613
452.453954	2549.591284
452.827883	2552.421892
453.201752	2550.990204
453.575562	2551.786707
453.949311	2547.146324
454.323001	2551.161603
454.696632	2548.910728
455.070202	2550.602035
455.443713	2546.632127
455.817164	2548.635985
456.190556	2552.416851
456.563888	2548.547765
456.937160	2546.410316
457.310373	2553.011707
457.683526	2550.279402
458.056619	2551.015410
458.429653	2552.563044
458.802628	2550.697817
459.175542	2554.990360
459.548398	2554.261913
459.921194	2552.542880
460.293930	2555.202088
460.666607	2556.432130
461.039224	2557.339537
461.411782	2557.934394
461.784280	2558.095711
462.156719	2559.043447
462.529099	2559.993705
462.901419	2560.737275
463.273680	2557.934394
463.645882	2561.322049
464.018024	2562.431103
464.390106	2563.134344
464.762130	2567.797411
465.134094	2570.199521
465.505999	2576.402661
465.877845	2585.464135
466.249631	2588.514033
466.621358	2588.703076
466.993026	2590.885896
467.364634	2595.440578
467.736184	2595.488469
468.107674	2595.871597
468.479105	2601.391660
468.850477	2602.165478
469.221790	2604.615478
469.593043	2608.550099
469.964238	2607.995572
470.335373	2613.802981
470.706449	2624.946452
471.077467	2630.786628
471.448425	2655.826040
471.819324	2683.776717
472.190164	2686.365350
472.560945	2676.703978
472.931667	2672.227434
473.302330	2674.145593
473.672934	2678.138187
474.043479	2695.230219
474.413965	2702.537371
474.784393	2711.414843
475.154761	2722.936400
475.525070	2738.657238
475.895321	2743.174112
476.265513	2758.761360
476.635645	2781.040739
477.005719	2798.830971
477.375734	2816.777479
477.745691	2840.680110
478.115588	2865.091897
478.485427	2893.937380
478.855207	2945.069803
479.224928	3018.259795
479.594591	3075.920513
479.964194	3087.444591
480.333739	3098.943463
480.703226	3122.926752
481.072653	3160.526198
481.442022	3222.779407
481.811333	3266.105604
482.180584	3284.735188
482.549777	3295.245993
482.918912	3312.683345
483.287988	3355.361753
483.657005	3392.278123
484.025964	3397.939338
484.394864	3443.483643
484.763706	3485.763800
485.132489	3492.705469
485.501213	3531.305584
485.869879	3574.876277
486.238487	3610.938171
486.607036	3657.654543
486.975527	3686.578164
487.343959	3752.113164
487.712333	3812.435611
488.080648	3847.582535
488.448905	3910.735590
488.817104	3945.123821
489.185244	4047.436559
489.553326	4138.651197
489.921350	4305.704953
490.289315	4580.679730
490.657222	4706.577507
491.025070	4768.127474
491.392861	4806.231036
491.760593	4797.948420
492.128267	4790.729488
492.495883	4779.873363
492.863440	4765.969861
493.230939	4763.252679
493.598380	4813.767561
493.965763	4856.536710
494.333088	4880.404053
494.700354	4940.872693
495.067563	5012.968755
495.434713	5043.157705
495.801805	5146.415659
496.168839	5198.573957
496.535815	5253.857771
496.902733	5311.178211
497.269593	5376.413262
497.636395	5469.687211
498.003139	5553.987906
498.369825	5563.326644
498.736453	5704.095824
499.103023	5743.500003
499.469535	5833.446790
499.835989	5896.244444
500.202385	5958.565708
500.568723	5970.931659
500.935003	6121.334484
501.301226	6146.661241
501.667390	6308.386497
502.033497	6436.240241
502.399546	6446.637621
502.765537	6478.757332
503.131470	6588.016780
503.497345	6749.535350
503.863163	6634.435725
504.228923	6866.394337
504.594625	6966.546940
504.960269	6917.665392
505.325856	7097.453103
505.691385	7067.523772
506.056856	7218.586989
506.422270	7314.898233
506.787625	7314.265568
507.152924	7462.127652
507.518164	7517.323245
507.883347	7550.957823
508.248472	7566.877787
508.613540	7784.950541
508.978550	7787.687888
509.343503	7841.524890
509.708398	7990.939649
510.073236	8134.889797
510.438016	8200.507976
510.802738	8238.934171
511.167403	8342.608021
511.532010	8347.288732
511.896561	8549.320534
512.261053	8674.842744
512.625488	8652.747367
512.989866	8707.622847
513.354186	8758.523377
513.718449	8752.494157
514.082655	8949.036143
514.446803	8939.911655
514.810894	9093.160211
515.174927	9057.423471
515.538904	9127.697156
515.902822	9302.360534
516.266684	9264.496427
516.630488	9281.805229
516.994235	9371.981389
517.357925	9482.692689
517.721558	9605.507800
518.085133	9673.880969
518.448651	9721.852589
518.812112	9676.701495
519.175516	9745.480478
519.538863	9894.280216
519.902152	9862.959527
520.265385	10061.323889
520.628560	10019.560450
520.991678	10055.866840
521.354739	10141.574017
521.717743	10127.352923
522.080690	10151.303444
522.443580	10310.891252
522.806413	10319.998096
523.169189	10377.177384
523.531908	10468.951589
523.894569	10344.687147
524.257174	10392.038705
524.619722	10527.844869
524.982213	10507.072795
525.344647	10598.889850
525.707025	10580.847561
526.069345	10695.649757
526.431608	10654.118211
526.793815	10781.109918
527.155964	10612.843764
527.518057	10692.977946
527.880093	10671.162353
528.242072	10755.820970
528.603995	10700.678308
528.965860	10646.546398
529.327669	10713.999557
529.689421	10691.755466
530.051117	10683.240957
530.412755	10800.556169
530.774337	10713.366892
531.135862	10720.845444
531.497331	10762.248441
531.858743	10636.277568
532.220098	10809.030348
532.581396	10702.886334
532.942638	10704.567558
533.303824	10675.986737
533.664953	10705.984123
534.026025	10639.377878
534.387040	10735.961344
534.747999	10756.544375
535.108902	10826.472741
535.469748	10598.136198
535.830537	10708.817251
536.191270	10704.164266
536.551947	10737.972764
536.912567	10733.508823
537.273131	10672.132775
537.633638	10665.160859
537.994089	10661.984932
538.354483	10618.948602
538.714821	10762.354305
539.075103	10777.888621
539.435328	10752.861812
539.795497	10584.033570
540.155609	10744.664896
540.515665	10840.106541
540.875665	10581.868394
541.235609	10651.693416
541.595496	10647.736111
541.955328	10813.136368
542.315102	10698.770232
542.674821	10656.779941
543.034483	10658.161217
543.394090	10661.410240
543.753640	10599.769532
544.113134	10820.574591
544.472571	10674.023207
544.831953	10821.789509
545.191278	10631.480910
545.550548	10663.409058
545.909761	10803.217898
546.268918	10775.925091
546.628019	10861.574295
546.987064	10730.925231
547.346053	10658.365383
547.704986	10754.979097
548.063863	10738.809596
548.422684	10736.949410
548.781449	10651.290124
549.140158	10756.282235
549.498811	10632.060643
549.857408	10491.755249
550.215949	10721.609179
550.574434	10580.328322
550.932864	10676.256438
551.291237	10739.109545
551.649555	10684.856647
552.007817	10698.273678
552.366022	10661.727833
552.724173	10658.977884
553.082267	10638.392332
553.440305	10773.855698
553.798288	10580.177087
554.156215	10731.255427
554.514086	10714.738086
554.871902	10562.041536
555.229661	10601.365057
555.587365	10578.916799
555.945014	10472.896292
556.302606	10597.727864
556.660143	10494.621145
557.017625	10643.907354
557.375050	10546.555112
557.732421	10678.784577
558.089735	10594.090672
558.446994	10598.980591
558.804197	10634.732454
559.161345	10628.277257
559.518437	10489.940433
559.875474	10573.091746
560.232455	10605.564338
560.589381	10554.948633
560.946251	10551.671883
561.303065	10655.408747
561.659825	10596.694428
562.016528	10519.027891
562.373177	10406.690819
562.729770	10519.922696
563.086307	10440.537126
563.442789	10527.731443
563.799216	10407.686447
564.155587	10458.773500
564.511904	10415.651470
564.868164	10402.748637
565.224370	10418.769423
565.580520	10342.879893
565.936615	10349.866933
566.292654	10219.555626
566.648638	10346.325522
567.004567	10304.574686
567.360441	10294.575557
567.716260	10197.369508
568.072023	10298.883223
568.427732	10247.881870
568.783385	10154.260081
569.138982	10218.648219
569.494525	10247.097970
569.850013	10122.286563
570.205445	10199.632986
570.560823	10099.467780
570.916145	10011.247588
571.271412	10089.030071
571.626625	10032.344817
571.981782	10007.554943
572.336884	9977.325663
572.691931	9992.249999
573.046923	9934.881669
573.401860	9889.158403
573.756743	9824.941665
574.111570	9872.759530
574.466342	9857.273105
574.821059	9883.063648
575.175722	9779.810735
575.530330	9789.527559
575.884882	9777.096074
576.239380	9706.250218
576.593823	9682.889511
576.948211	9697.627325
577.302544	9582.580632
577.656823	9590.313762
578.011047	9593.396428
578.365216	9572.097553
578.719330	9493.357250
579.073389	9504.314198
579.427394	9456.856776
579.781344	9430.983054
580.135239	9382.739211
580.489080	9386.469665
580.842866	9297.768043
581.196597	9301.450606
581.550273	9343.322429
581.903895	9309.584507
582.257463	9373.667655
582.610975	9252.188450
582.964434	9279.100650
583.317837	9202.104587
583.671186	9180.316720
584.024481	9178.736318
584.377721	9100.893341
584.730906	9078.704702
585.084037	9106.108415
585.437113	9039.449237
585.790135	9062.981343
586.143103	8962.740520
586.496016	8933.912682
586.848874	8990.943255
587.201679	8983.890681
587.554428	8872.219041
587.907124	8914.274867
588.259765	8886.271257
588.612352	8889.563131
588.964884	8765.719625
589.317362	8780.596070
589.669786	8777.546172
590.022155	8824.622987
590.374470	8837.969442
590.726731	8780.691852
591.078937	8631.128379
591.431090	8749.774455
591.783188	8624.708469
592.135232	8614.187581
592.487222	8610.600800
592.839157	8665.688009
593.191038	8596.767874
593.542866	8541.907517
593.894639	8444.061242
594.246358	8495.811207
594.598022	8517.538580
594.949633	8413.779031
595.301190	8384.648723
595.652692	8414.101664
596.004141	8523.288016
596.355535	8298.694529
596.706876	8281.685676
597.058162	8219.190492
597.409395	8293.648334
597.760573	8357.282819
598.111698	8264.034076
598.462768	8249.999504
598.813785	8215.276036
599.164748	8185.129936
599.515657	8176.156682
599.866511	8087.344154
600.217312	8212.531128
600.568060	8068.855723
600.918753	8172.534613
601.269392	8144.152917
601.619978	8057.470277
601.970510	8127.043241
602.320988	8116.721478
602.671412	8171.513780
603.021783	8108.993390
603.372100	8083.643947
603.722363	8089.085873
604.072572	8061.553611
604.422728	8071.754386
604.772830	8003.945826
605.122878	8009.591918
605.472872	8006.269798
605.822813	8035.460599
606.172701	7978.142680
606.522534	8056.885503
606.872314	8051.367960
607.222041	8018.388732
607.571714	8078.738905
607.921333	8037.139303
608.270899	8046.019296
608.620411	8132.459961
608.969870	8037.746762
609.319276	8029.426338
609.668627	8046.210860
610.017926	8083.573371
610.367171	8127.784291
610.716362	8108.920293
611.065500	8100.325126
611.414585	8127.565000
611.763616	8109.847865
612.112594	8095.198272
612.461518	8117.402034
612.810389	8166.828027
613.159207	8113.716951
613.507971	8055.126140
613.856682	8181.659102
614.205340	8136.384499
614.553945	8212.395017
614.902496	8106.067000
615.250994	8162.510279
615.599439	8142.005386
615.947830	8161.880135
616.296169	8125.929146
616.644454	8142.827094
616.992686	8136.520610
617.340864	8193.689815
617.688990	8108.128832
618.037063	8196.517903
618.385082	8142.065879
618.733048	8222.994043
619.080961	8161.711256
619.428821	8190.796193
619.776628	8187.761418
620.124382	8135.373748
620.472083	8125.311605
620.819731	8149.133577
621.167326	8042.578708
621.514868	8050.853762
621.862357	7938.297400
622.209793	7957.632745
622.557176	7896.710401
622.904506	7864.520113
623.251783	7797.994527
623.599007	7750.428719
623.946179	7757.395594
624.293297	7714.901188
624.640363	7634.033518
624.987376	7616.848225
625.334336	7561.337559
625.681243	7512.138418
626.028097	7500.211048
626.374899	7477.903943
626.721647	7471.804146
627.068343	7407.494147
627.414987	7375.969291
627.761577	7335.914803
628.108115	7371.961574
628.454600	7260.418483
628.801032	7313.340516
629.147412	7273.583457
629.493739	7262.881087
629.840014	7200.438835
630.186236	7255.909171
630.532405	7136.776623
630.878521	7187.989705
631.224585	7148.565362
631.570597	7073.006027
631.916556	7105.869309
632.262462	7099.093998
632.608316	7060.483801
632.954117	7039.164762
633.299866	7025.649428
633.645562	7020.119282
633.991206	6944.328055
634.336797	6884.260186
634.682336	6838.778896
635.027823	6812.088507
635.373257	6799.841024
635.718639	6733.345684
636.063968	6744.123671
636.409245	6641.629452
636.754470	6635.539738
637.099642	6594.381237
637.444762	6542.807713
637.789829	6550.535802
638.134845	6495.980435
638.479808	6477.295398
638.824719	6482.729762
639.169577	6408.944913
639.514383	6431.801505
639.859137	6357.956163
640.203839	6375.819492
640.548489	6357.111770
640.893086	6332.914231
641.237632	6305.344161
641.582125	6324.508107
641.926566	6296.139014
642.270955	6307.063194
