Dividing Wavelength (nm)	Counts (n)	Blue Motor Position (mm): 16.100000	Red Motor Position (mm): 0.000000	
326.493990	2134.265742
326.888308	2134.265742
327.282561	2134.265742
327.676750	2102.887080
328.070874	2102.370362
328.464933	2103.446648
328.858929	2109.841352
329.252859	2120.281581
329.646726	2130.966307
330.040528	2146.109933
330.434265	2161.886224
330.827938	2177.758297
331.221547	2197.625484
331.615091	2218.367312
332.008571	2233.049672
332.401986	2256.191089
332.795338	2275.140786
333.188625	2295.678447
333.581847	2312.974646
333.975006	2331.064827
334.368100	2349.031499
334.761129	2365.717718
335.154095	2383.061808
335.546996	2403.808677
335.939833	2423.892633
336.332606	2437.113059
336.725315	2448.775769
337.117960	2459.901595
337.510540	2466.129941
337.903056	2478.357260
338.295508	2489.830926
338.687896	2492.827892
339.080220	2503.230313
339.472480	2508.422701
339.864676	2515.177847
340.256807	2517.678260
340.648875	2521.025586
341.040879	2524.531708
341.432818	2526.555732
341.824694	2529.144364
342.216506	2527.725279
342.608253	2529.537574
342.999937	2528.166380
343.391557	2528.332738
343.783113	2526.613705
344.174605	2525.824764
344.566033	2522.916018
344.957397	2521.842253
345.348697	2518.585667
345.739934	2515.757580
346.131106	2517.945441
346.522215	2515.288753
346.913260	2512.511077
347.304241	2510.504698
347.695159	2510.287928
348.086012	2507.681652
348.476802	2505.269459
348.867528	2504.888852
349.258191	2504.808194
349.648789	2503.142093
350.039324	2500.981958
350.429796	2501.952380
350.820203	2496.089518
351.210548	2499.880466
351.600828	2494.942656
351.991045	2494.476349
352.381198	2494.998108
352.771288	2494.506596
353.161314	2495.333345
353.551276	2494.420896
353.941175	2491.620535
354.331010	2494.115907
354.720782	2494.196565
355.110490	2490.743375
355.500135	2494.030207
355.889717	2493.541215
356.279235	2494.630104
356.668689	2494.579693
357.058080	2495.802173
357.447408	2491.257572
357.836672	2492.417038
358.225873	2494.196565
358.615010	2493.460557
359.004084	2497.148161
359.393095	2497.448109
359.782043	2499.451968
360.170927	2500.082112
360.559748	2498.567245
360.948505	2502.476660
361.337199	2501.624705
361.725830	2500.135044
362.114398	2498.136227
362.502903	2501.508759
362.891344	2501.594458
363.279722	2501.297030
363.668037	2500.513131
364.056289	2503.381547
364.444478	2502.585045
364.832603	2503.875580
365.220665	2505.312309
365.608665	2501.539006
365.996601	2506.033194
366.384474	2503.936074
366.772284	2504.881291
367.160031	2507.676610
367.547715	2504.069665
367.935336	2509.067969
368.322893	2508.400016
368.710388	2507.873215
369.097820	2508.231137
369.485189	2507.444717
369.872495	2508.639471
370.259738	2508.649553
370.646918	2506.063441
371.034035	2504.646877
371.421090	2508.999913
371.808081	2509.289780
372.195010	2509.851868
372.581875	2510.144255
372.968678	2511.268432
373.355418	2510.852537
373.742096	2508.573936
374.128710	2512.367404
374.515262	2511.588546
374.901751	2510.842455
375.288177	2511.976715
375.674540	2510.363545
376.060841	2511.187774
376.447079	2514.202384
376.833254	2511.873371
377.219367	2507.180057
377.605417	2509.582167
377.991404	2509.267094
378.377329	2509.849348
378.763191	2509.078051
379.148991	2513.211797
379.534727	2512.954698
379.920402	2515.603825
380.306013	2515.046777
380.691563	2513.148783
381.077049	2515.742457
381.462474	2513.708351
381.847835	2515.417302
382.233134	2515.003928
382.618371	2513.796571
383.003545	2514.512415
383.388657	2515.187930
383.773706	2512.942096
384.158693	2515.737415
384.543618	2516.375121
384.928480	2514.721623
385.313280	2518.079031
385.698017	2515.510563
386.082692	2518.890657
386.467305	2516.942251
386.851856	2515.629031
387.236344	2518.983918
387.620770	2520.735719
388.005133	2519.009124
388.389435	2520.433250
388.773674	2519.351923
389.157851	2519.062056
389.541965	2519.949299
389.926018	2519.828312
390.310008	2519.649351
390.693936	2521.083559
391.077802	2518.951151
391.461606	2521.567510
391.845348	2519.979546
392.229027	2520.014834
392.612645	2520.299660
392.996200	2521.345699
393.379694	2521.812006
393.763125	2519.651871
394.146494	2522.928621
394.529801	2524.009949
394.913047	2522.923580
395.296230	2524.632531
395.679351	2520.287057
396.062410	2524.163704
396.445408	2523.654548
396.828343	2524.451050
397.211217	2516.123064
397.594028	2519.934176
397.976778	2518.263033
398.359466	2522.555576
398.742092	2518.270595
399.124656	2522.694208
399.507158	2523.581451
399.889598	2524.274609
400.271977	2522.427027
400.654294	2523.193282
401.036549	2527.158149
401.418742	2524.443488
401.800874	2525.963396
402.182944	2525.550021
402.564952	2522.553055
402.946898	2527.362316
403.328783	2527.437933
403.710606	2525.229908
404.092367	2526.200330
404.474067	2525.759229
404.855705	2526.338962
405.237282	2527.019518
405.618797	2528.572193
406.000250	2528.914992
406.381642	2525.363499
406.762972	2527.367357
407.144240	2527.291740
407.525447	2529.272913
407.906593	2526.880886
408.287677	2527.080012
408.668700	2529.323325
409.049661	2528.436082
409.430560	2526.767460
409.811399	2530.825589
410.192176	2528.489014
410.572891	2528.799045
410.953545	2525.497089
411.334138	2528.902389
411.714669	2528.443644
412.095139	2528.884745
412.475547	2530.243336
412.855894	2531.208717
413.236180	2530.603778
413.616405	2530.288706
413.996568	2529.731658
414.376670	2528.451205
414.756711	2529.214940
415.136691	2531.259128
415.516609	2531.843902
415.896466	2532.158974
416.276262	2531.080167
416.655997	2526.505320
417.035670	2528.209230
417.415283	2526.124713
417.794834	2529.721576
418.174324	2528.007584
418.553753	2532.098480
418.933121	2532.151412
419.312428	2529.535053
419.691674	2530.815507
420.070859	2531.060002
420.449983	2531.682585
420.829045	2531.803573
421.208047	2530.228212
421.586988	2531.501103
421.965867	2532.181659
422.344686	2533.527647
422.723444	2535.503780
423.102141	2532.529499
423.480777	2533.981351
423.859352	2532.670651
424.237866	2532.111083
424.616319	2534.356917
424.994712	2533.784746
425.373044	2533.837678
425.751314	2533.411701
426.129524	2533.245343
426.507673	2534.606454
426.885762	2531.168387
427.263789	2532.499252
427.641756	2535.367668
428.019662	2535.526465
428.397508	2534.805580
428.775292	2538.256250
429.153016	2533.477236
429.530679	2536.365817
429.908282	2535.574356
430.285824	2533.784746
430.663305	2536.509490
431.040726	2536.950591
431.418086	2532.332894
431.795385	2537.525282
432.172624	2536.809438
432.549802	2534.354397
432.926920	2534.634181
433.303977	2537.353883
433.680974	2533.494880
434.057910	2537.951260
434.434786	2537.484953
434.811601	2536.433873
435.188355	2537.242978
435.565050	2534.913965
435.941683	2535.518903
436.318257	2537.260622
436.694770	2535.561753
437.071222	2536.204500
437.447614	2531.211237
437.823946	2534.291382
438.200218	2537.636188
438.576429	2536.083512
438.952580	2538.077289
439.328670	2536.965714
439.704700	2539.874460
440.080670	2534.750127
440.456580	2539.743390
440.832429	2537.167360
441.208218	2536.620395
441.583947	2538.992258
441.959616	2536.307844
442.335224	2537.111908
442.710773	2538.614172
443.086261	2540.988555
443.461689	2537.784902
443.837057	2540.726415
444.212365	2538.379758
444.587612	2541.873278
444.962800	2538.823379
445.337927	2541.598535
445.712995	2542.516025
446.088002	2540.333205
446.462949	2539.884542
446.837837	2539.135931
447.212664	2537.711805
447.587431	2541.477547
447.962139	2541.149872
448.336786	2541.845551
448.711374	2541.805222
449.085901	2541.038967
449.460369	2541.210366
449.834776	2538.362114
450.209124	2540.355890
450.583412	2538.994779
450.957640	2541.664070
451.331808	2544.086344
451.705917	2544.051056
452.079965	2541.023843
452.453954	2540.880170
452.827883	2542.717671
453.201752	2541.147351
453.575562	2541.152392
453.949311	2541.016281
454.323001	2544.635830
454.696632	2542.379913
455.070202	2543.582229
455.443713	2542.117773
455.817164	2540.660880
456.190556	2538.520910
456.563888	2538.750283
456.937160	2540.111394
457.310373	2541.038967
457.683526	2542.163144
458.056619	2543.720860
458.429653	2543.420912
458.802628	2541.691796
459.175542	2543.015099
459.548398	2545.076931
459.921194	2544.623227
460.293930	2545.339071
460.666607	2541.417053
461.039224	2545.699513
461.411782	2544.308155
461.784280	2543.332692
462.156719	2542.942002
462.529099	2544.416540
462.901419	2544.212373
463.273680	2545.893598
463.645882	2540.335726
464.018024	2545.596170
464.390106	2545.802857
464.762130	2547.784030
465.134094	2546.861499
465.505999	2547.287477
465.877845	2545.470141
466.249631	2547.355532
466.621358	2545.200439
466.993026	2547.484082
467.364634	2549.104813
467.736184	2546.964843
468.107674	2547.468958
468.479105	2543.327650
468.850477	2547.229503
469.221790	2546.395192
469.593043	2544.262784
469.964238	2547.486602
470.335373	2544.663556
470.706449	2547.237065
471.077467	2547.650440
471.448425	2548.920811
471.819324	2549.021634
472.190164	2548.446942
472.560945	2546.180943
472.931667	2545.770089
473.302330	2546.821170
473.672934	2548.033568
474.043479	2548.267981
474.413965	2547.365615
474.784393	2546.221273
475.154761	2545.165151
475.525070	2542.405119
475.895321	2543.715819
476.265513	2541.114584
476.635645	2547.380738
477.005719	2547.257230
477.375734	2550.153373
477.745691	2546.828732
478.115588	2551.297715
478.485427	2549.918959
478.855207	2550.274360
479.224928	2550.397869
479.594591	2548.835111
479.964194	2551.262427
480.333739	2550.566747
480.703226	2552.953734
481.072653	2550.097920
481.442022	2551.708569
481.811333	2553.084804
482.180584	2550.458363
482.549777	2550.758311
482.918912	2550.836449
483.287988	2552.636141
483.657005	2550.551624
484.025964	2550.778476
484.394864	2550.554144
484.763706	2552.875596
485.132489	2550.039947
485.501213	2552.563044
485.869879	2549.666901
486.238487	2549.394679
486.607036	2552.000956
486.975527	2553.200750
487.343959	2551.234700
487.712333	2550.652447
488.080648	2549.382076
488.448905	2551.960626
488.817104	2551.373332
489.185244	2551.867365
489.553326	2550.942313
489.921350	2549.689587
490.289315	2551.360729
490.657222	2556.301060
491.025070	2554.095555
491.392861	2554.559341
491.760593	2550.949875
492.128267	2554.541697
492.495883	2554.282078
492.863440	2554.917263
493.230939	2553.175544
493.598380	2552.726882
493.965763	2548.497354
494.333088	2549.377035
494.700354	2549.949206
495.067563	2553.556152
495.434713	2548.600697
495.801805	2550.357539
496.168839	2553.150339
496.535815	2553.742674
496.902733	2556.732078
497.269593	2553.808209
497.636395	2555.370967
498.003139	2550.808723
498.369825	2553.911553
498.736453	2559.403890
499.103023	2553.344423
499.469535	2557.011862
499.835989	2554.224104
500.202385	2554.904660
500.568723	2553.934238
500.935003	2555.239897
501.301226	2556.888354
501.667390	2557.279044
502.033497	2554.909701
502.399546	2554.844166
502.765537	2556.681667
503.131470	2556.482541
503.497345	2558.657799
503.863163	2558.960268
504.228923	2557.485731
504.594625	2557.609239
504.960269	2555.479352
505.325856	2560.308777
505.691385	2558.345248
506.056856	2556.626214
506.422270	2559.199723
506.787625	2560.049158
507.152924	2558.017573
507.518164	2558.703170
507.883347	2559.411452
508.248472	2559.194682
508.613540	2561.826164
508.978550	2557.712583
509.343503	2559.340876
509.708398	2559.592933
510.073236	2563.424210
510.438016	2562.683161
510.802738	2561.785835
511.167403	2561.274158
511.532010	2559.562686
511.896561	2562.902451
512.261053	2563.462019
512.625488	2560.311298
512.989866	2558.236863
513.354186	2562.287430
513.718449	2562.478994
514.082655	2564.785322
514.446803	2565.317163
514.810894	2565.831361
515.174927	2567.237843
515.538904	2565.470919
515.902822	2569.125755
516.266684	2566.242215
516.630488	2567.018553
516.994235	2567.182390
517.357925	2569.082905
517.721558	2569.460992
518.085133	2567.797411
518.448651	2567.953687
518.812112	2569.234140
519.175516	2570.713719
519.538863	2570.822103
519.902152	2571.913513
520.265385	2573.221693
520.628560	2575.477609
520.991678	2574.297979
521.354739	2575.495253
521.717743	2575.565829
522.080690	2577.436097
522.443580	2577.723443
522.806413	2579.140007
523.169189	2580.881726
523.531908	2582.666294
523.894569	2582.157138
524.257174	2584.869279
524.619722	2585.391038
524.982213	2589.189547
525.344647	2589.497058
525.707025	2589.275247
526.069345	2592.604929
526.431608	2594.056782
526.793815	2595.685074
527.155964	2597.154571
527.518057	2598.306474
527.880093	2600.577514
528.242072	2606.420211
528.603995	2604.539861
528.965860	2605.928699
529.327669	2609.160078
529.689421	2609.969184
530.051117	2616.689042
530.412755	2616.016048
530.774337	2618.677777
531.135862	2620.963940
531.497331	2619.068466
531.858743	2623.948303
532.220098	2630.519447
532.581396	2631.787297
532.942638	2634.295272
533.303824	2641.282311
533.664953	2647.137611
534.026025	2648.342447
534.387040	2655.899136
534.747999	2656.241935
535.108902	2666.253666
535.469748	2663.609581
535.830537	2668.945642
536.191270	2675.562157
536.551947	2681.523321
536.912567	2686.554393
537.273131	2690.955320
537.633638	2699.794983
537.994089	2703.376723
538.354483	2707.785212
538.714821	2719.946996
539.075103	2722.525546
539.435328	2732.731362
539.795497	2735.408215
540.155609	2747.038157
540.515665	2754.546955
540.875665	2756.202974
541.235609	2769.252001
541.595496	2776.133176
541.955328	2787.322017
542.315102	2793.905764
542.674821	2800.875159
543.034483	2807.978145
543.394090	2817.775627
543.753640	2827.063953
544.113134	2845.275122
544.472571	2848.304855
544.831953	2866.460571
545.191278	2872.618340
545.550548	2882.705689
545.909761	2901.859553
546.268918	2910.084196
546.628019	2926.155394
546.987064	2936.656118
547.346053	2944.187601
547.704986	2963.956486
548.063863	2974.409319
548.422684	2988.292656
548.781449	3002.107938
549.140158	3018.428674
549.498811	3027.853111
549.857408	3034.774615
550.215949	3063.536919
550.574434	3068.333577
550.932864	3095.613781
551.291237	3108.733383
551.649555	3129.699542
552.007817	3147.961122
552.366022	3158.938235
552.724173	3182.379600
553.082267	3195.814275
553.440305	3235.084863
553.798288	3232.367682
554.156215	3268.275820
554.514086	3288.057308
554.871902	3292.470838
555.229661	3319.362873
555.587365	3342.196780
555.945014	3345.990248
556.302606	3393.004049
556.660143	3397.273906
557.017625	3444.338118
557.375050	3456.782207
557.732421	3493.151611
558.089735	3512.923017
558.446994	3536.162736
558.804197	3564.088207
559.161345	3590.080397
559.518437	3587.103595
559.875474	3633.537663
560.232455	3668.200637
560.589381	3681.045497
560.946251	3726.725913
561.303065	3746.368769
561.659825	3779.252215
562.016528	3789.677322
562.373177	3791.431643
562.729770	3853.415150
563.086307	3864.074670
563.442789	3904.290475
563.799216	3929.415586
564.155587	3956.836942
564.511904	3983.320644
564.868164	4012.879449
565.224370	4040.462122
565.580520	4074.164757
565.936615	4086.077003
566.292654	4105.634159
566.648638	4156.907735
567.004567	4188.853527
567.360441	4209.121486
567.716260	4233.029158
568.072023	4278.192856
568.427732	4310.020180
568.783385	4308.233091
569.138982	4370.095611
569.494525	4405.015683
569.850013	4409.681271
570.205445	4469.673523
570.560823	4471.077484
570.916145	4493.548427
571.271412	4550.581521
571.626625	4567.204726
571.981782	4588.276749
572.336884	4626.897029
572.691931	4644.720028
573.046923	4678.475594
573.401860	4697.616856
573.756743	4720.118046
574.111570	4768.850880
574.466342	4789.330567
574.821059	4845.181511
575.175722	4839.671530
575.530330	4886.793715
575.884882	4910.426645
576.239380	4929.295683
576.593823	4947.746307
576.948211	4999.955016
577.302544	4974.887879
577.656823	5029.967526
578.011047	5058.792843
578.365216	5092.399696
578.719330	5096.830870
579.073389	5137.770080
579.427394	5145.205782
579.781344	5173.005225
580.135239	5191.765879
580.489080	5220.611361
580.842866	5228.712496
581.196597	5262.508391
581.550273	5310.298529
581.903895	5343.912943
582.257463	5394.614348
582.610975	5390.125201
582.964434	5423.759779
583.317837	5427.449904
583.671186	5442.961534
584.024481	5483.905786
584.377721	5478.292461
584.730906	5503.258775
585.084037	5552.220982
585.437113	5550.416249
585.790135	5599.746460
586.143103	5583.740796
586.496016	5600.931131
586.848874	5657.084544
587.201679	5686.789543
587.554428	5670.252037
587.907124	5721.195418
588.259765	5738.088324
588.612352	5779.100631
588.964884	5737.760649
589.317362	5786.044821
589.669786	5815.172608
590.022155	5865.516091
590.374470	5911.589716
590.726731	5897.328292
591.078937	5857.193146
591.431090	5957.121418
591.783188	5909.568213
592.135232	5943.875786
592.487222	5956.208969
592.839157	6021.716243
593.191038	6014.388925
593.542866	6011.969172
593.894639	5985.545964
594.246358	6041.764911
594.598022	6084.551705
594.949633	6053.858639
595.301190	6066.453962
595.652692	6112.330983
596.004141	6213.625408
596.355535	6095.944712
596.706876	6117.364575
597.058162	6102.457883
597.409395	6173.454973
597.760573	6237.281022
598.111698	6205.191557
598.462768	6232.817080
598.813785	6225.421708
599.164748	6244.709162
599.515657	6249.543629
599.866511	6232.065948
600.217312	6327.187480
600.568060	6261.735659
600.918753	6355.117993
601.269392	6357.293251
601.619978	6326.562377
601.970510	6396.455455
602.320988	6413.567652
602.671412	6480.342775
603.021783	6455.820082
603.372100	6466.885415
603.722363	6490.357027
604.072572	6488.186811
604.422728	6521.586976
604.772830	6492.744014
605.122878	6518.557242
605.472872	6538.096754
605.822813	6582.889927
606.172701	6562.874026
606.522534	6639.912939
606.872314	6655.149826
607.222041	6665.620303
607.571714	6723.049127
607.921333	6711.262910
608.270899	6737.066056
608.620411	6824.963614
608.969870	6773.874040
609.319276	6785.461132
609.668627	6821.407080
610.017926	6862.905858
610.367171	6927.074706
610.716362	6921.035403
611.065500	6934.845644
611.414585	6979.071687
611.763616	6978.698642
612.112594	6986.010835
612.461518	7016.794641
612.810389	7078.820998
613.159207	7053.915178
613.507971	7022.150867
613.856682	7143.022613
614.205340	7119.863552
614.553945	7200.108639
614.902496	7132.025336
615.250994	7196.007661
615.599439	7193.671086
615.947830	7223.003039
616.296169	7210.571554
616.644454	7237.025009
616.992686	7245.569765
617.340864	7312.982594
617.688990	7247.692090
618.037063	7336.096285
618.385082	7297.050028
618.733048	7393.373875
619.080961	7343.355546
619.428821	7380.261834
619.776628	7400.406284
620.124382	7370.156841
620.472083	7369.647684
620.819731	7411.106133
621.167326	7332.012950
621.514868	7351.189499
621.862357	7263.354955
622.209793	7291.585417
622.557176	7255.316836
622.904506	7246.983808
623.251783	7200.693413
623.599007	7176.470669
623.946179	7190.606064
624.293297	7165.843917
624.640363	7105.523990
624.987376	7102.032991
625.334336	7061.834830
625.681243	7033.647219
626.028097	7029.649584
626.374899	7016.224991
626.721647	7025.997268
627.068343	6969.342260
627.414987	6956.298275
627.761577	6922.434324
628.108115	6959.169212
628.454600	6876.383383
628.801032	6931.190808
629.147412	6897.853657
629.493739	6894.317288
629.840014	6841.730492
630.186236	6899.000520
630.532405	6803.785727
630.878521	6856.967379
631.224585	6821.354148
631.570597	6757.729745
631.916556	6798.298431
632.262462	6796.007226
632.608316	6768.202742
632.954117	6751.209013
633.299866	6748.643065
633.645562	6740.519246
633.991206	6677.378794
634.336797	6631.166537
634.682336	6595.921310
635.027823	6571.978349
635.373257	6569.881229
635.718639	6509.016858
636.063968	6523.789960
636.409245	6436.706548
636.754470	6439.055725
637.099642	6398.431587
637.444762	6355.947263
637.789829	6366.631989
638.134845	6318.483928
638.479808	6308.386497
638.824719	6315.791952
639.169577	6252.417087
639.514383	6276.443226
639.859137	6208.422937
640.203839	6219.989864
640.548489	6213.907712
640.893086	6193.659918
641.237632	6168.655795
641.582125	6192.263518
641.926566	6166.896432
642.270955	6179.201889
642.615292	6180.101735
642.959576	6198.910280
643.303809	6189.916861
643.647990	6198.718716
643.992118	6192.369382
644.336195	6142.267875
