Dividing Wavelength (nm)	Counts (n)	Blue Motor Position (mm): 1.200000	Red Motor Position (mm): 0.000000	
326.493990	2163.895124
326.888308	2163.895124
327.282561	2163.895124
327.676750	2125.731069
328.070874	2121.748557
328.464933	2121.206633
328.858929	2124.856428
329.252859	2129.632922
329.646726	2138.586011
330.040528	2151.889616
330.434265	2162.917140
330.827938	2182.920438
331.221547	2200.307378
331.615091	2213.527804
332.008571	2235.940774
332.401986	2253.531880
332.795338	2273.540220
333.188625	2289.492951
333.581847	2309.254274
333.975006	2330.464929
334.368100	2343.750890
334.761129	2364.815352
335.154095	2380.863865
335.546996	2397.368602
335.939833	2413.775038
336.332606	2427.076122
336.725315	2442.733946
337.117960	2453.708538
337.510540	2467.833851
337.903056	2475.302320
338.295508	2484.061325
338.687896	2493.064826
339.080220	2503.868019
339.472480	2512.654750
339.864676	2514.298166
340.256807	2520.055164
340.648875	2523.286543
341.040879	2525.366019
341.432818	2530.228212
341.824694	2531.743079
342.216506	2532.844571
342.608253	2532.912627
342.999937	2535.932278
343.391557	2535.017308
343.783113	2534.004036
344.174605	2531.884231
344.566033	2529.812317
344.957397	2531.133099
345.348697	2530.820548
345.739934	2527.465660
346.131106	2526.187727
346.522215	2524.375433
346.913260	2523.384846
347.304241	2520.254289
347.695159	2519.354443
348.086012	2517.481655
348.476802	2515.495440
348.867528	2507.424553
349.258191	2505.105622
349.648789	2507.850530
350.039324	2503.124448
350.429796	2510.209790
350.820203	2502.058244
351.210548	2503.036228
351.600828	2505.050169
351.991045	2502.343070
352.381198	2504.387257
352.771288	2502.746362
353.161314	2498.549601
353.551276	2499.774602
353.941175	2501.541526
354.331010	2499.169663
354.720782	2499.918275
355.110490	2498.705877
355.500135	2499.714108
355.889717	2498.128665
356.279235	2497.453150
356.668689	2499.152019
357.058080	2498.557163
357.447408	2498.857112
357.836672	2499.711587
358.225873	2500.399705
358.615010	2500.160250
359.004084	2501.690240
359.393095	2500.472802
359.782043	2501.256701
360.170927	2501.397853
360.559748	2501.080261
360.948505	2504.909017
361.337199	2502.726197
361.725830	2502.834582
362.114398	2504.530930
362.502903	2504.268790
362.891344	2507.152330
363.279722	2506.101250
363.668037	2506.958246
364.056289	2506.895232
364.444478	2506.698627
364.832603	2505.148472
365.220665	2510.179543
365.608665	2510.192146
365.996601	2509.660304
366.384474	2510.136693
366.772284	2507.003616
367.160031	2508.828514
367.547715	2510.335819
367.935336	2510.976046
368.322893	2507.996724
368.710388	2506.048318
369.097820	2509.640140
369.485189	2507.225427
369.872495	2513.305059
370.259738	2513.761283
370.646918	2514.003258
371.034035	2514.134328
371.421090	2515.124915
371.808081	2513.007631
372.195010	2514.272960
372.581875	2512.485871
372.968678	2512.664832
373.355418	2513.317662
373.742096	2516.228928
374.128710	2514.093999
374.515262	2513.267250
374.901751	2513.970491
375.288177	2516.581809
375.674540	2514.159534
376.060841	2517.211953
376.447079	2515.162724
376.833254	2519.493075
377.219367	2516.259175
377.605417	2516.251613
377.991404	2518.142046
378.377329	2519.843435
378.763191	2517.655574
379.148991	2517.428722
379.534727	2516.591891
379.920402	2517.101047
380.306013	2521.854856
380.691563	2517.005266
381.077049	2519.304032
381.462474	2519.281347
381.847835	2518.134484
382.233134	2519.178003
382.618371	2520.216481
383.003545	2519.261182
383.388657	2521.186903
383.773706	2517.927797
384.158693	2520.944927
384.543618	2520.823940
384.928480	2520.972654
385.313280	2520.264372
385.698017	2519.830832
386.082692	2522.376615
386.467305	2520.153466
386.851856	2520.839063
387.236344	2520.065246
387.620770	2522.439629
388.005133	2518.540297
388.389435	2521.827129
388.773674	2518.767149
389.157851	2524.750998
389.541965	2522.245545
389.926018	2522.797551
390.310008	2522.432068
390.693936	2523.823426
391.077802	2520.866789
391.461606	2524.098169
391.845348	2522.177489
392.229027	2526.273427
392.612645	2525.940711
392.996200	2524.256965
393.379694	2527.422810
393.763125	2527.135464
394.146494	2525.038344
394.529801	2526.780063
394.913047	2526.500279
395.296230	2528.758716
395.679351	2524.335103
396.062410	2526.795186
396.445408	2530.150074
396.828343	2529.023376
397.211217	2525.605474
397.594028	2528.597399
397.976778	2524.670340
398.359466	2527.788294
398.742092	2526.898530
399.124656	2527.715197
399.507158	2526.616225
399.889598	2530.283665
400.271977	2529.018335
400.654294	2527.657224
401.036549	2530.263500
401.418742	2529.053623
401.800874	2528.753675
402.182944	2528.804086
402.564952	2530.311391
402.946898	2530.863398
403.328783	2532.605116
403.710606	2531.697708
404.092367	2531.233922
404.474067	2527.773170
404.855705	2530.074457
405.237282	2532.469005
405.618797	2533.275590
406.000250	2531.334745
406.381642	2531.226361
406.762972	2529.898017
407.144240	2528.476411
407.525447	2529.151926
407.906593	2525.852491
408.287677	2532.723583
408.668700	2530.233253
409.049661	2533.111752
409.430560	2534.404808
409.811399	2531.309540
410.192176	2530.933974
410.572891	2532.557225
410.953545	2533.494880
411.334138	2533.852802
411.714669	2533.991433
412.095139	2535.150899
412.475547	2535.405477
412.855894	2533.116793
413.236180	2533.431865
413.616405	2535.090405
413.996568	2533.187369
414.376670	2531.853984
414.756711	2534.372041
415.136691	2534.147709
415.516609	2536.335570
415.896466	2534.402287
416.276262	2534.029242
416.655997	2536.000333
417.035670	2536.822041
417.415283	2535.655014
417.794834	2534.402287
418.174324	2536.842206
418.553753	2533.084026
418.933121	2536.141486
419.312428	2536.020498
419.691674	2538.871270
420.070859	2536.943029
420.449983	2538.183153
420.829045	2533.648635
421.208047	2536.075951
421.586988	2537.994110
421.965867	2538.848585
422.344686	2534.868594
422.723444	2538.281455
423.102141	2535.178625
423.480777	2538.183153
423.859352	2536.189377
424.237866	2536.869932
424.616319	2539.070396
424.994712	2542.195911
425.373044	2538.820859
425.751314	2536.690971
426.129524	2534.964376
426.507673	2536.955632
426.885762	2534.303985
427.263789	2535.644932
427.641756	2541.336395
428.019662	2540.444110
428.397508	2538.296579
428.775292	2537.948739
429.153016	2538.679707
429.530679	2540.081147
429.908282	2539.917310
430.285824	2540.587783
430.663305	2540.507125
431.040726	2539.763555
431.418086	2541.996786
431.795385	2538.939326
432.172624	2539.183822
432.549802	2539.534182
432.926920	2541.593493
433.303977	2540.355890
433.680974	2540.454193
434.057910	2541.694317
434.434786	2543.743546
434.811601	2542.112732
435.188355	2538.515869
435.565050	2541.921168
435.941683	2540.867567
436.318257	2542.168185
436.694770	2541.860675
437.071222	2542.460572
437.447614	2540.706250
437.823946	2543.055428
438.200218	2538.445293
438.576429	2541.348998
438.952580	2543.582229
439.328670	2541.908566
439.704700	2544.524924
440.080670	2541.890922
440.456580	2543.499050
440.832429	2544.882846
441.208218	2541.676672
441.583947	2544.121632
441.959616	2540.880170
442.335224	2545.404606
442.710773	2544.713968
443.086261	2543.468803
443.461689	2541.036446
443.837057	2544.474513
444.212365	2542.581560
444.587612	2540.058462
444.962800	2538.856147
445.337927	2542.838658
445.712995	2535.947401
446.088002	2543.252033
446.462949	2540.542413
446.837837	2546.299411
447.212664	2543.657846
447.587431	2545.026519
447.962139	2545.243289
448.336786	2544.610624
448.711374	2543.143648
449.085901	2546.735470
449.460369	2543.345294
449.834776	2546.687579
450.209124	2541.769934
450.583412	2545.860830
450.957640	2546.939637
451.331808	2546.243958
451.705917	2546.238917
452.079965	2543.274718
452.453954	2544.658515
452.827883	2547.385779
453.201752	2546.743032
453.575562	2545.248330
453.949311	2545.331509
454.323001	2547.093392
454.696632	2549.838301
455.070202	2545.558361
455.443713	2545.623896
455.817164	2544.802188
456.190556	2545.805378
456.563888	2547.884853
456.937160	2546.758156
457.310373	2545.873433
457.683526	2545.334030
458.056619	2546.826211
458.429653	2548.273022
458.802628	2546.070038
459.175542	2545.671787
459.548398	2549.777807
459.921194	2548.197405
460.293930	2549.608928
460.666607	2550.574309
461.039224	2545.281097
461.411782	2547.143804
461.784280	2547.673125
462.156719	2547.907539
462.529099	2549.858465
462.901419	2546.627086
463.273680	2542.672300
463.645882	2544.025850
464.018024	2545.051725
464.390106	2545.046684
464.762130	2548.330996
465.134094	2545.676828
465.505999	2550.443239
465.877845	2550.707900
466.249631	2546.450645
466.621358	2544.325799
466.993026	2548.116747
467.364634	2550.496171
467.736184	2549.288815
468.107674	2547.169010
468.479105	2550.193702
468.850477	2548.726726
469.221790	2547.030378
469.593043	2548.303269
469.964238	2546.995090
470.335373	2547.940306
470.706449	2549.359391
471.077467	2551.093548
471.448425	2551.350647
471.819324	2548.933413
472.190164	2552.076573
472.560945	2549.281253
472.931667	2552.406768
473.302330	2547.572302
473.672934	2550.292004
474.043479	2550.755791
474.413965	2549.989535
474.784393	2549.061963
475.154761	2551.897612
475.525070	2551.627910
475.895321	2551.310318
476.265513	2550.934752
476.635645	2549.624052
477.005719	2548.159596
477.375734	2549.999617
477.745691	2549.276212
478.115588	2550.997766
478.485427	2551.078424
478.855207	2551.890050
479.224928	2549.810574
479.594591	2552.106820
479.964194	2549.016592
480.333739	2550.123126
480.703226	2550.836449
481.072653	2554.221584
481.442022	2551.658157
481.811333	2546.995090
482.180584	2547.494164
482.549777	2546.228834
482.918912	2548.237734
483.287988	2550.488609
483.657005	2549.750080
484.025964	2549.976932
484.394864	2550.894422
484.763706	2552.036244
485.132489	2551.655637
485.501213	2549.757642
485.869879	2551.171686
486.238487	2551.564896
486.607036	2551.222097
486.975527	2551.017931
487.343959	2550.171017
487.712333	2552.154711
488.080648	2550.803682
488.448905	2552.895760
488.817104	2551.035575
489.185244	2554.748384
489.553326	2553.538508
489.921350	2555.239897
490.289315	2550.700338
490.657222	2551.937941
491.025070	2550.594474
491.392861	2552.507592
491.760593	2553.846018
492.128267	2552.684032
492.495883	2551.310318
492.863440	2549.414844
493.230939	2552.951213
493.598380	2553.770401
493.965763	2551.436346
494.333088	2551.282591
494.700354	2551.869886
495.067563	2551.562375
495.434713	2553.780483
495.801805	2553.218394
496.168839	2552.303425
496.535815	2554.148487
496.902733	2552.149670
497.269593	2553.130174
497.636395	2553.629248
498.003139	2551.615307
498.369825	2552.230328
498.736453	2553.316697
499.103023	2552.651264
499.469535	2555.267623
499.835989	2551.169165
500.202385	2550.423074
500.568723	2549.964329
500.935003	2552.381563
501.301226	2549.704710
501.667390	2554.403065
502.033497	2553.656975
502.399546	2552.835267
502.765537	2551.333003
503.131470	2554.801317
503.497345	2550.871737
503.863163	2552.893240
504.228923	2555.048333
504.594625	2553.268806
504.960269	2553.500699
505.325856	2554.140925
505.691385	2553.147818
506.056856	2555.653272
506.422270	2554.163611
506.787625	2554.302242
507.152924	2553.508261
507.518164	2553.478014
507.883347	2555.345761
508.248472	2553.490617
508.613540	2553.203271
508.978550	2556.230484
509.343503	2553.170503
509.708398	2554.138405
510.073236	2553.717468
510.438016	2555.461708
510.802738	2552.699155
511.167403	2552.754608
511.532010	2551.461552
511.896561	2555.570092
512.261053	2555.552448
512.625488	2554.113199
512.989866	2555.892726
513.354186	2553.213353
513.718449	2554.226625
514.082655	2555.567572
514.446803	2551.310318
514.810894	2555.078580
515.174927	2556.527912
515.538904	2556.122099
515.902822	2553.268806
516.266684	2554.017417
516.630488	2551.360729
516.994235	2554.692932
517.357925	2552.202602
517.721558	2555.801986
518.085133	2554.662685
518.448651	2550.402910
518.812112	2550.725544
519.175516	2553.838456
519.538863	2550.670091
519.902152	2554.486244
520.265385	2555.819630
520.628560	2552.870555
520.991678	2554.982798
521.354739	2552.552962
521.717743	2554.924825
522.080690	2555.796944
522.443580	2553.755277
522.806413	2557.115206
523.169189	2555.423899
523.531908	2554.743343
523.894569	2553.823333
524.257174	2555.592778
524.619722	2552.857952
524.982213	2555.746533
525.344647	2555.754095
525.707025	2558.299877
526.069345	2555.411296
526.431608	2554.781152
526.793815	2554.811399
527.155964	2554.274516
527.518057	2555.496996
527.880093	2556.106975
528.242072	2555.859959
528.603995	2555.494475
528.965860	2552.126984
529.327669	2555.255020
529.689421	2554.813919
530.051117	2556.028837
530.412755	2554.909701
530.774337	2554.546738
531.135862	2555.144115
531.497331	2554.060267
531.858743	2553.883827
532.220098	2555.998591
532.581396	2559.620660
532.942638	2556.159908
533.303824	2556.570762
533.664953	2557.142933
534.026025	2552.731923
534.387040	2556.177552
534.747999	2554.730740
535.108902	2553.992211
535.469748	2555.113868
535.830537	2556.480021
536.191270	2554.335010
536.551947	2551.058260
536.912567	2552.832746
537.273131	2553.173024
537.633638	2549.155224
537.994089	2557.548745
538.354483	2557.137891
538.714821	2555.249979
539.075103	2557.213509
539.435328	2556.931204
539.795497	2557.475649
540.155609	2555.635627
540.515665	2554.997922
540.875665	2555.494475
541.235609	2557.147974
541.595496	2552.868034
541.955328	2555.496996
542.315102	2555.577654
542.674821	2556.285936
543.034483	2555.960782
543.394090	2557.760474
543.753640	2556.469938
544.113134	2554.912222
544.472571	2556.028838
544.831953	2556.054043
545.191278	2554.743343
545.550548	2556.437171
545.909761	2554.728220
546.268918	2555.040771
546.628019	2556.071687
546.987064	2557.768036
547.346053	2556.676626
547.704986	2555.640669
548.063863	2555.542366
548.422684	2556.270813
548.781449	2554.755946
549.140158	2555.970864
549.498811	2558.483879
549.857408	2555.625545
550.215949	2557.132850
550.574434	2557.483210
550.932864	2556.948848
551.291237	2559.267779
551.649555	2555.262582
552.007817	2556.197716
552.366022	2557.047151
552.724173	2556.532953
553.082267	2556.709393
553.440305	2557.568910
553.798288	2554.796275
554.156215	2554.912222
554.514086	2555.181924
554.871902	2551.993394
555.229661	2553.447767
555.587365	2550.065152
555.945014	2555.151677
556.302606	2558.055381
556.660143	2554.163611
557.017625	2555.572613
557.375050	2557.397511
557.732421	2556.578323
558.089735	2553.326779
558.446994	2556.124619
558.804197	2557.510937
559.161345	2552.973898
559.518437	2556.411965
559.875474	2556.984136
560.232455	2556.623694
560.589381	2555.638148
560.946251	2557.722665
561.303065	2556.875751
561.659825	2558.307439
562.016528	2557.762994
562.373177	2557.495813
562.729770	2555.144115
563.086307	2557.561348
563.442789	2556.923642
563.799216	2555.408776
564.155587	2554.962633
564.511904	2555.028168
564.868164	2554.082952
565.224370	2557.662171
565.580520	2555.996070
565.936615	2556.911039
566.292654	2557.420196
566.648638	2555.391132
567.004567	2553.228477
567.360441	2555.249979
567.716260	2555.237376
568.072023	2556.031358
568.427732	2556.931204
568.783385	2556.275854
569.138982	2552.628579
569.494525	2558.645196
569.850013	2556.837943
570.205445	2557.190823
570.560823	2555.040771
570.916145	2556.575803
571.271412	2554.244269
571.626625	2556.764846
571.981782	2556.396842
572.336884	2553.188147
572.691931	2550.052550
573.046923	2553.110009
573.401860	2551.690925
573.756743	2557.614280
574.111570	2554.599670
574.466342	2556.263251
574.821059	2555.746533
575.175722	2557.410114
575.530330	2557.263920
575.884882	2555.945658
576.239380	2555.489434
576.593823	2556.837943
576.948211	2556.066646
577.302544	2557.715103
577.656823	2555.020607
578.011047	2558.516647
578.365216	2557.841132
578.719330	2558.178890
579.073389	2557.435319
579.427394	2556.238045
579.781344	2559.683674
580.135239	2557.470608
580.489080	2558.120916
580.842866	2557.165618
581.196597	2563.038562
581.550273	2556.590926
581.903895	2556.648899
582.257463	2558.320042
582.610975	2559.280382
582.964434	2554.818961
583.317837	2558.473797
583.671186	2560.409600
584.024481	2558.677964
584.377721	2559.456822
584.730906	2559.802141
585.084037	2558.458674
585.437113	2557.137891
585.790135	2558.289795
586.143103	2556.258210
586.496016	2559.824826
586.848874	2557.526060
587.201679	2558.526729
587.554428	2558.342727
587.907124	2560.220557
588.259765	2559.250135
588.612352	2555.171841
588.964884	2558.408262
589.317362	2558.362892
589.669786	2557.309291
590.022155	2553.989691
590.374470	2556.084290
590.726731	2557.049671
591.078937	2554.002294
591.431090	2559.166956
591.783188	2558.483879
592.135232	2557.972202
592.487222	2557.616801
592.839157	2558.493962
593.191038	2556.495144
593.542866	2557.800803
593.894639	2558.438509
594.246358	2558.249466
594.598022	2562.284909
594.949633	2559.222408
595.301190	2557.004301
595.652692	2557.203426
596.004141	2554.350133
596.355535	2558.103272
596.706876	2556.018755
597.058162	2556.273333
597.409395	2556.505227
597.760573	2555.857438
598.111698	2558.244425
598.462768	2558.483879
598.813785	2558.191492
599.164748	2558.201575
599.515657	2557.455484
599.866511	2557.490772
600.217312	2557.727706
600.568060	2557.881462
600.918753	2557.150494
601.269392	2555.181924
601.619978	2558.113355
601.970510	2557.699980
602.320988	2556.260731
602.671412	2557.379867
603.021783	2553.717468
603.372100	2555.512119
603.722363	2555.373487
604.072572	2557.730227
604.422728	2559.192162
604.772830	2558.171328
605.122878	2557.916750
605.472872	2559.363561
605.822813	2557.916750
606.172701	2557.667212
606.522534	2556.696790
606.872314	2558.902295
607.222041	2558.047820
607.571714	2556.348951
607.921333	2557.276523
608.270899	2554.284598
608.620411	2553.578837
608.969870	2558.733417
609.319276	2560.951524
609.668627	2565.629715
610.017926	2571.542988
610.367171	2572.599110
610.716362	2569.859243
611.065500	2569.120714
611.414585	2565.826320
611.763616	2566.506876
612.112594	2563.250290
612.461518	2562.912533
612.810389	2560.064281
613.159207	2561.148129
613.507971	2562.965465
613.856682	2561.861453
614.205340	2557.896585
614.553945	2560.152501
614.902496	2561.458160
615.250994	2560.270968
615.599439	2559.784497
615.947830	2562.950342
616.296169	2558.383056
616.644454	2558.834240
616.992686	2557.586554
617.340864	2556.180072
617.688990	2556.384239
618.037063	2556.779969
618.385082	2557.367264
618.733048	2556.643858
619.080961	2557.783159
619.428821	2559.383725
619.776628	2558.161246
620.124382	2558.163766
620.472083	2560.023952
620.819731	2557.820968
621.167326	2558.115875
621.514868	2559.466904
621.862357	2558.536812
622.209793	2558.778787
622.557176	2558.582182
622.904506	2560.422203
623.251783	2556.999260
623.599007	2554.952551
623.946179	2557.132850
624.293297	2557.596636
624.640363	2558.320042
624.987376	2557.528581
625.334336	2554.892057
625.681243	2553.818292
626.028097	2552.389124
626.374899	2559.340876
626.721647	2558.264589
627.068343	2557.402552
627.414987	2558.103272
627.761577	2555.363405
628.108115	2557.609239
628.454600	2557.581513
628.801032	2558.841801
629.147412	2557.924311
629.493739	2561.349775
629.840014	2558.246945
630.186236	2555.741492
630.532405	2558.783828
630.878521	2558.365412
631.224585	2559.318190
631.570597	2556.890875
631.916556	2559.209806
632.262462	2559.867676
632.608316	2556.139743
632.954117	2556.275854
633.299866	2557.079918
633.645562	2558.201575
633.991206	2556.951369
634.336797	2556.530432
634.682336	2556.280895
635.027823	2554.854249
635.373257	2557.621842
635.718639	2557.548745
636.063968	2558.282233
636.409245	2555.668395
636.754470	2559.774415
637.099642	2556.517829
637.444762	2557.684857
637.789829	2557.261400
638.134845	2559.655948
638.479808	2556.391801
638.824719	2556.235525
639.169577	2557.662171
639.514383	2559.124106
639.859137	2555.144115
640.203839	2555.683518
640.548489	2558.325083
640.893086	2557.604198
641.237632	2556.031358
641.582125	2557.352140
641.926566	2554.952551
642.270955	2553.258723
642.615292	2552.457180
642.959576	2552.989022
643.303809	2552.716799
643.647990	2557.911708
643.992118	2555.575134
644.336195	2559.724003
