Dividing Wavelength (nm)	Counts (n)	Blue Motor Position (mm): 0.600000	Red Motor Position (mm): 0.000000	
326.493990	2162.528971
326.888308	2162.528971
327.282561	2162.528971
327.676750	2127.119907
328.070874	2122.328290
328.464933	2121.362909
328.858929	2123.152518
329.252859	2130.502521
329.646726	2138.308748
330.040528	2151.582106
330.434265	2164.162305
330.827938	2182.373473
331.221547	2199.152954
331.615091	2218.626931
332.008571	2237.185939
332.401986	2255.190420
332.795338	2272.158944
333.188625	2292.532767
333.581847	2308.999696
333.975006	2326.028714
334.368100	2345.885819
334.761129	2362.382995
335.154095	2380.382435
335.546996	2399.619478
335.939833	2413.679256
336.332606	2429.558890
336.725315	2441.791250
337.117960	2455.382201
337.510540	2465.456947
337.903056	2479.262147
338.295508	2487.398569
338.687896	2495.862666
339.080220	2503.144613
339.472480	2506.562515
339.864676	2515.523166
340.256807	2521.020545
340.648875	2521.665812
341.040879	2525.305525
341.432818	2529.277955
341.824694	2532.292565
342.216506	2534.001516
342.608253	2534.329191
342.999937	2535.103008
343.391557	2533.141999
343.783113	2532.544622
344.174605	2533.134437
344.566033	2530.510517
344.957397	2530.906247
345.348697	2529.472039
345.739934	2529.104035
346.131106	2525.794517
346.522215	2525.229908
346.913260	2522.336286
347.304241	2520.952489
347.695159	2519.566172
348.086012	2516.274298
348.476802	2513.973012
348.867528	2511.018895
349.258191	2508.019409
349.648789	2508.299193
350.039324	2506.058400
350.429796	2509.400685
350.820203	2506.285252
351.210548	2503.603358
351.600828	2505.203924
351.991045	2503.247957
352.381198	2501.208810
352.771288	2502.955570
353.161314	2498.582369
353.551276	2503.522700
353.941175	2498.468943
354.331010	2498.804180
354.720782	2497.438027
355.110490	2498.141268
355.500135	2498.741165
355.889717	2501.251660
356.279235	2498.524396
356.668689	2498.524396
357.058080	2497.289313
357.447408	2500.273676
357.836672	2500.581186
358.225873	2501.029849
358.615010	2501.859119
359.004084	2503.270642
359.393095	2502.920282
359.782043	2503.724346
360.170927	2503.999089
360.559748	2502.925323
360.948505	2502.620333
361.337199	2504.994717
361.725830	2501.327277
362.114398	2503.018584
362.502903	2505.196363
362.891344	2507.106960
363.279722	2509.204080
363.668037	2509.531755
364.056289	2507.558143
364.444478	2507.704337
364.832603	2509.940088
365.220665	2507.016219
365.608665	2506.249964
365.996601	2508.629388
366.384474	2508.417660
366.772284	2508.004285
367.160031	2510.890346
367.547715	2511.560819
367.935336	2510.459327
368.322893	2511.497805
368.710388	2509.060407
369.097820	2509.577125
369.485189	2504.384737
369.872495	2512.937054
370.259738	2513.831859
370.646918	2515.687004
371.034035	2512.148114
371.421090	2516.012158
371.808081	2512.203567
372.195010	2513.751201
372.581875	2516.607014
372.968678	2516.823784
373.355418	2512.390089
373.742096	2516.728002
374.128710	2515.659277
374.515262	2514.179699
374.901751	2516.594412
375.288177	2516.533918
375.674540	2515.205574
376.060841	2517.287570
376.447079	2515.374452
376.833254	2516.773373
377.219367	2517.108609
377.605417	2520.067767
377.991404	2515.616428
378.377329	2518.157169
378.763191	2521.297808
379.148991	2521.237314
379.534727	2517.040554
379.920402	2519.520801
380.306013	2519.195647
380.691563	2519.382170
381.077049	2516.493588
381.462474	2518.860410
381.847835	2517.915194
382.233134	2520.355112
382.618371	2519.457787
383.003545	2517.733712
383.388657	2521.547345
383.773706	2524.032634
384.158693	2520.070287
384.543618	2521.784279
384.928480	2521.655730
385.313280	2521.055833
385.698017	2520.957530
386.082692	2520.622293
386.467305	2524.733354
386.851856	2523.672192
387.236344	2522.910977
387.620770	2518.252951
388.005133	2518.840246
388.389435	2520.145904
388.773674	2520.571882
389.157851	2523.352078
389.541965	2524.340144
389.926018	2525.252593
390.310008	2523.379805
390.693936	2524.388035
391.077802	2524.793848
391.461606	2525.764270
391.845348	2522.116996
392.229027	2525.928108
392.612645	2526.749816
392.996200	2528.325177
393.379694	2524.778725
393.763125	2526.623787
394.146494	2525.406348
394.529801	2527.871473
394.913047	2524.693025
395.296230	2525.837367
395.679351	2525.855011
396.062410	2528.478932
396.445408	2524.476256
396.828343	2528.448685
397.211217	2525.718900
397.594028	2527.750485
397.976778	2528.118489
398.359466	2529.285516
398.742092	2526.805269
399.124656	2529.431710
399.507158	2530.069416
399.889598	2531.990095
400.271977	2532.511855
400.654294	2529.751823
401.036549	2529.779549
401.418742	2529.028418
401.800874	2529.444313
402.182944	2531.884231
402.564952	2528.355423
402.946898	2529.890455
403.328783	2530.921371
403.710606	2530.439941
404.092367	2529.494724
404.474067	2529.656041
404.855705	2531.627132
405.237282	2533.086546
405.618797	2531.085208
406.000250	2531.317101
406.381642	2529.184693
406.762972	2528.282327
407.144240	2526.991791
407.525447	2531.428007
407.906593	2528.877183
408.287677	2531.448171
408.668700	2534.253573
409.049661	2532.433717
409.430560	2530.540764
409.811399	2533.255425
410.192176	2533.396577
410.572891	2534.840868
410.953545	2534.094777
411.334138	2532.078316
411.714669	2533.941022
412.095139	2535.506300
412.475547	2534.014119
412.855894	2532.771474
413.236180	2535.193749
413.616405	2536.983358
413.996568	2537.089223
414.376670	2533.948584
414.756711	2534.752648
415.136691	2536.259953
415.516609	2535.402957
415.896466	2537.469830
416.276262	2537.081661
416.655997	2532.690816
417.035670	2535.465971
417.415283	2536.136444
417.794834	2534.853471
418.174324	2536.733821
418.553753	2534.601413
418.933121	2539.788760
419.312428	2539.070396
419.691674	2538.505787
420.070859	2534.397246
420.449983	2537.071578
420.829045	2535.559232
421.208047	2536.174253
421.586988	2538.266332
421.965867	2537.137113
422.344686	2537.311033
422.723444	2536.970755
423.102141	2536.847247
423.480777	2539.221631
423.859352	2538.142824
424.237866	2538.699871
424.616319	2538.306661
424.994712	2538.049562
425.373044	2538.591486
425.751314	2538.621733
426.129524	2536.703574
426.507673	2535.269366
426.885762	2536.121321
427.263789	2539.198945
427.641756	2540.849923
428.019662	2540.018133
428.397508	2537.830272
428.775292	2541.026364
429.153016	2539.579553
429.530679	2541.832948
429.908282	2540.555016
430.285824	2541.417053
430.663305	2541.187681
431.040726	2540.590304
431.418086	2539.040149
431.795385	2540.086188
432.172624	2538.319264
432.549802	2542.074924
432.926920	2539.312371
433.303977	2540.759182
433.680974	2540.678524
434.057910	2539.907227
434.434786	2540.953267
434.811601	2542.828576
435.188355	2541.442259
435.565050	2542.687424
435.941683	2541.417053
436.318257	2542.243802
436.694770	2542.160623
437.071222	2541.780016
437.447614	2542.102650
437.823946	2542.637012
438.200218	2541.248174
438.576429	2544.116591
438.952580	2540.171888
439.328670	2541.356559
439.704700	2539.640046
440.080670	2544.267826
440.456580	2538.611651
440.832429	2540.378575
441.208218	2545.734801
441.583947	2543.952753
441.959616	2542.677342
442.335224	2541.986703
442.710773	2542.805891
443.086261	2544.570295
443.461689	2544.696324
443.837057	2542.344625
444.212365	2544.713968
444.587612	2544.345963
444.962800	2539.604758
445.337927	2544.003165
445.712995	2538.664583
446.088002	2543.189019
446.462949	2546.077600
446.837837	2543.083154
447.212664	2542.949564
447.587431	2544.298073
447.962139	2546.301931
448.336786	2545.230686
448.711374	2545.402085
449.085901	2545.603731
449.460369	2547.229503
449.834776	2545.265974
450.209124	2544.451828
450.583412	2543.582229
450.957640	2544.287990
451.331808	2546.294369
451.705917	2547.710934
452.079965	2545.175233
452.453954	2548.804864
452.827883	2548.149514
453.201752	2545.023999
453.575562	2547.310162
453.949311	2546.523742
454.323001	2548.620862
454.696632	2546.067518
455.070202	2548.189843
455.443713	2547.292518
455.817164	2547.385779
456.190556	2544.368649
456.563888	2547.242106
456.937160	2545.727240
457.310373	2547.151366
457.683526	2547.055584
458.056619	2544.915614
458.429653	2547.605069
458.802628	2546.349822
459.175542	2546.004503
459.548398	2547.761345
459.921194	2546.745553
460.293930	2548.111705
460.666607	2547.486602
461.039224	2548.928372
461.411782	2549.624052
461.784280	2547.796633
462.156719	2546.622044
462.529099	2549.586243
462.901419	2546.445604
463.273680	2544.681200
463.645882	2542.760521
464.018024	2546.042312
464.390106	2542.057280
464.762130	2550.042467
465.134094	2549.795451
465.505999	2550.027344
465.877845	2549.513146
466.249631	2547.118598
466.621358	2547.884853
466.993026	2552.245452
467.364634	2552.563044
467.736184	2549.165307
468.107674	2549.329144
468.479105	2549.835780
468.850477	2547.685728
469.221790	2548.560368
469.593043	2551.232180
469.964238	2550.624721
470.335373	2546.349822
470.706449	2547.287477
471.077467	2546.357384
471.448425	2548.913249
471.819324	2550.501212
472.190164	2548.731767
472.560945	2549.384597
472.931667	2549.082127
473.302330	2550.952396
473.672934	2551.363250
474.043479	2549.896274
474.413965	2548.711603
474.784393	2546.559030
475.154761	2550.571788
475.525070	2549.598846
475.895321	2547.022816
476.265513	2549.954247
476.635645	2551.343085
477.005719	2548.154555
477.375734	2551.910215
477.745691	2548.978784
478.115588	2549.987015
478.485427	2552.116902
478.855207	2551.325441
479.224928	2550.236552
479.594591	2553.422561
479.964194	2550.780996
480.333739	2553.813250
480.703226	2550.765873
481.072653	2549.208156
481.442022	2550.337375
481.811333	2551.784186
482.180584	2545.331509
482.549777	2549.384597
482.918912	2546.801005
483.287988	2553.692263
483.657005	2549.971891
484.025964	2550.748229
484.394864	2549.581202
484.763706	2551.615307
485.132489	2550.821326
485.501213	2553.788045
485.869879	2550.813764
486.238487	2552.832746
486.607036	2551.030533
486.975527	2555.635627
487.343959	2549.238403
487.712333	2551.650595
488.080648	2549.684545
488.448905	2552.494989
488.817104	2548.217570
489.185244	2550.637323
489.553326	2550.665050
489.921350	2550.980122
490.289315	2551.156562
490.657222	2553.631769
491.025070	2551.834598
491.392861	2551.895091
491.760593	2553.654454
492.128267	2553.646892
492.495883	2548.633465
492.863440	2551.489278
493.230939	2551.501881
493.598380	2551.663198
493.965763	2549.301418
494.333088	2550.879299
494.700354	2553.354505
495.067563	2553.246121
495.434713	2551.171686
495.801805	2554.145967
496.168839	2551.789227
496.535815	2551.665719
496.902733	2556.631255
497.269593	2552.618497
497.636395	2553.435164
498.003139	2552.119423
498.369825	2554.519012
498.736453	2553.846018
499.103023	2554.889537
499.469535	2554.471121
499.835989	2553.069680
500.202385	2549.949206
500.568723	2546.261602
500.935003	2552.913404
501.301226	2549.051881
501.667390	2553.944320
502.033497	2553.747715
502.399546	2553.830894
502.765537	2555.383570
503.131470	2552.948692
503.497345	2557.049671
503.863163	2555.174362
504.228923	2554.050185
504.594625	2554.433312
504.960269	2554.398024
505.325856	2549.903836
505.691385	2553.072201
506.056856	2554.080432
506.422270	2554.045143
506.787625	2552.031203
507.152924	2553.200750
507.518164	2554.077911
507.883347	2552.421892
508.248472	2553.414999
508.613540	2553.664536
508.978550	2555.164280
509.343503	2553.939279
509.708398	2554.130843
510.073236	2555.418858
510.438016	2555.859959
510.802738	2553.367108
511.167403	2552.913404
511.532010	2554.385421
511.896561	2556.124619
512.261053	2555.590257
512.625488	2554.534135
512.989866	2552.870555
513.354186	2555.988508
513.718449	2555.013045
514.082655	2556.550597
514.446803	2554.561862
514.810894	2555.731409
515.174927	2557.667212
515.538904	2553.447767
515.902822	2553.644372
516.266684	2555.237376
516.630488	2552.739485
516.994235	2555.985988
517.357925	2554.569423
517.721558	2555.323076
518.085133	2555.791903
518.448651	2553.651933
518.812112	2550.821326
519.175516	2553.046995
519.538863	2548.845193
519.902152	2555.189485
520.265385	2556.182593
520.628560	2555.156718
520.991678	2554.002294
521.354739	2553.767880
521.717743	2553.888868
522.080690	2555.249979
522.443580	2555.194527
522.806413	2556.316183
523.169189	2552.661347
523.531908	2554.982798
523.894569	2554.246790
524.257174	2554.922304
524.619722	2553.846018
524.982213	2554.985319
525.344647	2556.331307
525.707025	2555.928014
526.069345	2555.645710
526.431608	2556.928683
526.793815	2554.730740
527.155964	2555.766698
527.518057	2556.144784
527.880093	2556.573282
528.242072	2556.661502
528.603995	2554.035061
528.965860	2555.464228
529.327669	2552.981460
529.689421	2557.803324
530.051117	2554.738302
530.412755	2556.343910
530.774337	2555.655792
531.135862	2553.276368
531.497331	2556.243087
531.858743	2553.624207
532.220098	2557.052192
532.581396	2555.534804
532.942638	2557.168138
533.303824	2554.254351
533.664953	2554.750905
534.026025	2554.302242
534.387040	2555.398693
534.747999	2553.478014
535.108902	2557.694939
535.469748	2553.987170
535.830537	2552.923487
536.191270	2555.388611
536.551947	2552.651264
536.912567	2549.069525
537.273131	2555.154197
537.633638	2551.315359
537.994089	2557.765515
538.354483	2557.246276
538.714821	2554.392983
539.075103	2554.836605
539.435328	2555.360885
539.795497	2559.676112
540.155609	2554.796275
540.515665	2556.971533
540.875665	2556.928683
541.235609	2554.604712
541.595496	2555.398693
541.955328	2555.973385
542.315102	2557.185782
542.674821	2555.433981
543.034483	2555.350802
543.394090	2557.130330
543.753640	2558.526729
544.113134	2557.047151
544.472571	2553.571275
544.831953	2556.961451
545.191278	2556.502706
545.550548	2554.846687
545.909761	2556.117058
546.268918	2555.592778
546.628019	2557.616801
546.987064	2557.644527
547.346053	2555.955741
547.704986	2556.742161
548.063863	2558.390618
548.422684	2556.205278
548.781449	2557.689898
549.140158	2557.090000
549.498811	2558.093190
549.857408	2555.333158
550.215949	2555.965823
550.574434	2556.323745
550.932864	2555.691080
551.291237	2556.268292
551.649555	2557.294167
552.007817	2557.304249
552.366022	2556.626214
552.724173	2557.112686
553.082267	2556.399362
553.440305	2555.335679
553.798288	2555.267623
554.156215	2557.727706
554.514086	2556.502706
554.871902	2550.869217
555.229661	2553.949362
555.587365	2549.077086
555.945014	2559.262738
556.302606	2556.371636
556.660143	2557.382387
557.017625	2557.357182
557.375050	2556.729558
557.732421	2556.628735
558.089735	2557.936914
558.446994	2553.535987
558.804197	2559.141750
559.161345	2556.233004
559.518437	2557.848694
559.875474	2559.413972
560.232455	2553.888868
560.589381	2555.814588
560.946251	2555.675957
561.303065	2555.572613
561.659825	2559.444219
562.016528	2558.705690
562.373177	2554.788714
562.729770	2554.597150
563.086307	2559.779456
563.442789	2553.788045
563.799216	2557.584033
564.155587	2554.592109
564.511904	2554.566903
564.868164	2557.543704
565.224370	2556.747202
565.580520	2556.517829
565.936615	2561.364899
566.292654	2556.653941
566.648638	2558.282233
567.004567	2550.889381
567.360441	2555.459187
567.716260	2557.775597
568.072023	2558.002449
568.427732	2556.800134
568.783385	2558.040258
569.138982	2555.834753
569.494525	2557.599157
569.850013	2556.701832
570.205445	2558.282233
570.560823	2557.929352
570.916145	2553.939279
571.271412	2556.633776
571.626625	2556.628735
571.981782	2555.890206
572.336884	2554.652602
572.691931	2552.310987
573.046923	2554.335010
573.401860	2552.734443
573.756743	2557.145453
574.111570	2553.432643
574.466342	2556.601008
574.821059	2555.396173
575.175722	2555.270144
575.530330	2559.028324
575.884882	2556.041440
576.239380	2556.575803
576.593823	2560.268448
576.948211	2556.626214
577.302544	2555.076059
577.656823	2557.712583
578.011047	2559.361040
578.365216	2557.142932
578.719330	2557.135371
579.073389	2558.304918
579.427394	2558.390618
579.781344	2558.446071
580.135239	2558.178890
580.489080	2557.500854
580.842866	2557.178221
581.196597	2560.298695
581.550273	2557.014383
581.903895	2558.733417
582.257463	2557.967161
582.610975	2555.688560
582.964434	2558.357851
583.317837	2559.421534
583.671186	2558.909857
584.024481	2557.886503
584.377721	2561.299364
584.730906	2558.340207
585.084037	2558.483879
585.437113	2561.541339
585.790135	2559.164435
586.143103	2561.344734
586.496016	2560.848181
586.848874	2558.010011
587.201679	2557.284085
587.554428	2560.835578
587.907124	2557.084959
588.259765	2558.846843
588.612352	2555.953220
588.964884	2560.354147
589.317362	2558.004970
589.669786	2556.462377
590.022155	2554.627397
590.374470	2554.055226
590.726731	2557.894064
591.078937	2555.186965
591.431090	2559.655948
591.783188	2558.115875
592.135232	2557.647048
592.487222	2559.025803
592.839157	2560.293654
593.191038	2558.617470
593.542866	2558.302398
593.894639	2558.680484
594.246358	2558.705690
594.598022	2556.359033
594.949633	2560.081925
595.301190	2556.684188
595.652692	2557.289126
596.004141	2557.342058
596.355535	2557.581513
596.706876	2556.245607
597.058162	2557.705021
597.409395	2555.179403
597.760573	2558.688046
598.111698	2559.134188
598.462768	2557.795762
598.813785	2558.662840
599.164748	2558.859445
599.515657	2560.638973
599.866511	2558.496482
600.217312	2557.432799
600.568060	2555.774259
600.918753	2560.011349
601.269392	2558.136040
601.619978	2555.522202
601.970510	2555.565051
602.320988	2555.565051
602.671412	2557.568910
603.021783	2557.770556
603.372100	2557.657130
603.722363	2560.691905
604.072572	2557.059753
604.422728	2556.943807
604.772830	2560.144940
605.122878	2557.228632
605.472872	2558.100752
605.822813	2557.964641
606.172701	2557.946997
606.522534	2558.662840
606.872314	2558.302398
607.222041	2558.753581
607.571714	2557.553787
607.921333	2554.856769
608.270899	2554.690411
608.620411	2554.516491
608.969870	2560.137378
609.319276	2560.502862
609.668627	2567.217678
610.017926	2569.450910
610.367171	2570.615416
610.716362	2573.133472
611.065500	2570.580128
611.414585	2566.645507
611.763616	2565.488563
612.112594	2564.755075
612.461518	2561.614436
612.810389	2562.723490
613.159207	2562.405897
613.507971	2560.132337
613.856682	2560.102090
614.205340	2559.577810
614.553945	2560.245763
614.902496	2559.686195
615.250994	2560.497820
615.599439	2558.428427
615.947830	2560.175187
616.296169	2558.660320
616.644454	2556.805175
616.992686	2558.219219
617.340864	2559.184600
617.688990	2560.485217
618.037063	2558.108313
618.385082	2559.492110
618.733048	2561.586710
619.080961	2561.034703
619.428821	2556.905998
619.776628	2557.354661
620.124382	2557.210988
620.472083	2560.298695
620.819731	2558.410783
621.167326	2558.980433
621.514868	2558.279713
621.862357	2558.108313
622.209793	2557.773077
622.557176	2560.601164
622.904506	2554.955072
623.251783	2558.856925
623.599007	2555.754095
623.946179	2558.272151
624.293297	2559.736606
624.640363	2559.802141
624.987376	2554.907181
625.334336	2555.013045
625.681243	2554.332489
626.028097	2551.282591
626.374899	2557.032027
626.721647	2556.734599
627.068343	2557.185782
627.414987	2557.147974
627.761577	2557.505896
628.108115	2556.868190
628.454600	2558.367933
628.801032	2560.482697
629.147412	2558.322562
629.493739	2556.122099
629.840014	2556.759805
630.186236	2560.651576
630.532405	2557.783159
630.878521	2557.452963
631.224585	2560.258366
631.570597	2558.894733
631.916556	2559.189641
632.262462	2557.231153
632.608316	2559.829867
632.954117	2558.380536
633.299866	2557.609239
633.645562	2556.384239
633.991206	2556.623694
634.336797	2556.185113
634.682336	2557.362223
635.027823	2556.565720
635.373257	2556.732078
635.718639	2558.703170
636.063968	2559.550083
636.409245	2557.188303
636.754470	2556.296019
637.099642	2553.704866
637.444762	2559.355999
637.789829	2553.525905
638.134845	2558.201575
638.479808	2558.937583
638.824719	2557.730227
639.169577	2555.479352
639.514383	2555.474311
639.859137	2557.904147
640.203839	2559.910526
640.548489	2558.564538
640.893086	2554.982798
641.237632	2555.922973
641.582125	2556.472459
641.926566	2555.242417
642.270955	2555.255020
642.615292	2555.812068
642.959576	2553.523384
643.303809	2552.860472
643.647990	2554.866852
643.992118	2557.218550
644.336195	2558.766184
