Dividing Wavelength (nm)	Counts (n)	Blue Motor Position (mm): 9.100000	Red Motor Position (mm): 0.000000	
326.493990	2159.673158
326.888308	2159.673158
327.282561	2159.673158
327.676750	2121.194030
328.070874	2114.786724
328.464933	2115.996601
328.858929	2120.458022
329.252859	2126.157046
329.646726	2133.290279
330.040528	2144.103554
330.434265	2159.965544
330.827938	2177.740653
331.221547	2194.459640
331.615091	2210.475385
332.008571	2229.964486
332.401986	2249.423340
332.795338	2269.414036
333.188625	2286.876593
333.581847	2306.189253
333.975006	2322.613332
334.368100	2340.398523
334.761129	2356.842767
335.154095	2376.069728
335.546996	2392.042623
335.939833	2414.601787
336.332606	2432.881011
336.725315	2443.590942
337.117960	2456.808847
337.510540	2467.755713
337.903056	2476.670994
338.295508	2484.832622
338.687896	2494.446102
339.080220	2504.311640
339.472480	2509.957732
339.864676	2516.251613
340.256807	2520.513909
340.648875	2523.740247
341.040879	2527.891637
341.432818	2529.416586
341.824694	2535.042514
342.216506	2534.276259
342.608253	2536.144006
342.999937	2533.683923
343.391557	2535.634850
343.783113	2534.641742
344.174605	2533.595703
344.566033	2533.807431
344.957397	2532.421114
345.348697	2531.095291
345.739934	2527.137985
346.131106	2528.713345
346.522215	2525.507172
346.913260	2523.868797
347.304241	2521.345699
347.695159	2518.787313
348.086012	2518.867972
348.476802	2515.039216
348.867528	2513.262209
349.258191	2509.930006
349.648789	2504.596465
350.039324	2505.206445
350.429796	2508.785664
350.820203	2507.074192
351.210548	2507.149810
351.600828	2504.493122
351.991045	2502.164109
352.381198	2502.877432
352.771288	2500.818121
353.161314	2499.542709
353.551276	2500.475322
353.941175	2497.261587
354.331010	2500.639160
354.720782	2500.016577
355.110490	2496.487769
355.500135	2497.939622
355.889717	2499.290651
356.279235	2500.770230
356.668689	2499.439365
357.058080	2497.256545
357.447408	2501.758296
357.836672	2499.152019
358.225873	2501.065137
358.615010	2498.446258
359.004084	2500.603872
359.393095	2505.244254
359.782043	2502.456496
360.170927	2503.535302
360.559748	2504.999758
360.948505	2503.928512
361.337199	2505.579490
361.725830	2505.957577
362.114398	2504.891373
362.502903	2506.519666
362.891344	2503.913389
363.279722	2508.432783
363.668037	2510.103926
364.056289	2506.272649
364.444478	2510.005623
364.832603	2510.663494
365.220665	2507.099398
365.608665	2506.227279
365.996601	2509.390603
366.384474	2509.486385
366.772284	2512.644667
367.160031	2512.475789
367.547715	2510.318175
367.935336	2511.396982
368.322893	2508.631909
368.710388	2510.003103
369.097820	2510.870181
369.485189	2508.543689
369.872495	2511.712054
370.259738	2512.793382
370.646918	2511.664163
371.034035	2514.217507
371.421090	2513.350429
371.808081	2513.879750
372.195010	2512.833711
372.581875	2515.213135
372.968678	2514.593073
373.355418	2513.831859
373.742096	2517.123733
374.128710	2514.676252
374.515262	2516.163393
374.901751	2517.690863
375.288177	2518.419309
375.674540	2515.450070
376.060841	2517.249762
376.447079	2516.859072
376.833254	2518.401665
377.219367	2517.045595
377.605417	2517.065759
377.991404	2516.677591
378.377329	2519.069618
378.763191	2515.155162
379.148991	2517.063239
379.534727	2518.212622
379.920402	2518.114319
380.306013	2518.895698
380.691563	2523.145391
381.077049	2519.808147
381.462474	2521.401152
381.847835	2520.970133
382.233134	2521.625483
382.618371	2519.041892
383.003545	2520.523991
383.388657	2520.337468
383.773706	2522.096831
384.158693	2520.549197
384.543618	2524.612367
384.928480	2521.799403
385.313280	2522.237983
385.698017	2523.730165
386.082692	2520.556758
386.467305	2521.116327
386.851856	2525.650844
387.236344	2522.376615
387.620770	2521.219670
388.005133	2518.968795
388.389435	2520.743281
388.773674	2517.529546
389.157851	2524.239321
389.541965	2523.480628
389.926018	2527.569003
390.310008	2525.111441
390.693936	2524.577079
391.077802	2524.806451
391.461606	2524.632531
391.845348	2524.491379
392.229027	2523.667150
392.612645	2527.448016
392.996200	2525.749147
393.379694	2525.562624
393.763125	2530.195445
394.146494	2528.743592
394.529801	2528.257121
394.913047	2527.379960
395.296230	2528.582275
395.679351	2525.597912
396.062410	2528.670496
396.445408	2526.467511
396.828343	2528.582275
397.211217	2527.866432
397.594028	2526.059178
397.976778	2528.057995
398.359466	2527.047244
398.742092	2526.061698
399.124656	2524.773684
399.507158	2528.935156
399.889598	2532.035466
400.271977	2531.879190
400.654294	2528.350382
401.036549	2533.399098
401.418742	2532.153933
401.800874	2531.123017
402.182944	2529.444313
402.564952	2529.903058
402.946898	2530.681916
403.328783	2528.700743
403.710606	2530.674354
404.092367	2531.100332
404.474067	2532.211906
404.855705	2530.999509
405.237282	2530.457585
405.618797	2529.598068
406.000250	2532.393388
406.381642	2530.876000
406.762972	2529.472039
407.144240	2529.456916
407.525447	2530.707122
407.906593	2526.538088
408.287677	2530.613860
408.668700	2532.521937
409.049661	2534.465302
409.430560	2533.530168
409.811399	2535.294572
410.192176	2536.164171
410.572891	2535.481094
410.953545	2532.158974
411.334138	2535.768440
411.714669	2534.649304
412.095139	2533.971269
412.475547	2536.189377
412.855894	2533.792308
413.236180	2534.402288
413.616405	2535.047555
413.996568	2533.222657
414.376670	2534.528316
414.756711	2534.732483
415.136691	2534.309026
415.516609	2538.107536
415.896466	2535.738193
416.276262	2536.264994
416.655997	2535.773481
417.035670	2533.078985
417.415283	2538.959491
417.794834	2537.094264
418.174324	2538.770447
418.553753	2538.664583
418.933121	2536.486805
419.312428	2536.007895
419.691674	2536.922864
420.070859	2536.708615
420.449983	2537.174922
420.829045	2536.055786
421.208047	2536.103677
421.586988	2533.736855
421.965867	2537.321116
422.344686	2535.549150
422.723444	2536.587628
423.102141	2537.159799
423.480777	2540.728936
423.859352	2535.397915
424.237866	2536.978317
424.616319	2542.097609
424.994712	2542.253885
425.373044	2536.005374
425.751314	2536.605272
426.129524	2534.450178
426.507673	2535.816331
426.885762	2534.437576
427.263789	2540.456713
427.641756	2538.805735
428.019662	2541.898483
428.397508	2540.791950
428.775292	2540.809594
429.153016	2539.335057
429.530679	2542.369831
429.908282	2540.076106
430.285824	2539.627443
430.663305	2540.917979
431.040726	2541.853113
431.418086	2539.824048
431.795385	2541.636343
432.172624	2538.034439
432.549802	2540.852444
432.926920	2539.503935
433.303977	2541.951415
433.680974	2540.761703
434.057910	2542.815973
434.434786	2540.383617
434.811601	2540.774306
435.188355	2543.650284
435.565050	2540.053421
435.941683	2541.674152
436.318257	2540.348328
436.694770	2545.502908
437.071222	2542.357228
437.447614	2541.217927
437.823946	2543.962836
438.200218	2542.120294
438.576429	2540.388658
438.952580	2542.914276
439.328670	2543.385624
439.704700	2541.835469
440.080670	2543.940151
440.456580	2541.343956
440.832429	2543.786395
441.208218	2540.292876
441.583947	2544.799667
441.959616	2542.072403
442.335224	2542.430325
442.710773	2540.313040
443.086261	2543.738504
443.461689	2542.221117
443.837057	2543.683052
444.212365	2545.210521
444.587612	2541.346477
444.962800	2539.047711
445.337927	2542.367311
445.712995	2537.537885
446.088002	2541.782537
446.462949	2545.263453
446.837837	2543.753628
447.212664	2546.750594
447.587431	2544.381252
447.962139	2543.897301
448.336786	2544.560213
448.711374	2542.445448
449.085901	2544.638350
449.460369	2544.605583
449.834776	2544.721529
450.209124	2543.388144
450.583412	2546.236396
450.957640	2545.787733
451.331808	2545.694472
451.705917	2543.199101
452.079965	2544.020809
452.453954	2546.170861
452.827883	2547.141283
453.201752	2547.181613
453.575562	2545.026519
453.949311	2543.531817
454.323001	2544.953422
454.696632	2544.429142
455.070202	2547.637837
455.443713	2545.820501
455.817164	2544.754297
456.190556	2548.215049
456.563888	2547.594987
456.937160	2546.690100
457.310373	2547.637837
457.683526	2548.494833
458.056619	2546.133052
458.429653	2546.422919
458.802628	2545.926365
459.175542	2544.595501
459.548398	2548.517518
459.921194	2546.511139
460.293930	2547.055584
460.666607	2546.944678
461.039224	2547.254709
461.411782	2548.262940
461.784280	2545.641540
462.156719	2547.537014
462.529099	2547.169010
462.901419	2547.211859
463.273680	2542.573998
463.645882	2542.667259
464.018024	2543.007537
464.390106	2542.876467
464.762130	2550.420554
465.134094	2549.876109
465.505999	2550.160934
465.877845	2548.270502
466.249631	2548.421736
466.621358	2546.932075
466.993026	2550.891902
467.364634	2552.986501
467.736184	2549.359391
468.107674	2549.311500
468.479105	2549.230842
468.850477	2547.441232
469.221790	2548.552806
469.593043	2550.075235
469.964238	2545.825542
470.335373	2547.486602
470.706449	2551.312838
471.077467	2548.305790
471.448425	2550.811243
471.819324	2548.172199
472.190164	2551.212015
472.560945	2552.240410
472.931667	2550.254196
473.302330	2548.986346
473.672934	2550.571788
474.043479	2551.143959
474.413965	2548.381407
474.784393	2552.217725
475.154761	2552.709238
475.525070	2550.216387
475.895321	2549.137580
476.265513	2548.204967
476.635645	2553.959444
477.005719	2552.182437
477.375734	2550.297046
477.745691	2549.873589
478.115588	2549.550955
478.485427	2549.571119
478.855207	2551.632951
479.224928	2553.687222
479.594591	2550.735626
479.964194	2552.391645
480.333739	2550.443239
480.703226	2553.069680
481.072653	2549.538352
481.442022	2549.797971
481.811333	2549.876109
482.180584	2549.122457
482.549777	2549.377035
482.918912	2546.425439
483.287988	2552.379042
483.657005	2552.290822
484.025964	2551.816953
484.394864	2552.757129
484.763706	2554.919784
485.132489	2554.861810
485.501213	2553.379711
485.869879	2552.903322
486.238487	2552.452139
486.607036	2553.954403
486.975527	2555.819630
487.343959	2553.215874
487.712333	2550.884340
488.080648	2552.525236
488.448905	2556.270813
488.817104	2557.382387
489.185244	2555.698642
489.553326	2556.182593
489.921350	2552.797458
490.289315	2556.391801
490.657222	2552.772252
491.025070	2554.571944
491.392861	2554.065308
491.760593	2553.964485
492.128267	2555.832232
492.495883	2554.266954
492.863440	2554.919784
493.230939	2557.029507
493.598380	2555.403734
493.965763	2555.950700
494.333088	2554.377860
494.700354	2552.552962
495.067563	2555.318035
495.434713	2555.786862
495.801805	2557.810885
496.168839	2555.403734
496.535815	2556.812737
496.902733	2556.394321
497.269593	2556.820299
497.636395	2555.726368
498.003139	2553.634289
498.369825	2555.842315
498.736453	2557.521019
499.103023	2556.742161
499.469535	2557.541184
499.835989	2554.471121
500.202385	2554.957592
500.568723	2551.983312
500.935003	2551.491799
501.301226	2551.390976
501.667390	2556.578323
502.033497	2557.137891
502.399546	2558.420865
502.765537	2554.566903
503.131470	2557.541184
503.497345	2557.102603
503.863163	2555.809547
504.228923	2557.710062
504.594625	2559.512275
504.960269	2556.117058
505.325856	2555.260062
505.691385	2556.326266
506.056856	2557.889023
506.422270	2554.050185
506.787625	2554.902140
507.152924	2556.880793
507.518164	2557.251317
507.883347	2557.427758
508.248472	2555.779300
508.613540	2556.265772
508.978550	2557.216029
509.343503	2557.445402
509.708398	2553.891388
510.073236	2558.859445
510.438016	2555.998591
510.802738	2555.638148
511.167403	2560.583520
511.532010	2556.966492
511.896561	2559.567727
512.261053	2557.576472
512.625488	2560.225598
512.989866	2556.858107
513.354186	2558.325083
513.718449	2556.480021
514.082655	2558.241904
514.446803	2557.195865
514.810894	2557.934394
515.174927	2560.104610
515.538904	2557.427758
515.902822	2559.383725
516.266684	2555.489434
516.630488	2559.119065
516.994235	2555.002963
517.357925	2560.591082
517.721558	2562.176525
518.085133	2557.372305
518.448651	2556.747202
518.812112	2556.195196
519.175516	2554.796275
519.538863	2554.665205
519.902152	2560.167625
520.265385	2559.739127
520.628560	2560.762481
520.991678	2558.050340
521.354739	2556.653941
521.717743	2557.241235
522.080690	2560.550752
522.443580	2559.625701
522.806413	2559.925649
523.169189	2559.703839
523.531908	2560.477656
523.894569	2561.085115
524.257174	2560.344065
524.619722	2559.557645
524.982213	2561.949673
525.344647	2562.373130
525.707025	2562.068140
526.069345	2563.608212
526.431608	2561.679971
526.793815	2560.434806
527.155964	2562.554611
527.518057	2563.356155
527.880093	2564.006463
528.242072	2565.022256
528.603995	2564.583676
528.965860	2566.375806
529.327669	2564.036710
529.689421	2565.460836
530.051117	2565.367575
530.412755	2568.364541
530.774337	2569.166084
531.135862	2565.937225
531.497331	2567.777247
531.858743	2566.698440
532.220098	2565.614592
532.581396	2568.485529
532.942638	2570.179356
533.303824	2571.953843
533.664953	2568.785477
534.026025	2571.190108
534.387040	2570.880077
534.747999	2571.759758
535.108902	2569.607185
535.469748	2569.382854
535.830537	2573.229254
536.191270	2572.417629
536.551947	2569.856722
536.912567	2570.514593
537.273131	2574.786971
537.633638	2571.331260
537.994089	2577.562126
538.354483	2575.769996
538.714821	2579.830645
539.075103	2579.089596
539.435328	2578.527507
539.795497	2581.219483
540.155609	2578.540110
540.515665	2581.743763
540.875665	2578.754359
541.235609	2579.903742
541.595496	2583.135122
541.955328	2584.435739
542.315102	2582.623445
542.674821	2586.011100
543.034483	2585.053281
543.394090	2585.668302
543.753640	2584.067735
544.113134	2588.256934
544.472571	2586.908425
544.831953	2588.362798
545.191278	2589.807089
545.550548	2588.493868
545.909761	2590.270875
546.268918	2591.576534
546.628019	2589.902871
546.987064	2591.294229
547.346053	2591.188365
547.704986	2591.301791
548.063863	2592.418407
548.422684	2592.362954
548.781449	2592.932604
549.140158	2594.205496
549.498811	2595.196082
549.857408	2595.508634
550.215949	2593.459405
550.574434	2596.509303
550.932864	2595.914447
551.291237	2594.334045
551.649555	2596.887389
552.007817	2594.724734
552.366022	2597.535178
552.724173	2596.688264
553.082267	2596.816813
553.440305	2597.719180
553.798288	2600.360744
554.156215	2600.166660
554.514086	2596.771443
554.871902	2594.812955
555.229661	2594.051740
555.587365	2595.077615
555.945014	2598.009046
556.302606	2599.521392
556.660143	2603.496342
557.017625	2597.245311
557.375050	2599.198758
557.732421	2600.368306
558.089735	2599.581886
558.446994	2599.372678
558.804197	2602.009202
559.161345	2601.338728
559.518437	2598.669437
559.875474	2601.129520
560.232455	2598.084663
560.589381	2599.639859
560.946251	2600.857298
561.303065	2601.414346
561.659825	2600.617843
562.016528	2600.940477
562.373177	2599.274376
562.729770	2599.745724
563.086307	2603.851743
563.442789	2602.808225
563.799216	2603.740838
564.155587	2601.537854
564.511904	2600.701022
564.868164	2603.168667
565.224370	2602.939295
565.580520	2599.125662
565.936615	2601.898296
566.292654	2600.612802
566.648638	2601.429469
567.004567	2594.961669
567.360441	2596.998295
567.716260	2599.559201
568.072023	2601.424428
568.427732	2600.698502
568.783385	2599.561722
569.138982	2598.974427
569.494525	2598.765219
569.850013	2602.442741
570.205445	2598.601382
570.560823	2601.069027
570.916145	2599.972576
571.271412	2597.141968
571.626625	2601.671444
571.981782	2600.333018
572.336884	2595.816144
572.691931	2596.690784
573.046923	2594.323963
573.401860	2590.570824
573.756743	2595.992585
574.111570	2595.153232
574.466342	2595.301947
574.821059	2597.545260
575.175722	2596.411000
575.530330	2595.987543
575.884882	2593.446802
576.239380	2594.117275
576.593823	2597.482246
576.948211	2595.110383
577.302544	2595.158274
577.656823	2594.538212
578.011047	2594.399580
578.365216	2592.983016
578.719330	2593.446802
579.073389	2592.541915
579.427394	2596.085846
579.781344	2592.587285
580.135239	2593.834971
580.489080	2590.719538
580.842866	2590.961513
581.196597	2593.872779
581.550273	2593.897985
581.903895	2593.887903
582.257463	2594.165166
582.610975	2593.083839
582.964434	2591.200968
583.317837	2588.572006
583.671186	2593.890423
584.024481	2592.453695
584.377721	2591.740371
584.730906	2591.919332
585.084037	2591.654672
585.437113	2591.964703
585.790135	2592.856987
586.143103	2591.266503
586.496016	2593.736668
586.848874	2593.106524
587.201679	2594.008891
587.554428	2589.860021
587.907124	2590.696853
588.259765	2592.068046
588.612352	2593.282964
588.964884	2594.079467
589.317362	2589.950762
589.669786	2591.437902
590.022155	2588.274578
590.374470	2586.396748
590.726731	2587.956985
591.078937	2587.243662
591.431090	2592.100814
591.783188	2592.320104
592.135232	2592.814137
592.487222	2593.461925
592.839157	2592.405804
593.191038	2590.676688
593.542866	2593.598037
593.894639	2592.388160
594.246358	2592.557038
594.598022	2591.498396
594.949633	2591.203488
595.301190	2588.435895
595.652692	2594.833119
596.004141	2592.620053
596.355535	2591.369847
596.706876	2589.660895
597.058162	2592.529312
597.409395	2591.052254
597.760573	2593.091401
598.111698	2595.145671
598.462768	2594.205496
598.813785	2594.316401
599.164748	2595.017121
599.515657	2593.434199
599.866511	2592.786411
600.217312	2595.468305
600.568060	2590.769949
600.918753	2598.215733
601.269392	2595.327152
601.619978	2592.859508
601.970510	2594.525609
602.320988	2593.096442
602.671412	2597.328490
603.021783	2596.186669
603.372100	2595.188521
603.722363	2595.780856
604.072572	2598.356886
604.422728	2597.121803
604.772830	2596.678182
605.122878	2595.871597
605.472872	2599.584407
605.822813	2598.427462
606.172701	2598.102307
606.522534	2599.284458
606.872314	2600.890066
607.222041	2601.391660
607.571714	2599.347472
607.921333	2598.127513
608.270899	2598.787904
608.620411	2600.227154
608.969870	2605.192690
609.319276	2607.907352
609.668627	2613.409771
610.017926	2616.205091
610.367171	2620.263220
610.716362	2618.992849
611.065500	2617.876233
611.414585	2614.095368
611.763616	2617.006634
612.112594	2614.702827
612.461518	2615.537138
612.810389	2613.298866
613.159207	2615.085955
613.507971	2616.832715
613.856682	2620.202726
614.205340	2618.483692
614.553945	2620.913529
614.902496	2618.055194
615.250994	2621.518467
615.599439	2620.215329
615.947830	2623.040896
616.296169	2622.002418
616.644454	2627.683798
616.992686	2619.686008
617.340864	2626.491565
617.688990	2625.969806
618.037063	2631.315950
618.385082	2629.720424
618.733048	2632.548512
619.080961	2630.537091
619.428821	2636.392392
619.776628	2636.682258
620.124382	2635.878194
620.472083	2637.297279
620.819731	2643.182826
621.167326	2641.090747
621.514868	2642.514873
621.862357	2637.995478
622.209793	2641.718371
622.557176	2641.262146
622.904506	2638.202166
623.251783	2640.644605
623.599007	2641.131076
623.946179	2645.068217
624.293297	2640.377424
624.640363	2642.721560
624.987376	2641.007568
625.334336	2640.445479
625.681243	2641.730973
626.028097	2640.483288
626.374899	2649.080976
626.721647	2648.362611
627.068343	2648.453352
627.414987	2648.486120
627.761577	2652.203971
628.108115	2656.055412
628.454600	2651.462921
628.801032	2654.928714
629.147412	2657.187151
629.493739	2661.613284
629.840014	2662.316525
630.186236	2662.261072
630.532405	2666.089829
630.878521	2668.887669
631.224585	2668.307937
631.570597	2673.586025
631.916556	2675.980573
632.262462	2673.951508
632.608316	2680.353774
632.954117	2682.203877
633.299866	2687.260154
633.645562	2691.492203
633.991206	2688.447346
634.336797	2683.837211
634.682336	2688.800227
635.027823	2689.410207
635.373257	2691.104034
635.718639	2691.310722
636.063968	2692.084539
636.409245	2690.582275
636.754470	2694.085877
637.099642	2691.943386
637.444762	2694.181659
637.789829	2697.942359
638.134845	2695.580579
638.479808	2699.142154
638.824719	2704.344625
639.169577	2703.374203
639.514383	2707.044163
639.859137	2711.578681
640.203839	2712.496171
640.548489	2710.182281
640.893086	2718.275853
641.237632	2713.549772
641.582125	2724.630228
641.926566	2724.194168
642.270955	2724.587378
642.615292	2729.739437
642.959576	2734.888976
643.303809	2737.840572
643.647990	2742.687641
643.992118	2746.614700
644.336195	2745.908938
