Dividing Wavelength (nm)	Counts (n)	Blue Motor Position (mm): 41.500000	Red Motor Position (mm): 0.000000	
326.493990	2154.876500
326.888308	2154.876500
327.282561	2154.876500
327.676750	2128.475977
328.070874	2132.166102
328.464933	2135.357152
328.858929	2144.025416
329.252859	2156.159473
329.646726	2171.008192
330.040528	2183.477486
330.434265	2207.092771
330.827938	2221.001315
331.221547	2243.341188
331.615091	2261.597727
332.008571	2279.024995
332.401986	2301.170784
332.795338	2321.753815
333.188625	2342.399861
333.581847	2361.954497
333.975006	2382.590460
334.368100	2401.945970
334.761129	2418.327200
335.154095	2432.150043
335.546996	2459.742799
335.939833	2489.049547
336.332606	2504.959428
336.725315	2510.623165
337.117960	2520.781090
337.510540	2530.233253
337.903056	2541.475026
338.295508	2544.315717
338.687896	2553.641851
339.080220	2562.824313
339.472480	2565.745662
339.864676	2571.321178
340.256807	2573.771178
340.648875	2574.920562
341.040879	2576.117836
341.432818	2579.976839
341.824694	2581.743763
342.216506	2582.510019
342.608253	2578.998855
342.999937	2578.892991
343.391557	2581.799216
343.783113	2573.428380
344.174605	2575.827969
344.566033	2573.090623
344.957397	2574.350911
345.348697	2571.427042
345.739934	2571.369069
346.131106	2569.851681
346.522215	2566.537123
346.913260	2562.456309
347.304241	2565.617112
347.695159	2562.171483
348.086012	2561.410269
348.476802	2557.468087
348.867528	2557.510937
349.258191	2555.134033
349.648789	2553.951882
350.039324	2553.031872
350.429796	2552.888199
350.820203	2548.837632
351.210548	2548.888043
351.600828	2549.440049
351.991045	2550.027344
352.381198	2548.424257
352.771288	2549.477858
353.161314	2545.639019
353.551276	2547.925183
353.941175	2551.378373
354.331010	2547.559699
354.720782	2551.506923
355.110490	2549.956768
355.500135	2547.224462
355.889717	2549.805533
356.279235	2549.261088
356.668689	2549.939124
357.058080	2549.198074
357.447408	2547.857127
357.836672	2550.208825
358.225873	2545.155069
358.615010	2546.773279
359.004084	2550.201264
359.393095	2552.636141
359.782043	2551.151521
360.170927	2553.026830
360.559748	2553.651933
360.948505	2554.720658
361.337199	2557.647048
361.725830	2555.126471
362.114398	2554.967675
362.502903	2556.318704
362.891344	2560.291133
363.279722	2556.210319
363.668037	2555.865000
364.056289	2557.410114
364.444478	2558.998077
364.832603	2558.430947
365.220665	2559.330793
365.608665	2561.962276
365.996601	2559.416493
366.384474	2559.744168
366.772284	2560.230639
367.160031	2560.800290
367.547715	2561.795917
367.935336	2560.457491
368.322893	2563.822461
368.710388	2565.022256
369.097820	2564.533264
369.485189	2562.292471
369.872495	2561.291802
370.259738	2565.102914
370.646918	2564.651731
371.034035	2564.931515
371.421090	2563.958573
371.808081	2563.903120
372.195010	2567.489901
372.581875	2566.257339
372.968678	2567.464695
373.355418	2568.619119
373.742096	2566.426217
374.128710	2567.832699
374.515262	2566.025446
374.901751	2565.191135
375.288177	2566.942936
375.674540	2567.976372
376.060841	2568.311609
376.447079	2568.160374
376.833254	2568.344376
377.219367	2563.215002
377.605417	2567.265569
377.991404	2566.862277
378.377329	2568.165415
378.763191	2563.719118
379.148991	2571.321178
379.534727	2567.797411
379.920402	2571.013667
380.306013	2572.473081
380.691563	2570.612896
381.077049	2569.939902
381.462474	2572.951991
381.847835	2571.074161
382.233134	2572.634398
382.618371	2572.465520
383.003545	2574.227403
383.388657	2577.178998
383.773706	2575.976683
384.158693	2573.383010
384.543618	2574.124059
384.928480	2574.106415
385.313280	2576.246385
385.698017	2575.379307
386.082692	2578.855182
386.467305	2575.207907
386.851856	2579.235789
387.236344	2580.301993
387.620770	2578.270408
388.005133	2578.903073
388.389435	2585.572520
388.773674	2579.606314
389.157851	2579.974318
389.541965	2584.579412
389.926018	2586.353898
390.310008	2587.394897
390.693936	2586.946234
391.077802	2592.274734
391.461606	2594.946545
391.845348	2597.537698
392.229027	2599.176073
392.612645	2603.158585
392.996200	2608.953391
393.379694	2614.261726
393.763125	2618.440843
394.146494	2623.280350
394.529801	2626.436113
394.913047	2633.861732
395.296230	2638.877680
395.679351	2644.669966
396.062410	2651.825884
396.445408	2653.799496
396.828343	2665.920950
397.211217	2669.245591
397.594028	2672.660973
397.976778	2682.065245
398.359466	2696.369519
398.742092	2696.220805
399.124656	2715.490616
399.507158	2724.761298
399.889598	2732.663307
400.271977	2745.961870
400.654294	2753.876482
401.036549	2766.489449
401.418742	2776.917076
401.800874	2795.826444
402.182944	2808.434369
402.564952	2831.989161
402.946898	2836.919409
403.328783	2851.523632
403.710606	2866.707587
404.092367	2888.626524
404.474067	2914.308683
404.855705	2917.083838
405.237282	2927.440888
405.618797	2961.070426
406.000250	2983.972388
406.381642	3013.866430
406.762972	3027.079294
407.144240	3031.505427
407.525447	3061.016342
407.906593	3069.795511
408.287677	3095.404573
408.668700	3119.644961
409.049661	3127.403297
409.430560	3150.862306
409.811399	3163.553411
410.192176	3189.964016
410.572891	3205.394988
410.953545	3248.456524
411.334138	3233.333062
411.714669	3286.618059
412.095139	3248.005341
412.475547	3298.285809
412.855894	3300.168680
413.236180	3332.469873
413.616405	3327.577434
413.996568	3355.497864
414.376670	3360.385263
414.756711	3364.229143
415.136691	3395.600243
415.516609	3421.995725
415.896466	3437.013322
416.276262	3464.182621
416.655997	3498.386849
417.035670	3511.577028
417.415283	3580.986155
417.794834	3604.762757
418.174324	3592.391766
418.553753	3598.098352
418.933121	3644.413953
419.312428	3637.862973
419.691674	3635.927170
420.070859	3676.054755
420.449983	3658.191426
420.829045	3712.898028
421.208047	3696.335317
421.586988	3742.910537
421.965867	3775.872122
422.344686	3790.804019
422.723444	3826.384483
423.102141	3731.479721
423.480777	3836.938139
423.859352	3802.892706
424.237866	3903.062954
424.616319	3889.640882
424.994712	3949.111374
425.373044	3936.097635
425.751314	4001.602388
426.129524	3937.365485
426.507673	4037.571021
426.885762	4013.239892
427.263789	4041.651835
427.641756	4042.622257
428.019662	4074.749530
428.397508	4075.518306
428.775292	4114.088174
429.153016	4121.216366
429.530679	4135.329076
429.908282	4139.500631
430.285824	4120.019092
430.663305	4192.568858
431.040726	4150.848268
431.418086	4143.757885
431.795385	4218.450141
432.172624	4252.329216
432.549802	4219.685224
432.926920	4238.413111
433.303977	4233.077049
433.680974	4271.702370
434.057910	4296.804796
434.434786	4302.513902
434.811601	4295.345382
435.188355	4399.452770
435.565050	4373.861353
435.941683	4367.201988
436.318257	4457.794044
436.694770	4464.768480
437.071222	4518.933158
437.447614	4456.649702
437.823946	4457.819249
438.200218	4471.705108
438.576429	4456.276656
438.952580	4482.082323
439.328670	4487.100792
439.704700	4528.236607
440.080670	4493.452645
440.456580	4557.528231
440.832429	4592.110547
441.208218	4495.479189
441.583947	4547.614802
441.959616	4556.908169
442.335224	4583.719546
442.710773	4608.869863
443.086261	4658.595804
443.461689	4615.423363
443.837057	4626.292090
444.212365	4701.168348
444.587612	4706.617836
444.962800	4672.373278
445.337927	4712.306778
445.712995	4602.533132
446.088002	4789.471720
446.462949	4812.938291
446.837837	4834.910160
447.212664	4821.057069
447.587431	5047.485535
447.962139	5349.281772
448.336786	5687.487742
448.711374	5664.721892
449.085901	5311.815917
449.460369	5247.437862
449.834776	5185.635836
450.209124	5424.780613
450.583412	5432.942241
450.957640	5552.241147
451.331808	5417.372637
451.705917	5265.878402
452.079965	5259.445890
452.453954	5299.467610
452.827883	5260.736425
453.201752	5265.913690
453.575562	5297.408299
453.949311	5432.528866
454.323001	5437.779228
454.696632	5434.535245
455.070202	5588.960911
455.443713	5618.363441
455.817164	5709.668819
456.190556	5779.962669
456.563888	5756.803608
456.937160	5831.347150
457.310373	5676.218243
457.683526	5733.316872
458.056619	5724.043670
458.429653	5703.206060
458.802628	5752.914358
459.175542	5787.529441
459.548398	5923.227220
459.921194	6117.833402
460.293930	6174.092679
460.666607	6422.825731
461.039224	6641.876468
461.411782	6768.570747
461.784280	6677.126736
462.156719	6686.959507
462.529099	6647.595657
462.901419	6508.575757
463.273680	6371.494182
463.645882	6366.125353
464.018024	6362.125197
464.390106	6430.644560
464.762130	6691.350352
465.134094	7083.809220
465.505999	7718.951755
465.877845	8426.278572
466.249631	8780.548179
466.621358	8700.313174
466.993026	8497.668872
467.364634	8284.680122
467.736184	8003.330805
468.107674	7848.169131
468.479105	7768.007223
468.850477	7696.924433
469.221790	7525.731890
469.593043	7302.575132
469.964238	7205.437139
470.335373	7180.634662
470.706449	7334.029412
471.077467	7528.454113
471.448425	8187.222015
471.819324	8774.166078
472.190164	8810.066655
472.560945	8325.074888
472.931667	7849.852876
473.302330	7658.452868
473.672934	7535.829321
474.043479	7610.887060
474.413965	7515.132864
474.784393	7466.901624
475.154761	7624.979606
475.525070	7635.840772
475.895321	7585.749347
476.265513	7683.537649
476.635645	7850.321703
477.005719	7838.222934
477.375734	7924.890451
477.745691	8037.144344
478.115588	8240.133966
478.485427	8483.692273
478.855207	8956.277761
479.224928	9393.353361
479.594591	9772.901834
479.964194	9787.374987
480.333739	9863.793838
480.703226	9860.983394
481.072653	9964.236308
481.442022	10081.105377
481.811333	10231.205733
482.180584	10066.775897
482.549777	10010.567032
482.918912	9945.127814
483.287988	9935.405949
483.657005	9840.208799
484.025964	9765.181307
484.394864	9817.914297
484.763706	9783.992372
485.132489	9692.956696
485.501213	9673.855764
485.869879	9738.155681
486.238487	9673.989354
486.607036	9759.840204
486.975527	9703.384322
487.343959	9760.954299
487.712333	9802.145567
488.080648	9844.035035
488.448905	9943.791908
488.817104	9954.895049
489.185244	10123.995514
489.553326	10338.007618
489.921350	10809.872221
490.289315	11451.326281
490.657222	11727.072355
491.025070	11893.853889
491.392861	11818.886890
491.760593	11659.813280
492.128267	11407.569065
492.495883	11163.153762
492.863440	10929.309759
493.230939	10700.459018
493.598380	10519.927737
493.965763	10504.103555
494.333088	10370.170180
494.700354	10301.852463
495.067563	10282.504514
495.434713	10278.947980
495.801805	10322.725360
496.168839	10286.315627
496.535815	10250.581408
496.902733	10294.830136
497.269593	10255.587273
497.636395	10264.532801
498.003139	10375.231498
498.369825	10300.771135
498.736453	10394.733202
499.103023	10335.320683
499.469535	10338.665489
499.835989	10392.873016
500.202385	10367.954593
500.568723	10386.884125
500.935003	10448.945770
501.301226	10414.234906
501.667390	10578.836140
502.033497	10682.789774
502.399546	10610.759247
502.765537	10510.382312
503.131470	10613.922571
503.497345	10703.244256
503.863163	10479.921140
504.228923	10610.504669
504.594625	10731.613349
504.960269	10634.130036
505.325856	10787.083685
505.691385	10667.194964
506.056856	10739.114586
506.422270	10840.426655
506.787625	10773.235636
507.152924	10820.710702
507.518164	10884.758562
507.883347	10743.278579
508.248472	10834.752836
508.613540	10937.766294
508.978550	11015.652121
509.343503	10993.917186
509.708398	11048.923737
510.073236	11172.406800
510.438016	11186.960611
510.802738	11103.176634
511.167403	11232.038609
511.532010	11292.260233
511.896561	11388.952084
512.261053	11578.749006
512.625488	11500.255720
512.989866	11489.192908
513.354186	11464.513939
513.718449	11476.910136
514.082655	11613.948863
514.446803	11573.100393
514.810894	11686.881756
515.174927	11676.799448
515.538904	11672.428768
515.902822	11827.325781
516.266684	11696.976666
516.630488	11796.078189
516.994235	11785.602672
517.357925	11896.790361
517.721558	11956.936367
518.085133	12025.833817
518.448651	12056.410936
518.812112	12013.765295
519.175516	12016.089267
519.538863	12119.569032
519.902152	12114.590892
520.265385	12223.265566
520.628560	12250.434865
520.991678	12196.912934
521.354739	12248.473856
521.717743	12319.914568
522.080690	12292.523458
522.443580	12429.826845
522.806413	12445.552724
523.169189	12438.394286
523.531908	12499.578770
523.894569	12461.321454
524.257174	12478.410965
524.619722	12589.419693
524.982213	12562.759551
525.344647	12553.937532
525.707025	12564.471023
526.069345	12667.799553
526.431608	12644.411120
526.793815	12730.884553
527.155964	12619.414559
527.518057	12642.883651
527.880093	12613.735699
528.242072	12716.955845
528.603995	12645.651244
528.965860	12659.895024
529.327669	12694.731918
529.689421	12640.257209
530.051117	12653.986792
530.412755	12688.536340
530.774337	12681.569465
531.135862	12645.774752
531.497331	12702.454966
531.858743	12672.825584
532.220098	12755.631577
532.581396	12688.183459
532.942638	12607.356119
533.303824	12679.232890
533.664953	12657.989468
534.026025	12604.258330
534.387040	12715.317470
534.747999	12687.414683
535.108902	12727.138975
535.469748	12604.281015
535.830537	12641.845173
536.191270	12678.149042
536.551947	12609.347375
536.912567	12664.515242
537.273131	12698.830376
537.633638	12576.998290
537.994089	12640.542035
538.354483	12553.814024
538.714821	12679.953775
539.075103	12762.996703
539.435328	12692.859129
539.795497	12671.693845
540.155609	12666.584635
540.515665	12770.250923
540.875665	12620.327008
541.235609	12721.175290
541.595496	12688.319570
541.955328	12859.154192
542.315102	12719.718397
542.674821	12652.358499
543.034483	12667.378617
543.394090	12665.974656
543.753640	12634.112043
544.113134	12878.691183
544.472571	12637.960964
544.831953	12922.962597
545.191278	12734.491498
545.550548	12666.277125
545.909761	12784.071246
546.268918	12834.195439
546.628019	12887.281310
546.987064	12785.732307
547.346053	12624.400260
547.704986	12828.549347
548.063863	12703.546375
548.422684	12768.864606
548.781449	12714.226060
549.140158	12818.479642
549.498811	12760.201383
549.857408	12631.732618
550.215949	12833.441787
550.574434	12808.833394
550.932864	12746.854928
551.291237	12947.124847
551.649555	12828.559429
552.007817	12890.726938
552.366022	12812.727685
552.724173	12853.462729
553.082267	12941.743415
553.440305	13027.208617
553.798288	12859.300385
554.156215	12935.177312
554.514086	12980.724137
554.871902	12924.164912
555.229661	12950.817492
555.587365	12892.582083
555.945014	12915.330290
556.302606	12895.326991
556.660143	12950.693984
557.017625	12990.750992
557.375050	12950.636011
557.732421	13042.372408
558.089735	13047.443808
558.446994	13018.346268
558.804197	13135.646357
559.161345	13123.701343
559.518437	12946.645937
559.875474	13035.942416
560.232455	13053.619222
560.589381	13103.284670
560.946251	13040.890308
561.303065	13219.140467
561.659825	13167.035101
562.016528	13082.225249
562.373177	13029.023432
562.729770	13158.812979
563.086307	13037.006099
563.442789	13135.979073
563.799216	13183.738964
564.155587	13128.039256
564.511904	13150.865600
564.868164	13164.322960
565.224370	13222.197927
565.580520	13177.107327
565.936615	13233.190163
566.292654	13172.880319
566.648638	13243.990835
567.004567	13245.954365
567.360441	13241.225762
567.716260	13215.772977
568.072023	13290.679482
568.427732	13278.147173
568.783385	13177.422399
569.138982	13292.852219
569.494525	13288.859625
569.850013	13242.448242
570.205445	13215.253738
570.560823	13233.845513
570.916145	13199.318650
571.271412	13204.896687
571.626625	13158.407166
571.981782	13163.052590
572.336884	13113.498047
572.691931	13197.622302
573.046923	13089.476949
573.401860	13062.131210
573.756743	13065.460892
574.111570	13081.753902
574.466342	13058.501579
574.821059	13105.805247
575.175722	12987.698574
575.530330	13001.486129
575.884882	12929.808483
576.239380	12929.107763
576.593823	12922.022421
576.948211	12923.789346
577.302544	12798.002475
577.656823	12813.524188
578.011047	12877.309907
578.365216	12805.135708
578.719330	12752.765681
579.073389	12722.271741
579.427394	12735.968556
579.781344	12728.621075
580.135239	12660.789829
580.489080	12680.185668
580.842866	12554.771843
581.196597	12650.450423
581.550273	12637.076241
581.903895	12591.350455
582.257463	12713.154815
582.610975	12552.689847
582.964434	12613.851646
583.317837	12538.357846
583.671186	12495.598779
584.024481	12552.213457
584.377721	12436.234152
584.730906	12515.929753
585.084037	12527.418542
585.437113	12445.235132
585.790135	12469.369656
586.143103	12376.733413
586.496016	12394.687482
586.848874	12399.476578
587.201679	12406.720716
587.554428	12282.007611
587.907124	12326.281545
588.259765	12261.837955
588.612352	12336.600787
588.964884	12199.466279
589.317362	12253.782191
589.669786	12239.296435
590.022155	12192.406143
590.374470	12296.349694
590.726731	12181.870131
591.078937	12063.042573
591.431090	12091.056265
591.783188	12020.550688
592.135232	11938.294180
592.487222	12005.981753
592.839157	12010.788493
593.191038	11942.213677
593.542866	11890.559495
593.894639	11744.608008
594.246358	11813.218112
594.598022	11815.690798
594.949633	11715.754964
595.301190	11706.678367
595.652692	11655.699699
596.004141	11749.467681
596.355535	11532.927438
596.706876	11512.220898
597.058162	11478.455250
597.409395	11567.184599
597.760573	11595.009248
598.111698	11490.997641
598.462768	11495.229689
598.813785	11499.585246
599.164748	11373.904240
599.515657	11457.627723
599.866511	11332.211377
600.217312	11455.865840
600.568060	11224.257588
600.918753	11387.374203
601.269392	11388.001827
601.619978	11293.911211
601.970510	11331.326654
602.320988	11372.119671
602.671412	11441.979981
603.021783	11364.358815
603.372100	11286.961980
603.722363	11304.351440
604.072572	11307.895371
604.422728	11321.506487
604.772830	11267.608990
605.122878	11273.398756
605.472872	11250.249777
605.822813	11302.639968
606.172701	11266.230235
606.522534	11300.053857
606.872314	11360.913186
607.222041	11290.233689
607.571714	11369.659588
607.921333	11235.887530
608.270899	11287.420725
608.620411	11348.002791
608.969870	11296.414143
609.319276	11282.601382
609.668627	11300.200050
610.017926	11379.116793
610.367171	11407.460680
610.716362	11401.756615
611.065500	11369.024403
611.414585	11382.985878
611.763616	11442.151381
612.112594	11402.406924
612.461518	11433.460431
612.810389	11485.603606
613.159207	11432.167375
613.507971	11414.276320
613.856682	11521.294975
614.205340	11474.772687
614.553945	11616.232505
614.902496	11495.975780
615.250994	11560.926006
615.599439	11550.815972
615.947830	11583.245715
616.296169	11545.764736
616.644454	11560.583208
616.992686	11577.609705
617.340864	11670.838284
617.688990	11555.990717
618.037063	11686.226406
618.385082	11658.628609
618.733048	11700.674353
619.080961	11689.518279
619.428821	11666.278560
619.776628	11681.432268
620.124382	11632.001234
620.472083	11647.165025
620.819731	11667.944661
621.167326	11590.285686
621.514868	11573.491082
621.862357	11469.973509
622.209793	11459.472785
622.557176	11388.034594
622.904506	11323.953967
623.251783	11241.367264
623.599007	11181.654797
623.946179	11139.692232
624.293297	11107.559917
624.640363	10970.221243
624.987376	10951.717688
625.334336	10893.968750
625.681243	10812.140740
626.028097	10784.837851
626.374899	10753.701164
626.721647	10720.013654
627.068343	10688.312358
627.414987	10615.278642
627.761577	10559.193284
628.108115	10603.187434
628.454600	10474.295212
628.801032	10492.481175
629.147412	10470.065684
629.493739	10442.160377
629.840014	10362.711793
630.186236	10411.704246
630.532405	10313.305964
630.878521	10349.982879
631.224585	10305.232557
631.570597	10225.035361
631.916556	10233.517102
632.262462	10217.408095
632.608316	10197.220794
632.954117	10173.943266
633.299866	10157.037757
633.645562	10127.418457
633.991206	10017.682621
634.336797	9926.309187
634.682336	9912.120859
635.027823	9861.638744
635.373257	9820.376900
635.718639	9758.030430
636.063968	9728.123785
636.409245	9612.414181
636.754470	9599.047561
637.099642	9544.867760
637.444762	9441.536709
637.789829	9443.659035
638.134845	9370.499290
638.479808	9352.399027
