Dividing Wavelength (nm)	Counts (n)	Blue Motor Position (mm): 24.500000	Red Motor Position (mm): 0.000000	
326.493990	2099.890114
326.888308	2099.890114
327.282561	2099.890114
327.676750	2077.678790
328.070874	2079.836404
328.464933	2085.961406
328.858929	2094.972468
329.252859	2109.513677
329.646726	2125.128651
330.040528	2139.705147
330.434265	2159.353044
330.827938	2180.155366
331.221547	2197.030628
331.615091	2217.802703
332.008571	2241.339850
332.401986	2261.595206
332.795338	2278.727567
333.188625	2299.512245
333.581847	2317.166365
333.975006	2335.478357
334.368100	2353.843280
334.761129	2371.179808
335.154095	2387.613970
335.546996	2429.609302
335.939833	2500.135044
336.332606	2514.915707
336.725315	2527.180835
337.117960	2534.687113
337.510540	2542.100129
337.903056	2552.835267
338.295508	2557.495813
338.687896	2561.574107
339.080220	2571.313616
339.472480	2577.836869
339.864676	2580.453228
340.256807	2583.961871
340.648875	2585.703590
341.040879	2586.048909
341.432818	2588.438416
341.824694	2589.764239
342.216506	2588.811461
342.608253	2587.147880
342.999937	2585.524629
343.391557	2585.660740
343.783113	2587.220977
344.174605	2583.296439
344.566033	2581.254771
344.957397	2579.218145
345.348697	2575.192784
345.739934	2572.959553
346.131106	2574.786971
346.522215	2573.609862
346.913260	2570.975859
347.304241	2569.970148
347.695159	2570.234809
348.086012	2566.390929
348.476802	2565.735579
348.867528	2563.341031
349.258191	2564.099725
349.648789	2562.206772
350.039324	2558.965310
350.429796	2563.635939
350.820203	2560.528067
351.210548	2557.160577
351.600828	2558.441030
351.991045	2554.156049
352.381198	2555.444064
352.771288	2557.543704
353.161314	2554.075390
353.551276	2554.340051
353.941175	2553.205791
354.331010	2556.306101
354.720782	2557.594116
355.110490	2558.637635
355.500135	2555.670916
355.889717	2560.006308
356.279235	2555.796944
356.668689	2558.327604
357.058080	2558.229301
357.447408	2556.079249
357.836672	2553.921635
358.225873	2556.303580
358.615010	2555.582695
359.004084	2563.678788
359.393095	2562.892368
359.782043	2563.174673
360.170927	2561.069991
360.559748	2563.401525
360.948505	2562.400856
361.337199	2566.864798
361.725830	2564.192986
362.114398	2565.871690
362.502903	2564.477811
362.891344	2565.657441
363.279722	2563.454457
363.668037	2568.712381
364.056289	2565.226423
364.444478	2567.507545
364.832603	2569.695406
365.220665	2567.842782
365.608665	2566.559808
365.996601	2569.864284
366.384474	2571.623647
366.772284	2572.878894
367.160031	2568.762792
367.547715	2569.755899
367.935336	2570.630540
368.322893	2572.813359
368.710388	2570.733883
369.097820	2572.475602
369.485189	2570.819583
369.872495	2573.274625
370.259738	2571.885787
370.646918	2575.880901
371.034035	2573.098184
371.421090	2578.129256
371.808081	2572.750345
372.195010	2575.505335
372.581875	2574.091292
372.968678	2573.882084
373.355418	2576.316961
373.742096	2577.758731
374.128710	2575.969122
374.515262	2577.483988
374.901751	2577.249575
375.288177	2575.896025
375.674540	2577.136149
376.060841	2578.940882
376.447079	2578.237641
376.833254	2580.402816
377.219367	2574.058524
377.605417	2577.350398
377.991404	2576.536251
378.377329	2576.881570
378.763191	2574.723957
379.148991	2581.317786
379.534727	2580.208732
379.920402	2583.351891
380.306013	2582.240317
380.691563	2582.620924
381.077049	2584.135791
381.462474	2582.136973
381.847835	2581.912642
382.233134	2585.307859
382.618371	2584.891964
383.003545	2585.151583
383.388657	2582.567992
383.773706	2585.690987
384.158693	2584.826429
384.543618	2588.957654
384.928480	2586.069073
385.313280	2587.180648
385.698017	2587.571337
386.082692	2587.830957
386.467305	2588.758529
386.851856	2588.425813
387.236344	2589.973447
387.620770	2587.606625
388.005133	2590.669126
388.389435	2589.421441
388.773674	2591.697522
389.157851	2587.309197
389.541965	2589.159301
389.926018	2590.958992
390.310008	2593.938314
390.693936	2593.066195
391.077802	2593.524940
391.461606	2594.361771
391.845348	2591.815989
392.229027	2595.097780
392.612645	2593.212388
392.996200	2593.882862
393.379694	2596.940322
393.763125	2594.384457
394.146494	2596.259766
394.529801	2594.286154
394.913047	2596.597523
395.296230	2595.299426
395.679351	2595.765733
396.062410	2597.946032
396.445408	2594.686926
396.828343	2598.223295
397.211217	2595.506113
397.594028	2594.951586
397.976778	2593.673654
398.359466	2597.527616
398.742092	2592.630135
399.124656	2600.005343
399.507158	2597.661207
399.889598	2598.019128
400.271977	2599.476022
400.654294	2603.791250
401.036549	2600.212030
401.418742	2601.033738
401.800874	2605.164964
402.182944	2600.688419
402.564952	2601.293358
402.946898	2602.104984
403.328783	2602.389809
403.710606	2604.827207
404.092367	2602.609099
404.474067	2603.995416
404.855705	2603.239243
405.237282	2605.260746
405.618797	2607.108329
406.000250	2606.415170
406.381642	2604.953236
406.762972	2606.417691
407.144240	2607.645212
407.525447	2609.941457
407.906593	2605.870726
408.287677	2608.328288
408.668700	2608.484564
409.049661	2607.672938
409.430560	2608.504728
409.811399	2607.632609
410.192176	2610.211159
410.572891	2610.614451
410.953545	2610.679986
411.334138	2610.984976
411.714669	2610.120418
412.095139	2611.388268
412.475547	2613.505553
412.855894	2612.499843
413.236180	2611.872219
413.616405	2613.908845
413.996568	2612.514966
414.376670	2614.770883
414.756711	2613.258537
415.136691	2613.399689
415.516609	2613.601335
415.896466	2616.215173
416.276262	2616.835235
416.655997	2612.202415
417.035670	2612.230141
417.415283	2615.353136
417.794834	2612.961108
418.174324	2617.130143
418.553753	2615.211984
418.933121	2617.162910
419.312428	2617.853548
419.691674	2621.488220
420.070859	2617.654423
420.449983	2617.667026
420.829045	2620.790020
421.208047	2620.633745
421.586988	2619.307921
421.965867	2621.258848
422.344686	2621.657099
422.723444	2621.132819
423.102141	2619.479320
423.480777	2623.308077
423.859352	2623.461832
424.237866	2625.737913
424.616319	2624.139867
424.994712	2625.294291
425.373044	2625.017028
425.751314	2625.548870
426.129524	2627.648510
426.507673	2627.424179
426.885762	2626.052985
427.263789	2629.130609
427.641756	2628.495424
428.019662	2627.328397
428.397508	2627.749333
428.775292	2630.947945
429.153016	2632.170425
429.530679	2633.292082
429.908282	2630.925260
430.285824	2630.443830
430.663305	2630.539612
431.040726	2631.497431
431.418086	2631.734365
431.795385	2635.124541
432.172624	2636.916672
432.549802	2633.244191
432.926920	2631.230250
433.303977	2637.035139
433.680974	2637.642598
434.057910	2635.205200
434.434786	2637.496404
434.811601	2637.892135
435.188355	2639.225520
435.565050	2640.027063
435.941683	2640.200983
436.318257	2638.938174
436.694770	2638.852475
437.071222	2643.593680
437.447614	2637.544295
437.823946	2639.933802
438.200218	2642.151910
438.576429	2644.899339
438.952580	2644.196098
439.328670	2645.605100
439.704700	2649.892602
440.080670	2647.228352
440.456580	2647.513177
440.832429	2653.716317
441.208218	2649.451501
441.583947	2651.352016
441.959616	2653.630617
442.335224	2654.069197
442.710773	2654.694301
443.086261	2655.021976
443.461689	2657.260248
443.837057	2658.023983
444.212365	2662.843326
444.587612	2663.130672
444.962800	2662.218223
445.337927	2666.477998
445.712995	2664.549756
446.088002	2668.859943
446.462949	2671.085612
446.837837	2672.925633
447.212664	2673.775068
447.587431	2686.854342
447.962139	2695.935980
448.336786	2703.563246
448.711374	2700.331866
449.085901	2694.353058
449.460369	2696.220805
449.834776	2697.070240
450.209124	2709.831921
450.583412	2711.540872
450.957640	2714.348795
451.331808	2714.479865
451.705917	2712.145810
452.079965	2714.946171
452.453954	2720.506564
452.827883	2725.809858
453.201752	2728.191803
453.575562	2732.925447
453.949311	2742.864081
454.323001	2748.696696
454.696632	2752.958992
455.070202	2769.466250
455.443713	2780.075358
455.817164	2789.396452
456.190556	2801.608647
456.563888	2808.941005
456.937160	2819.116574
457.310373	2822.647903
457.683526	2833.982937
458.056619	2846.628672
458.429653	2862.067205
458.802628	2883.545041
459.175542	2903.394584
459.548398	2936.880449
459.921194	2975.576346
460.293930	3014.189064
460.666607	3070.271900
461.039224	3123.929942
461.411782	3155.396824
461.784280	3164.455777
462.156719	3186.841021
462.529099	3203.837271
462.901419	3216.377142
463.273680	3234.424472
463.645882	3268.847991
464.018024	3312.436328
464.390106	3383.083058
464.762130	3513.285980
465.134094	3709.364179
465.505999	3956.995738
465.877845	4176.038914
466.249631	4277.451806
466.621358	4285.588228
466.993026	4276.236888
467.364634	4282.185449
467.736184	4290.493271
468.107674	4330.875434
468.479105	4387.331316
468.850477	4448.357004
469.221790	4465.602791
469.593043	4468.216629
469.964238	4515.038866
470.335373	4602.107155
470.706449	4824.343902
471.077467	5130.601559
471.448425	5560.322116
471.819324	5867.499785
472.190164	5843.861814
472.560945	5702.734712
472.931667	5589.800263
473.302330	5631.127642
473.672934	5684.957083
474.043479	5858.776068
474.413965	5920.724287
474.784393	6012.705180
475.154761	6239.259675
475.525070	6382.428444
475.895321	6470.890612
476.265513	6677.913156
476.635645	6944.857376
477.005719	7083.158911
477.375734	7302.386089
477.745691	7564.589103
478.115588	7922.563959
478.485427	8403.905931
478.855207	9129.196899
479.224928	9761.113096
479.594591	10248.910265
479.964194	10279.119380
480.333739	10528.497699
480.703226	10788.376741
481.072653	11182.441217
481.442022	11541.925898
481.811333	11839.762308
482.180584	11828.724702
482.549777	11985.789411
482.918912	12143.995942
483.287988	12342.168741
483.657005	12436.304728
484.025964	12548.077191
484.394864	12825.625477
484.763706	13012.299404
485.132489	13068.596490
485.501213	13300.040904
485.869879	13629.382006
486.238487	13800.594714
486.607036	14128.990599
486.975527	14268.774233
487.343959	14619.719199
487.712333	14933.941880
488.080648	15199.114134
488.448905	15654.017775
488.817104	15910.211734
489.185244	16563.691466
489.553326	17527.794495
489.921350	18910.010824
490.289315	20411.165616
490.657222	21014.664828
491.025070	21510.300992
491.392861	21479.416363
491.760593	21315.397382
492.128267	20960.212805
492.495883	20682.518325
492.863440	20463.896086
493.230939	20240.479709
493.598380	20124.918819
493.965763	20327.273255
494.333088	20306.571756
494.700354	20426.364695
495.067563	20617.096751
495.434713	20882.684900
495.801805	21250.873133
496.168839	21405.661762
496.535815	21568.586813
496.902733	21911.965007
497.269593	22024.420547
497.636395	22306.561325
498.003139	22854.317978
498.369825	22890.463051
498.736453	23385.776581
499.103023	23456.929947
499.469535	23702.759294
499.835989	24083.005967
500.202385	24204.457445
500.568723	24541.529156
500.935003	24970.312058
501.301226	25158.258876
501.667390	25849.108682
502.033497	26318.702245
502.399546	26281.206142
502.765537	26168.982496
503.131470	26712.018109
503.497345	27261.924815
503.863163	26692.060181
504.228923	27411.911744
504.594625	27998.908739
504.960269	27809.116859
505.325856	28581.308202
505.691385	28444.413149
506.056856	28838.278499
506.422270	29431.861761
506.787625	29427.417984
507.152924	29851.235350
507.518164	30207.274402
507.883347	29904.893391
508.248472	30378.693797
508.613540	31013.246517
508.978550	31508.111384
509.343503	31601.304675
509.708398	32018.954189
510.073236	32693.654658
510.438016	32967.633808
510.802738	32781.451393
511.167403	33555.018972
511.532010	33991.565251
511.896561	34487.145962
512.261053	35440.828926
512.625488	35315.785625
512.989866	35473.069625
513.354186	35568.652423
513.718449	35805.624462
514.082655	36608.203881
514.446803	36542.920938
514.810894	37226.209013
515.174927	37365.186063
515.538904	37500.208328
515.902822	38290.373905
516.266684	38027.699542
516.630488	38608.818552
516.994235	38662.353085
517.357925	39384.100123
517.721558	39753.079817
518.085133	40206.236698
518.448651	40509.245332
518.812112	40476.324077
519.175516	40765.192274
519.538863	41242.634914
519.902152	41364.603111
520.265385	41977.985505
520.628560	42170.895339
520.991678	42129.008392
521.354739	42487.575583
521.717743	42954.330976
522.080690	42994.168694
522.443580	43643.794464
522.806413	43839.318137
523.169189	43939.637098
523.531908	44232.306326
523.894569	44203.707860
524.257174	44498.315412
524.619722	44908.604841
524.982213	45010.564698
525.344647	45029.509354
525.707025	45189.175299
526.069345	45686.414550
526.431608	45712.840278
526.793815	46110.894827
527.155964	45753.217400
527.518057	46008.773653
527.880093	45882.679272
528.242072	46497.387490
528.603995	46276.554704
528.965860	46365.730195
529.327669	46512.291661
529.689421	46514.681168
530.051117	46525.375976
530.412755	46737.893378
530.774337	46874.606950
531.135862	46730.205618
531.497331	46996.456679
531.858743	46943.668237
532.220098	47327.136207
532.581396	47109.207126
532.942638	46806.135478
533.303824	47171.485541
533.664953	47184.428703
534.026025	46954.468909
534.387040	47470.073083
534.747999	47448.685988
535.108902	47655.385899
535.469748	47193.001186
535.830537	47329.243409
536.191270	47564.531703
536.551947	47265.072042
536.912567	47599.020757
537.273131	47750.860311
537.633638	47258.979807
537.994089	47627.241137
538.354483	47223.275835
538.714821	47851.214561
539.075103	48221.986385
539.435328	47994.736211
539.795497	47882.373933
540.155609	47903.642561
540.515665	48392.173218
540.875665	47833.084051
541.235609	48198.456800
541.595496	48172.517542
541.955328	48896.896062
542.315102	48245.636958
542.674821	48033.918579
543.034483	48091.226416
543.394090	48081.184438
543.753640	48050.677895
544.113134	49059.740455
544.472571	48066.078620
544.831953	49335.862095
545.191278	48535.994817
545.550548	48262.456768
545.909761	48749.782590
546.268918	48950.680132
546.628019	49266.616806
546.987064	48828.530454
547.346053	48080.592102
547.704986	48990.895937
548.063863	48544.844563
548.422684	48725.264938
548.781449	48565.041946
549.140158	48976.082507
549.498811	48832.883491
549.857408	48241.349457
550.215949	49103.041446
550.574434	49049.869876
550.932864	48800.504159
551.291237	49515.866575
551.649555	49122.245721
552.007817	49367.981807
552.366022	48998.858440
552.724173	49171.659111
553.082267	49582.092213
553.440305	49847.342605
553.798288	49159.250311
554.156215	49472.336212
554.514086	49680.871103
554.871902	49435.192990
555.229661	49450.276123
555.587365	49259.710425
555.945014	49364.621878
556.302606	49287.270413
556.660143	49524.121465
557.017625	49596.073854
557.375050	49363.109532
557.732421	49724.076312
558.089735	49706.661646
558.446994	49611.376276
558.804197	50083.389593
559.161345	50002.534527
559.518437	49246.956306
559.875474	49565.456406
560.232455	49729.508155
560.589381	49913.563202
560.946251	49598.836406
561.303065	50278.252874
561.659825	50055.438916
562.016528	49717.588347
562.373177	49441.280184
562.729770	49920.847670
563.086307	49427.686712
563.442789	49884.236290
563.799216	49917.424726
564.155587	49706.674248
564.511904	49739.348487
564.868164	49808.951698
565.224370	50033.865298
565.580520	49774.182860
565.936615	49995.698722
566.292654	49698.104287
566.648638	49954.179779
567.004567	49903.685061
567.360441	49947.464962
567.716260	49804.533127
568.072023	50081.184088
568.427732	50047.385672
568.783385	49583.087841
569.138982	49968.118569
569.494525	49924.111817
569.850013	49678.789106
570.205445	49664.116828
570.560823	49605.460482
570.916145	49472.784875
571.271412	49502.200007
571.626625	49240.866592
571.981782	49262.619171
572.336884	48953.878745
572.691931	49270.127969
573.046923	48874.409995
573.401860	48707.129387
573.756743	48679.501344
574.111570	48777.377866
574.466342	48623.040421
574.821059	48717.592302
575.175722	48227.690451
575.530330	48257.065254
575.884882	47943.424827
576.239380	47890.840551
576.593823	47862.380717
576.948211	47787.257442
577.302544	47298.068914
577.656823	47303.354564
578.011047	47532.076755
578.365216	47244.781397
578.719330	47022.494239
579.073389	46860.509363
579.427394	46931.687935
579.781344	46887.540030
580.135239	46536.474076
580.489080	46597.575381
580.842866	46073.222285
581.196597	46511.091867
581.550273	46440.762729
581.903895	46311.870508
582.257463	46718.240440
582.610975	46079.276710
582.964434	46363.542335
583.317837	45982.438666
583.671186	45810.862994
584.024481	46022.871240
584.377721	45538.675975
584.730906	45825.063925
585.084037	45872.405401
585.437113	45563.024748
585.790135	45589.435353
586.143103	45169.587896
586.496016	45275.542868
586.848874	45304.022866
587.201679	45310.372199
587.554428	44780.582218
587.907124	44952.719978
588.259765	44717.151900
588.612352	44944.971725
588.964884	44328.831819
589.317362	44607.716012
589.669786	44547.970777
590.022155	44296.475173
590.374470	44720.726078
590.726731	44232.762550
591.078937	43730.305705
591.431090	43835.370913
591.783188	43480.370339
592.135232	43140.082372
592.487222	43397.796239
592.839157	43486.507944
593.191038	43133.770847
593.542866	42879.278278
593.894639	42255.677465
594.246358	42543.723954
594.598022	42526.455482
594.949633	42114.056330
595.301190	42057.711353
595.652692	41891.242371
596.004141	42210.339847
596.355535	41228.166802
596.706876	41164.620538
597.058162	40992.008909
597.409395	41461.297483
597.760573	41540.516695
598.111698	41124.419856
598.462768	41139.792855
598.813785	41161.754642
599.164748	40598.854362
599.515657	40985.468012
599.866511	40466.118261
600.217312	41070.933214
600.568060	40050.003778
600.918753	40786.095419
601.269392	40725.445297
601.619978	40378.228264
601.970510	40591.189288
602.320988	40784.207507
602.671412	41084.395615
603.021783	40829.086379
603.372100	40466.881996
603.722363	40570.633983
604.072572	40650.621971
604.422728	40657.041880
604.772830	40469.354682
605.122878	40576.406104
605.472872	40502.517912
605.822813	40776.668461
606.172701	40597.954516
606.522534	40851.222085
606.872314	41105.850766
607.222041	40851.620337
607.571714	41248.623805
607.921333	40689.915245
608.270899	40968.018058
608.620411	41313.813486
608.969870	41095.685279
609.319276	41107.398400
609.668627	41149.280307
610.017926	41643.794814
610.367171	41782.597944
610.716362	41885.566032
611.065500	41801.898001
611.414585	41984.531443
611.763616	42285.437916
612.112594	42219.837381
612.461518	42457.482415
612.810389	42748.344389
613.159207	42611.424130
613.507971	42681.130685
613.856682	43157.754137
614.205340	43046.717682
614.553945	43754.568779
614.902496	43190.352758
615.250994	43663.961600
615.599439	43709.228641
615.947830	43934.691726
616.296169	43993.869831
616.644454	44114.736536
616.992686	44272.958191
617.340864	44789.527746
617.688990	44478.130632
618.037063	45109.396519
618.385082	45068.686681
618.733048	45351.795361
619.080961	45363.090066
619.428821	45389.568726
619.776628	45489.131515
620.124382	45335.005798
620.472083	45466.789121
620.819731	45589.372338
621.167326	45265.122803
621.514868	45253.422284
621.862357	44808.432073
622.209793	44848.690727
622.557176	44503.868242
622.904506	44244.523562
623.251783	43898.105552
623.599007	43677.587839
623.946179	43461.960045
624.293297	43417.398766
624.640363	42801.604179
624.987376	42788.182107
625.334336	42560.775657
625.681243	42184.062833
626.028097	42151.320539
626.374899	41998.006447
626.721647	41987.546053
627.068343	41870.631613
627.414987	41616.902778
627.761577	41398.313307
628.108115	41746.853642
628.454600	41154.616368
628.801032	41367.660571
629.147412	41307.093628
629.493739	41293.200208
629.840014	40955.969701
630.186236	41299.385703
630.532405	40868.704807
630.878521	41082.545512
631.224585	40952.105656
631.570597	40663.484475
631.916556	40820.609679
632.262462	40763.947109
632.608316	40792.187653
632.954117	40692.566892
633.299866	40662.632520
633.645562	40601.188416
633.991206	40111.946956
634.336797	39658.210343
634.682336	39656.657667
635.027823	39418.810987
635.373257	39238.004964
635.718639	38979.716405
636.063968	38843.413687
636.409245	38266.262066
636.754470	38324.202568
637.099642	38072.515400
637.444762	37577.879905
637.789829	37726.896413
