Dividing Wavelength (nm)	Counts (n)	Blue Motor Position (mm): 17.000000	Red Motor Position (mm): 0.000000	
326.493990	2058.396377
326.888308	2058.396377
327.282561	2058.396377
327.676750	2035.512059
328.070874	2037.246216
328.464933	2042.920034
328.858929	2054.010573
329.252859	2063.203117
329.646726	2077.036043
330.040528	2093.008939
330.434265	2111.744387
330.827938	2134.227933
331.221547	2153.278454
331.615091	2172.949036
332.008571	2190.845132
332.401986	2210.855993
332.795338	2234.103273
333.188625	2254.232601
333.581847	2270.707092
333.975006	2288.003290
334.368100	2307.802422
334.761129	2324.561738
335.154095	2339.017247
335.546996	2385.070708
335.939833	2469.888121
336.332606	2480.219966
336.725315	2493.334528
337.117960	2503.608399
337.510540	2512.977384
337.903056	2522.059022
338.295508	2526.860721
338.687896	2533.159643
339.080220	2541.936292
339.472480	2545.843186
339.864676	2547.156407
340.256807	2550.430636
340.648875	2550.964998
341.040879	2553.951882
341.432818	2556.469938
341.824694	2555.123950
342.216506	2556.593447
342.608253	2556.268292
342.999937	2553.573796
343.391557	2554.382901
343.783113	2551.007848
344.174605	2549.550955
344.566033	2547.416026
344.957397	2546.004503
345.348697	2545.510470
345.739934	2542.959646
346.131106	2540.902855
346.522215	2538.730118
346.913260	2539.629964
347.304241	2538.369676
347.695159	2534.535878
348.086012	2534.382123
348.476802	2531.397760
348.867528	2530.649148
349.258191	2523.480628
349.648789	2529.837523
350.039324	2521.423837
350.429796	2529.444313
350.820203	2525.638242
351.210548	2526.596061
351.600828	2523.825947
351.991045	2522.298477
352.381198	2520.438291
352.771288	2524.398118
353.161314	2520.955010
353.551276	2524.052799
353.941175	2518.976357
354.331010	2521.655730
354.720782	2521.877541
355.110490	2527.095135
355.500135	2522.454753
355.889717	2519.505678
356.279235	2523.399969
356.668689	2519.966943
357.058080	2524.554393
357.447408	2523.253776
357.836672	2522.837881
358.225873	2523.725124
358.615010	2523.344517
359.004084	2523.994825
359.393095	2526.147398
359.782043	2526.409538
360.170927	2525.706297
360.559748	2527.657224
360.948505	2529.865249
361.337199	2530.651669
361.725830	2531.932122
362.114398	2529.479601
362.502903	2530.339118
362.891344	2530.518078
363.279722	2527.526154
363.668037	2534.871115
364.056289	2531.659900
364.444478	2531.407842
364.832603	2532.847092
365.220665	2532.955476
365.608665	2534.220806
365.996601	2533.089067
366.384474	2533.751979
366.772284	2532.859694
367.160031	2533.744417
367.547715	2533.212575
367.935336	2534.180477
368.322893	2531.899355
368.710388	2532.148892
369.097820	2535.657535
369.485189	2532.330373
369.872495	2537.817669
370.259738	2534.293903
370.646918	2537.235416
371.034035	2535.947401
371.421090	2534.644263
371.808081	2537.961342
372.195010	2538.135262
372.581875	2536.690971
372.968678	2536.683410
373.355418	2539.614841
373.742096	2538.281455
374.128710	2538.765406
374.515262	2540.141641
374.901751	2540.368493
375.288177	2538.084850
375.674540	2540.665921
376.060841	2540.086188
376.447079	2537.807587
376.833254	2541.906045
377.219367	2538.936805
377.605417	2540.630633
377.991404	2542.478216
378.377329	2538.460416
378.763191	2539.801363
379.148991	2544.335881
379.534727	2542.727753
379.920402	2545.785213
380.306013	2542.087527
380.691563	2545.031560
381.077049	2543.272198
381.462474	2541.701878
381.847835	2545.018958
382.233134	2543.597352
382.618371	2543.453679
383.003545	2545.825542
383.388657	2544.038453
383.773706	2545.611293
384.158693	2543.458720
384.543618	2546.987528
384.928480	2545.510470
385.313280	2547.869730
385.698017	2549.291335
386.082692	2547.481561
386.467305	2547.226983
386.851856	2548.845193
387.236344	2547.070707
387.620770	2545.901159
388.005133	2542.684903
388.389435	2545.550799
388.773674	2542.813453
389.157851	2547.758825
389.541965	2552.157231
389.926018	2552.091696
390.310008	2550.458363
390.693936	2548.270502
391.077802	2550.070194
391.461606	2552.104299
391.845348	2550.337375
392.229027	2549.871068
392.612645	2551.406099
392.996200	2549.452652
393.379694	2552.386604
393.763125	2546.226314
394.146494	2551.025492
394.529801	2552.850390
394.913047	2551.350647
395.296230	2552.026161
395.679351	2551.602704
396.062410	2549.805533
396.445408	2551.166645
396.828343	2554.708055
397.211217	2553.155380
397.594028	2553.810730
397.976778	2553.185627
398.359466	2549.374514
398.742092	2554.854249
399.124656	2550.990204
399.507158	2553.586398
399.889598	2556.311142
400.271977	2552.537838
400.654294	2554.587067
401.036549	2553.004145
401.418742	2553.851059
401.800874	2553.228477
402.182944	2557.067315
402.564952	2557.483210
402.946898	2555.713765
403.328783	2556.502706
403.710606	2557.863817
404.092367	2555.852397
404.474067	2554.264434
404.855705	2555.615463
405.237282	2555.249979
405.618797	2555.373488
406.000250	2558.453632
406.381642	2557.105124
406.762972	2554.665205
407.144240	2555.179403
407.525447	2555.408776
407.906593	2553.387273
408.287677	2558.511606
408.668700	2558.350289
409.049661	2561.957234
409.430560	2558.183931
409.811399	2559.759291
410.192176	2562.088304
410.572891	2555.733930
410.953545	2561.256514
411.334138	2561.601833
411.714669	2559.272820
412.095139	2563.000753
412.475547	2558.448591
412.855894	2559.020762
413.236180	2561.591751
413.616405	2560.500341
413.996568	2559.424055
414.376670	2562.670558
414.756711	2557.367264
415.136691	2559.008159
415.516609	2563.051165
415.896466	2561.942111
416.276262	2564.266083
416.655997	2563.053685
417.035670	2560.454971
417.415283	2565.569221
417.794834	2561.329611
418.174324	2563.333469
418.553753	2560.437327
418.933121	2561.349775
419.312428	2562.151319
419.691674	2560.601164
420.070859	2562.247101
420.449983	2560.472615
420.829045	2563.671227
421.208047	2560.376833
421.586988	2560.848181
421.965867	2564.112328
422.344686	2563.945970
422.723444	2561.838767
423.102141	2564.734910
423.480777	2559.033365
423.859352	2563.202399
424.237866	2562.264745
424.616319	2559.918088
424.994712	2563.399004
425.373044	2561.959755
425.751314	2558.786349
426.129524	2560.291133
426.507673	2559.741647
426.885762	2557.952038
427.263789	2560.039075
427.641756	2561.836247
428.019662	2562.698284
428.397508	2559.454302
428.775292	2562.428582
429.153016	2562.816751
429.530679	2563.431772
429.908282	2565.097873
430.285824	2563.005794
430.663305	2563.628377
431.040726	2563.983778
431.418086	2563.777091
431.795385	2567.371434
432.172624	2561.558983
432.549802	2564.828172
432.926920	2560.606205
433.303977	2564.117369
433.680974	2560.923798
434.057910	2564.321536
434.434786	2562.819272
434.811601	2564.510579
435.188355	2563.666186
435.565050	2561.788356
435.941683	2563.091494
436.318257	2566.837071
436.694770	2563.835064
437.071222	2563.847667
437.447614	2563.605692
437.823946	2563.411607
438.200218	2561.216185
438.576429	2562.426062
438.952580	2562.141237
439.328670	2562.710887
439.704700	2562.715928
440.080670	2564.064437
440.456580	2563.653583
440.832429	2566.670713
441.208218	2566.401012
441.583947	2565.223902
441.959616	2564.790363
442.335224	2563.169632
442.710773	2563.938408
443.086261	2565.354972
443.461689	2562.660475
443.837057	2568.208265
444.212365	2564.825651
444.587612	2562.060578
444.962800	2558.466235
445.337927	2565.725497
445.712995	2558.592264
446.088002	2563.749365
446.462949	2563.094015
446.837837	2567.348748
447.212664	2565.060065
447.587431	2567.336146
447.962139	2565.687688
448.336786	2564.911351
448.711374	2564.878583
449.085901	2564.442523
449.460369	2567.245405
449.834776	2566.514437
450.209124	2565.952349
450.583412	2571.089285
450.957640	2566.476629
451.331808	2566.582493
451.705917	2566.824468
452.079965	2565.312122
452.453954	2565.594427
452.827883	2566.648028
453.201752	2567.739438
453.575562	2566.549726
453.949311	2566.819427
454.323001	2568.871177
454.696632	2568.225909
455.070202	2568.437638
455.443713	2568.906465
455.817164	2566.912689
456.190556	2564.825651
456.563888	2567.547874
456.937160	2565.128120
457.310373	2567.076526
457.683526	2571.351425
458.056619	2568.183059
458.429653	2566.378326
458.802628	2570.653225
459.175542	2566.690878
459.548398	2569.975190
459.921194	2570.348235
460.293930	2573.030129
460.666607	2569.758420
461.039224	2569.455951
461.411782	2573.330078
461.784280	2570.139027
462.156719	2570.862433
462.529099	2574.323185
462.901419	2571.535427
463.273680	2568.956877
463.645882	2564.722307
464.018024	2568.324212
464.390106	2565.415466
464.762130	2574.424008
465.134094	2572.384861
465.505999	2572.397464
465.877845	2572.079871
466.249631	2574.169430
466.621358	2572.195818
466.993026	2577.085737
467.364634	2578.343505
467.736184	2576.143041
468.107674	2573.002402
468.479105	2575.759914
468.850477	2575.207907
469.221790	2572.273956
469.593043	2570.330591
469.964238	2574.822259
470.335373	2574.113977
470.706449	2572.848647
471.077467	2573.277145
471.448425	2575.344018
471.819324	2579.490367
472.190164	2575.893504
472.560945	2578.018351
472.931667	2575.946436
473.302330	2575.694379
473.672934	2575.444842
474.043479	2577.007599
474.413965	2576.957188
474.784393	2576.785788
475.154761	2576.967270
475.525070	2578.393917
475.895321	2576.866447
476.265513	2576.231262
476.635645	2578.956005
477.005719	2578.915676
477.375734	2579.344174
477.745691	2579.472723
478.115588	2581.516911
478.485427	2583.193095
478.855207	2581.678228
479.224928	2584.465986
479.594591	2583.208218
479.964194	2587.042016
480.333739	2587.493199
480.703226	2589.229877
481.072653	2591.732810
481.442022	2588.912284
481.811333	2588.004876
482.180584	2585.559917
482.549777	2588.579568
482.918912	2585.673343
483.287988	2592.756164
483.657005	2591.117789
484.025964	2592.872110
484.394864	2592.438571
484.763706	2591.805906
485.132489	2591.145515
485.501213	2593.293047
485.869879	2595.223809
486.238487	2596.516865
486.607036	2595.571648
486.975527	2597.109200
487.343959	2595.967379
487.712333	2597.101638
488.080648	2598.437544
488.448905	2601.983996
488.817104	2599.332349
489.185244	2603.229161
489.553326	2602.377206
489.921350	2606.669748
490.289315	2610.231324
490.657222	2613.470265
491.025070	2613.901284
491.392861	2616.507560
491.760593	2613.523197
492.128267	2614.665018
492.495883	2613.631582
492.863440	2615.332971
493.230939	2612.953547
493.598380	2614.954885
493.965763	2611.831890
494.333088	2615.474124
494.700354	2612.159565
495.067563	2617.054525
495.434713	2619.010493
495.801805	2616.966305
496.168839	2620.293467
496.535815	2619.799434
496.902733	2622.254476
497.269593	2622.798920
497.636395	2620.467387
498.003139	2623.494599
498.369825	2627.041051
498.736453	2626.524333
499.103023	2627.467029
499.469535	2628.865949
499.835989	2631.026083
500.202385	2626.836884
500.568723	2628.238325
500.935003	2628.941566
501.301226	2627.804786
501.667390	2636.057155
502.033497	2638.537402
502.399546	2639.059162
502.765537	2641.667959
503.131470	2639.679224
503.497345	2643.235758
503.863163	2643.825573
504.228923	2647.087199
504.594625	2648.176089
504.960269	2646.888074
505.325856	2649.751449
505.691385	2649.940492
506.056856	2654.777480
506.422270	2657.759322
506.787625	2658.092038
507.152924	2659.632111
507.518164	2663.569252
507.883347	2665.510096
508.248472	2664.320384
508.613540	2669.046466
508.978550	2675.655418
509.343503	2673.535613
509.708398	2677.649195
510.073236	2685.152952
510.438016	2687.698735
510.802738	2688.391893
511.167403	2689.987419
511.532010	2696.520754
511.896561	2704.039635
512.261053	2708.619523
512.625488	2709.191694
512.989866	2715.848538
513.354186	2718.222921
513.718449	2722.384394
514.082655	2733.777402
514.446803	2736.728997
514.810894	2746.773496
515.174927	2752.081831
515.538904	2753.919332
515.902822	2766.668410
516.266684	2772.523710
516.630488	2779.089813
516.994235	2788.723458
517.357925	2798.672175
517.721558	2809.871098
518.085133	2822.501709
518.448651	2829.067812
518.812112	2834.968483
519.175516	2848.186388
519.538863	2860.985878
519.902152	2874.697816
520.265385	2894.403687
520.628560	2907.422466
520.991678	2916.027716
521.354739	2932.973555
521.717743	2952.235803
522.080690	2967.230716
522.443580	2989.686535
522.806413	3004.956190
523.169189	3023.709283
523.531908	3045.623178
523.894569	3062.765622
524.257174	3082.685742
524.619722	3107.402519
524.982213	3131.458905
525.344647	3153.937410
525.707025	3177.212417
526.069345	3208.076882
526.431608	3228.790983
526.793815	3265.616612
527.155964	3284.392389
527.518057	3312.842141
527.880093	3341.196111
528.242072	3381.913510
528.603995	3408.135072
528.965860	3438.261008
529.327669	3472.472798
529.689421	3511.236751
530.051117	3543.976524
530.412755	3585.540838
530.774337	3624.493833
531.135862	3662.088238
531.497331	3707.461143
531.858743	3748.685179
532.220098	3804.145433
532.581396	3838.027028
532.942638	3873.272255
533.303824	3929.786110
533.664953	3980.837875
534.026025	4014.424563
534.387040	4084.713371
534.747999	4137.832009
535.108902	4199.848284
535.469748	4234.070157
535.830537	4291.930000
536.191270	4360.955999
536.551947	4405.933173
536.912567	4474.883555
537.273131	4541.671282
537.633638	4588.735494
537.994089	4663.568902
538.354483	4713.892221
538.714821	4808.053413
539.075103	4894.610024
539.435328	4955.560095
539.795497	5016.313561
540.155609	5085.568932
540.515665	5196.789389
540.875665	5230.232403
541.235609	5321.104243
541.595496	5408.976595
541.955328	5519.594634
542.315102	5563.102312
542.674821	5636.037726
543.034483	5711.758378
543.394090	5792.646212
543.753640	5876.750302
544.113134	6049.830758
544.472571	6066.519497
544.831953	6244.003401
545.191278	6290.588703
545.550548	6345.325552
545.909761	6499.262226
546.268918	6609.275326
546.628019	6746.734989
546.987064	6802.462424
547.346053	6822.692574
547.704986	7019.862183
548.063863	7093.200890
548.422684	7222.496403
548.781449	7289.652134
549.140158	7458.319060
549.498811	7544.479941
549.857408	7590.556087
550.215949	7805.427708
550.574434	7905.166937
550.932864	8023.117334
551.291237	8232.990651
551.649555	8324.384249
552.007817	8472.876477
552.366022	8564.186897
552.724173	8700.300571
553.082267	8884.839569
553.440305	9073.124145
553.798288	9097.946787
554.156215	9292.328638
554.514086	9457.907856
554.871902	9537.308550
555.229661	9709.625271
555.587365	9810.062699
555.945014	9978.167536
556.302606	10125.001224
556.660143	10294.028592
557.017625	10484.105298
557.375050	10583.171533
557.732421	10821.030815
558.089735	10979.486883
558.446994	11118.307658
558.804197	11371.789476
559.161345	11510.403563
559.518437	11528.917200
559.875474	11748.300654
560.232455	11966.023047
560.589381	12152.848209
560.946251	12273.878751
561.303065	12611.804937
561.659825	12726.302144
562.016528	12855.136392
562.373177	12937.584463
562.729770	13267.898507
563.086307	13334.966018
563.442789	13649.927228
563.799216	13798.202686
564.155587	13962.665289
564.511904	14135.823883
564.868164	14341.374410
565.224370	14613.306852
565.580520	14731.834461
565.936615	14980.461648
566.292654	15075.270628
566.648638	15375.904879
567.004567	15558.611418
567.360441	15788.271264
567.716260	15902.009777
568.072023	16210.828341
568.427732	16401.391518
568.783385	16449.131245
569.138982	16793.258050
569.494525	17044.899848
569.850013	17116.569932
570.205445	17363.226028
570.560823	17496.776275
570.916145	17669.690373
571.271412	17963.206514
571.626625	18061.077996
571.981782	18304.374163
572.336884	18362.160909
572.691931	18697.914358
573.046923	18778.398900
573.401860	18927.052445
573.756743	19146.130908
574.111570	19415.784748
574.466342	19595.708570
574.821059	19879.089472
575.175722	19879.149966
575.530330	20128.913933
575.884882	20195.041269
576.239380	20359.612257
576.593823	20606.477560
576.948211	20803.334618
577.302544	20811.259312
577.656823	21015.662977
578.011047	21335.186431
578.365216	21477.561219
578.719330	21552.550903
579.073389	21758.197212
579.427394	21981.981593
579.781344	22176.975944
580.135239	22256.137183
580.489080	22496.393534
580.842866	22450.531637
581.196597	22912.906268
581.550273	23111.207616
581.903895	23285.949132
582.257463	23722.210586
582.610975	23639.538183
582.964434	24028.213666
583.317837	23965.416012
583.671186	24145.173476
584.024481	24495.490818
584.377721	24454.934736
584.730906	24773.714620
585.084037	25041.694797
585.437113	25082.875982
585.790135	25360.895617
586.143103	25300.121987
586.496016	25592.476142
586.848874	25859.513623
587.201679	26074.725522
587.554428	25973.882281
587.907124	26343.774423
588.259765	26389.863172
588.612352	26676.825814
588.964884	26543.366307
589.317362	26913.213080
589.669786	27092.015245
590.022155	27206.031021
590.374470	27672.317588
590.726731	27597.252286
591.078937	27370.738120
591.431090	27758.879240
591.783188	27656.790834
592.135232	27705.311939
592.487222	28081.545854
592.839157	28350.879580
593.191038	28293.798595
593.542866	28348.416977
593.894639	28132.171641
594.246358	28508.516461
594.598022	28663.237034
594.949633	28554.764007
595.301190	28727.980573
595.652692	28843.871659
596.004141	29348.039976
596.355535	28756.057280
596.706876	28938.746174
597.058162	28897.257478
597.409395	29417.476829
597.760573	29722.708612
598.111698	29597.725805
598.462768	29697.283553
598.813785	29863.278666
599.164748	29732.196063
599.515657	30079.876883
599.866511	29874.918691
600.217312	30527.440603
600.568060	29888.434024
600.918753	30647.349489
601.269392	30726.293958
601.619978	30667.262046
601.970510	30954.312908
602.320988	31200.331298
602.671412	31539.225386
603.021783	31571.624882
603.372100	31375.314789
603.722363	31596.591196
604.072572	31746.053846
604.422728	31880.942520
604.772830	31856.752543
605.122878	32093.810282
605.472872	32117.541514
605.822813	32449.710703
606.172701	32383.341392
606.522534	32753.609101
606.872314	33058.498085
607.222041	33040.760785
607.571714	33421.922428
607.921333	33120.100985
608.270899	33412.561005
608.620411	33854.584498
608.969870	33743.124586
609.319276	33863.346023
609.668627	34010.948487
610.017926	34467.510668
610.367171	34670.429713
610.716362	34803.710259
611.065500	34821.084595
611.414585	35109.879696
611.763616	35369.284870
612.112594	35377.461622
612.461518	35584.302685
612.810389	36014.050968
613.159207	35935.782013
613.507971	36021.612699
613.856682	36516.563266
614.205340	36495.498804
614.553945	37163.867584
614.902496	36671.447676
615.250994	37138.566033
615.599439	37286.536501
615.947830	37455.163097
616.296169	37561.294509
616.644454	37665.875766
616.992686	37881.064980
617.340864	38366.596151
617.688990	38019.739561
618.037063	38705.238181
618.385082	38620.229204
618.733048	39001.121144
619.080961	38971.438831
619.428821	39068.723018
619.776628	39157.868262
620.124382	39071.508255
620.472083	39246.131304
620.819731	39432.114593
621.167326	39122.171851
621.514868	39197.093480
621.862357	38812.304727
622.209793	38975.116352
622.557176	38646.775920
622.904506	38520.089203
623.251783	38271.958570
623.599007	38041.794609
623.946179	38045.888026
624.293297	37883.376349
624.640363	37466.551064
624.987376	37385.511995
625.334336	37279.504092
625.681243	36953.038968
626.028097	36945.232742
626.374899	36827.010122
626.721647	36879.803606
627.068343	36733.111070
627.414987	36508.416761
627.761577	36340.022058
628.108115	36703.733746
628.454600	36063.010654
628.801032	36321.382392
629.147412	36275.369260
629.493739	36254.829078
629.840014	35878.784207
630.186236	36309.298746
630.532405	35852.217327
630.878521	36100.985666
631.224585	35936.155059
631.570597	35676.281057
631.916556	35867.940685
632.262462	35791.116021
632.608316	35761.960508
632.954117	35676.999422
633.299866	35695.119849
633.645562	35662.760683
633.991206	35204.066094
634.336797	34854.741859
634.682336	34806.530784
635.027823	34632.835308
635.373257	34544.219385
635.718639	34270.547746
636.063968	34211.039445
636.409245	33637.262876
636.754470	33641.265552
637.099642	33459.975578
637.444762	32957.551500
637.789829	33123.534011
638.134845	32800.217088
638.479808	32742.145517
638.824719	32725.000552
639.169577	32273.557664
639.514383	32407.680082
639.859137	32060.881465
640.203839	32242.957860
640.548489	31991.779849
640.893086	32027.869469
