Dividing Wavelength (nm)	Counts (n)	Blue Motor Position (mm): 5.000000	Red Motor Position (mm): 0.000000	
326.493990	2158.206182
326.888308	2158.206182
327.282561	2158.206182
327.676750	2135.034518
328.070874	2138.528038
328.464933	2142.520632
328.858929	2149.941210
329.252859	2161.629125
329.646726	2176.250992
330.040528	2188.473269
330.434265	2209.704089
330.827938	2228.605895
331.221547	2247.631210
331.615091	2268.983017
332.008571	2288.580503
332.401986	2309.150931
332.795338	2326.368992
333.188625	2350.231293
333.581847	2366.569673
333.975006	2386.572972
334.368100	2408.050807
334.761129	2423.537232
335.154095	2439.658842
335.546996	2455.664506
335.939833	2470.840899
336.332606	2482.629638
336.725315	2494.975423
337.117960	2502.174191
337.510540	2512.642147
337.903056	2519.283867
338.295508	2528.925074
338.687896	2533.837678
339.080220	2541.837989
339.472480	2546.526262
339.864676	2551.242262
340.256807	2554.413148
340.648875	2557.589075
341.040879	2559.078736
341.432818	2557.596636
341.824694	2558.771225
342.216506	2559.615618
342.608253	2561.720300
342.999937	2561.286761
343.391557	2558.120916
343.783113	2555.428940
344.174605	2556.207798
344.566033	2555.302911
344.957397	2555.436502
345.348697	2550.723023
345.739934	2549.218239
346.131106	2547.065666
346.522215	2544.421581
346.913260	2544.494677
347.304241	2544.978628
347.695159	2540.842362
348.086012	2539.115766
348.476802	2536.690971
348.867528	2536.141486
349.258191	2535.965045
349.648789	2533.923378
350.039324	2532.910106
350.429796	2531.780888
350.820203	2532.123686
351.210548	2530.855836
351.600828	2529.928263
351.991045	2531.473377
352.381198	2531.138140
352.771288	2528.060516
353.161314	2530.966741
353.551276	2524.728313
353.941175	2529.666123
354.331010	2530.482790
354.720782	2527.788294
355.110490	2527.735362
355.500135	2529.656041
355.889717	2528.264683
356.279235	2527.523633
356.668689	2528.728469
357.058080	2535.216434
357.447408	2530.288706
357.836672	2528.229395
358.225873	2530.533202
358.615010	2527.760567
359.004084	2534.606454
359.393095	2532.650487
359.782043	2532.935312
360.170927	2534.624098
360.559748	2535.231557
360.948505	2534.208203
361.337199	2535.828934
361.725830	2537.447144
362.114398	2536.912782
362.502903	2535.007226
362.891344	2538.397402
363.279722	2538.357073
363.668037	2538.190715
364.056289	2541.069213
364.444478	2538.304141
364.832603	2539.193904
365.220665	2539.546785
365.608665	2539.294727
365.996601	2539.070396
366.384474	2538.609130
366.772284	2541.527958
367.160031	2541.384286
367.547715	2540.348328
367.935336	2540.237423
368.322893	2542.705068
368.710388	2542.790767
369.097820	2544.582898
369.485189	2542.861344
369.872495	2544.482075
370.259738	2540.330684
370.646918	2541.590973
371.034035	2544.769420
371.421090	2542.851261
371.808081	2542.931920
372.195010	2545.341591
372.581875	2546.130532
372.968678	2546.808567
373.355418	2543.620037
373.742096	2547.063145
374.128710	2544.787064
374.515262	2544.827394
374.901751	2545.006355
375.288177	2547.169010
375.674540	2546.211190
376.060841	2548.681356
376.447079	2546.538865
376.833254	2546.649771
377.219367	2543.052908
377.605417	2546.543907
377.991404	2545.233207
378.377329	2545.225645
378.763191	2543.683052
379.148991	2548.177240
379.534727	2548.298228
379.920402	2548.489792
380.306013	2548.252858
380.691563	2550.221428
381.077049	2549.117416
381.462474	2550.395348
381.847835	2550.050029
382.233134	2548.298228
382.618371	2549.205636
383.003545	2551.012889
383.388657	2549.755122
383.773706	2550.110523
384.158693	2551.718651
384.543618	2552.280740
384.928480	2550.002138
385.313280	2551.897612
385.698017	2551.678322
386.082692	2553.137736
386.467305	2553.349464
386.851856	2554.181255
387.236344	2554.582026
387.620770	2553.198230
388.005133	2552.777293
388.389435	2553.331820
388.773674	2552.860472
389.157851	2554.153528
389.541965	2554.738302
389.926018	2556.530432
390.310008	2552.109340
390.693936	2554.687891
391.077802	2554.024979
391.461606	2555.562531
391.845348	2554.609753
392.229027	2554.324927
392.612645	2555.925494
392.996200	2557.150494
393.379694	2555.161759
393.763125	2557.435319
394.146494	2555.988508
394.529801	2558.083108
394.913047	2556.711914
395.296230	2558.473797
395.679351	2554.662685
396.062410	2556.474980
396.445408	2558.867007
396.828343	2556.928683
397.211217	2552.568085
397.594028	2555.713765
397.976778	2555.466749
398.359466	2556.490103
398.742092	2554.778631
399.124656	2559.711400
399.507158	2557.432799
399.889598	2558.909857
400.271977	2558.977913
400.654294	2558.418344
401.036549	2558.239383
401.418742	2558.803993
401.800874	2558.924980
402.182944	2560.601164
402.564952	2560.449929
402.946898	2563.716597
403.328783	2560.152501
403.710606	2563.346072
404.092367	2560.520506
404.474067	2562.912533
404.855705	2560.921277
405.237282	2562.526885
405.618797	2560.654096
406.000250	2562.572255
406.381642	2560.563355
406.762972	2561.611915
407.144240	2563.469581
407.525447	2562.791545
407.906593	2562.967986
408.287677	2563.328428
408.668700	2560.933880
409.049661	2560.616288
409.430560	2564.203068
409.811399	2560.762481
410.192176	2561.760629
410.572891	2560.212995
410.953545	2563.646021
411.334138	2564.109807
411.714669	2563.099056
412.095139	2562.552091
412.475547	2565.564180
412.855894	2564.568552
413.236180	2563.487225
413.616405	2564.984447
413.996568	2567.242884
414.376670	2565.788511
414.756711	2562.804148
415.136691	2565.680127
415.516609	2565.039900
415.896466	2564.550908
416.276262	2564.167780
416.655997	2561.818603
417.035670	2563.217523
417.415283	2563.646021
417.794834	2562.753737
418.174324	2561.430434
418.553753	2566.516958
418.933121	2567.976372
419.312428	2566.708522
419.691674	2566.285065
420.070859	2569.130796
420.449983	2565.498645
420.829045	2567.618450
421.208047	2568.409911
421.586988	2568.495611
421.965867	2566.249777
422.344686	2567.633574
422.723444	2569.282031
423.102141	2567.643656
423.480777	2568.241033
423.859352	2568.223389
424.237866	2569.977710
424.616319	2567.227761
424.994712	2570.570046
425.373044	2567.996537
425.751314	2570.103739
426.129524	2569.438307
426.507673	2571.747155
426.885762	2571.081723
427.263789	2571.200190
427.641756	2568.447720
428.019662	2570.706157
428.397508	2571.220355
428.775292	2570.907803
429.153016	2567.850343
429.530679	2570.217165
429.908282	2568.122566
430.285824	2569.271949
430.663305	2572.163050
431.040726	2570.302865
431.418086	2571.691703
431.795385	2570.890159
432.172624	2569.309757
432.549802	2571.774882
432.926920	2571.895869
433.303977	2573.052814
433.680974	2573.312433
434.057910	2570.562484
434.434786	2571.167422
434.811601	2572.944429
435.188355	2568.961918
435.565050	2570.844789
435.941683	2573.052814
436.318257	2571.273287
436.694770	2568.099880
437.071222	2568.745148
437.447614	2568.188101
437.823946	2569.148440
438.200218	2573.380489
438.576429	2571.759758
438.952580	2570.847309
439.328670	2571.555591
439.704700	2572.248750
440.080670	2573.728329
440.456580	2573.524162
440.832429	2574.403843
441.208218	2573.773699
441.583947	2573.057855
441.959616	2573.085582
442.335224	2573.612382
442.710773	2573.211610
443.086261	2574.658422
443.461689	2573.506518
443.837057	2574.658422
444.212365	2575.850654
444.587612	2572.856209
444.962800	2575.583473
445.337927	2576.228741
445.712995	2572.757907
446.088002	2576.427867
446.462949	2575.170099
446.837837	2575.961560
447.212664	2577.163875
447.587431	2572.526013
447.962139	2574.910479
448.336786	2578.426684
448.711374	2577.736046
449.085901	2577.252095
449.460369	2575.979204
449.834776	2573.435942
450.209124	2573.914851
450.583412	2572.258832
450.957640	2576.480799
451.331808	2575.384348
451.705917	2574.446693
452.079965	2579.114802
452.453954	2577.670511
452.827883	2576.674883
453.201752	2575.996848
453.575562	2576.972311
453.949311	2576.591704
454.323001	2577.796540
454.696632	2574.602969
455.070202	2578.719071
455.443713	2575.470047
455.817164	2575.250757
456.190556	2575.991807
456.563888	2572.538616
456.937160	2573.193966
457.310373	2575.286045
457.683526	2578.945923
458.056619	2578.015830
458.429653	2577.163875
458.802628	2579.129925
459.175542	2577.884760
459.548398	2579.429874
459.921194	2576.473237
460.293930	2576.939544
460.666607	2578.648495
461.039224	2576.997517
461.411782	2579.450038
461.784280	2576.042218
462.156719	2577.978021
462.529099	2577.128587
462.901419	2579.281160
463.273680	2577.683114
463.645882	2579.979359
464.018024	2582.136973
464.390106	2577.980542
464.762130	2581.889957
465.134094	2581.196798
465.505999	2580.158320
465.877845	2579.659246
466.249631	2578.537589
466.621358	2576.299317
466.993026	2581.209401
467.364634	2582.920873
467.736184	2578.855182
468.107674	2579.381983
468.479105	2577.846951
468.850477	2578.560275
469.221790	2578.605645
469.593043	2579.492888
469.964238	2581.070769
470.335373	2579.359297
470.706449	2580.478434
471.077467	2579.046746
471.448425	2579.944071
471.819324	2579.238310
472.190164	2580.332240
472.560945	2578.378793
472.931667	2577.405850
473.302330	2578.467013
473.672934	2582.416757
474.043479	2578.835018
474.413965	2581.340471
474.784393	2577.574729
475.154761	2577.549523
475.525070	2575.926272
475.895321	2578.242682
476.265513	2577.882239
476.635645	2581.849628
477.005719	2580.312076
477.375734	2579.719740
477.745691	2578.376272
478.115588	2581.645461
478.485427	2580.569174
478.855207	2582.520101
479.224928	2582.368866
479.594591	2581.574885
479.964194	2582.774679
480.333739	2580.848958
480.703226	2581.133784
481.072653	2581.663105
481.442022	2580.304514
481.811333	2579.896180
482.180584	2580.901891
482.549777	2582.038671
482.918912	2579.439956
483.287988	2582.094123
483.657005	2582.905749
484.025964	2579.107240
484.394864	2581.559761
484.763706	2584.413054
485.132489	2580.175964
485.501213	2582.343661
485.869879	2579.860892
486.238487	2579.313927
486.607036	2581.693352
486.975527	2582.507498
487.343959	2579.737384
487.712333	2583.009093
488.080648	2579.354256
488.448905	2582.298290
488.817104	2583.891295
489.185244	2580.846438
489.553326	2581.942889
489.921350	2580.957343
490.289315	2583.329206
490.657222	2586.797520
491.025070	2582.489854
491.392861	2583.301480
491.760593	2582.058835
492.128267	2585.053281
492.495883	2580.884247
492.863440	2583.394741
493.230939	2583.727457
493.598380	2583.538414
493.965763	2580.072621
494.333088	2581.973136
494.700354	2581.514391
495.067563	2583.036819
495.434713	2581.867272
495.801805	2583.102354
496.168839	2583.125039
496.535815	2585.169227
496.902733	2582.729309
497.269593	2585.461614
497.636395	2583.482961
498.003139	2583.540935
498.369825	2580.972467
498.736453	2584.014803
499.103023	2585.295256
499.469535	2584.087900
499.835989	2584.937334
500.202385	2583.982036
500.568723	2583.649319
500.935003	2582.426840
501.301226	2583.656881
501.667390	2584.385328
502.033497	2586.363981
502.399546	2582.744432
502.765537	2583.926583
503.131470	2582.189905
503.497345	2584.261820
503.863163	2583.888774
504.228923	2583.926583
504.594625	2582.941037
504.960269	2585.496902
505.325856	2585.146542
505.691385	2581.768969
506.056856	2583.132601
506.422270	2583.820719
506.787625	2583.467838
507.152924	2584.266861
507.518164	2586.888261
507.883347	2584.150914
508.248472	2584.385328
508.613540	2584.478589
508.978550	2583.717375
509.343503	2583.825760
509.708398	2584.342478
510.073236	2584.730647
510.438016	2586.001018
510.802738	2585.270050
511.167403	2584.660071
511.532010	2585.017993
511.896561	2583.866089
512.261053	2585.569999
512.625488	2579.981880
512.989866	2579.765110
513.354186	2582.305852
513.718449	2582.600759
514.082655	2581.080852
514.446803	2583.576223
514.810894	2584.760894
515.174927	2588.188878
515.538904	2584.889443
515.902822	2586.235431
516.266684	2585.685946
516.630488	2584.498754
516.994235	2588.501430
517.357925	2585.527149
517.721558	2587.473035
518.085133	2585.174268
518.448651	2585.504464
518.812112	2583.853486
519.175516	2587.583940
519.538863	2583.576223
519.902152	2587.823395
520.265385	2583.997159
520.628560	2584.604618
520.991678	2584.128229
521.354739	2585.171748
521.717743	2585.171748
522.080690	2587.256265
522.443580	2585.774166
522.806413	2587.394897
523.169189	2584.740729
523.531908	2587.576378
523.894569	2583.886254
524.257174	2585.544793
524.619722	2586.411872
524.982213	2588.544280
525.344647	2586.784917
525.707025	2584.347519
526.069345	2588.077973
526.431608	2586.699217
526.793815	2586.802561
527.155964	2587.921697
527.518057	2585.504464
527.880093	2585.696028
528.242072	2586.704259
528.603995	2586.111923
528.965860	2585.542273
529.327669	2587.231059
529.689421	2585.524629
530.051117	2588.892119
530.412755	2583.367015
530.774337	2586.540421
531.135862	2585.043198
531.497331	2581.138825
531.858743	2583.233424
532.220098	2580.760738
532.581396	2583.883733
532.942638	2582.900708
533.303824	2587.049578
533.664953	2586.018662
534.026025	2586.396748
534.387040	2585.869948
534.747999	2588.476224
535.108902	2584.866758
535.469748	2585.476738
535.830537	2586.759711
536.191270	2586.280802
536.551947	2586.336254
536.912567	2587.924218
537.273131	2584.017324
537.633638	2589.159301
537.994089	2585.499423
538.354483	2585.111254
538.714821	2586.598394
539.075103	2586.991604
539.435328	2586.288363
539.795497	2586.056470
540.155609	2587.349526
540.515665	2589.008066
540.875665	2584.730647
541.235609	2586.371542
541.595496	2589.093766
541.955328	2587.878847
542.315102	2587.825915
542.674821	2582.469689
543.034483	2588.428333
543.394090	2587.296594
543.753640	2588.307346
544.113134	2586.139649
544.472571	2588.307346
544.831953	2588.637541
545.191278	2583.399782
545.550548	2584.609659
545.909761	2585.920359
546.268918	2583.929103
546.628019	2588.435895
546.987064	2587.553693
547.346053	2589.134095
547.704986	2587.238621
548.063863	2585.209557
548.422684	2587.636872
548.781449	2587.740216
549.140158	2585.890112
549.498811	2588.521595
549.857408	2588.176276
550.215949	2583.941706
550.574434	2583.077148
550.932864	2583.021696
551.291237	2582.915832
551.649555	2584.710482
552.007817	2586.792479
552.366022	2584.113106
552.724173	2585.121336
553.082267	2585.539752
553.440305	2587.586461
553.798288	2588.471183
554.156215	2586.958837
554.514086	2587.558734
554.871902	2588.592171
555.229661	2587.959506
555.587365	2587.233580
555.945014	2590.200299
556.302606	2588.440936
556.660143	2588.947572
557.017625	2586.369022
557.375050	2588.503951
557.732421	2587.984712
558.089735	2587.838518
558.446994	2588.718200
558.804197	2586.225349
559.161345	2587.188209
559.518437	2587.437747
559.875474	2587.135277
560.232455	2590.424630
560.589381	2588.539239
560.946251	2590.338931
561.303065	2584.473548
561.659825	2585.176789
562.016528	2590.076791
562.373177	2588.151070
562.729770	2584.100503
563.086307	2587.717531
563.442789	2588.337592
563.799216	2586.767273
564.155587	2587.646954
564.511904	2587.528487
564.868164	2587.014290
565.224370	2588.443457
565.580520	2585.113775
565.936615	2589.335741
566.292654	2586.497571
566.648638	2587.261306
567.004567	2588.163673
567.360441	2588.088055
567.716260	2588.821543
568.072023	2588.193920
568.427732	2583.871130
568.783385	2585.958168
569.138982	2584.592015
569.494525	2584.488672
569.850013	2583.072107
570.205445	2586.946234
570.560823	2587.445308
570.916145	2585.643096
571.271412	2588.168714
571.626625	2586.036306
571.981782	2585.965730
572.336884	2584.839032
572.691931	2585.980853
573.046923	2584.947417
573.401860	2584.715523
573.756743	2587.722572
574.111570	2586.802561
574.466342	2587.987232
574.821059	2589.703745
575.175722	2585.595205
575.530330	2585.292736
575.884882	2585.380956
576.239380	2586.346337
576.593823	2586.177458
576.948211	2586.472366
577.302544	2588.317428
577.656823	2587.389856
578.011047	2591.213571
578.365216	2588.332551
578.719330	2586.348857
579.073389	2585.413723
579.427394	2583.432550
579.781344	2587.412541
580.135239	2587.636872
580.489080	2586.268199
580.842866	2587.750298
581.196597	2588.463621
581.550273	2588.171234
581.903895	2588.294743
582.257463	2587.528487
582.610975	2587.467993
582.964434	2586.124526
583.317837	2586.482448
583.671186	2587.404979
584.024481	2587.286512
584.377721	2589.169383
584.730906	2589.275247
585.084037	2587.750298
585.437113	2586.386666
585.790135	2589.481934
586.143103	2588.692994
586.496016	2587.314238
586.848874	2583.850966
587.201679	2583.682087
587.554428	2584.821388
587.907124	2584.866758
588.259765	2585.640575
588.612352	2588.657706
588.964884	2586.399269
589.317362	2587.853642
589.669786	2586.852973
590.022155	2590.888416
590.374470	2584.612180
590.726731	2585.408682
591.078937	2587.163004
591.431090	2587.389856
591.783188	2587.899012
592.135232	2588.955134
592.487222	2587.311718
592.839157	2586.479927
593.191038	2586.742067
593.542866	2589.207192
593.894639	2586.928590
594.246358	2584.614700
594.598022	2586.928590
594.949633	2587.347006
595.301190	2587.107551
595.652692	2587.778024
596.004141	2588.418251
596.355535	2588.133426
596.706876	2588.077973
597.058162	2587.987232
597.409395	2586.701738
597.760573	2585.958168
598.111698	2583.934145
598.462768	2587.394897
598.813785	2587.478076
599.164748	2589.892788
599.515657	2587.856162
599.866511	2587.233580
600.217312	2586.457242
600.568060	2587.168045
600.918753	2590.598550
601.269392	2587.548652
601.619978	2588.763570
601.970510	2588.148549
602.320988	2586.036306
602.671412	2587.558734
603.021783	2586.936152
603.372100	2588.635021
603.722363	2585.902715
604.072572	2587.188209
604.422728	2590.298601
604.772830	2582.504978
605.122878	2584.649988
605.472872	2581.869792
605.822813	2581.922724
606.172701	2582.464648
606.522534	2586.149732
606.872314	2586.530339
607.222041	2586.734506
607.571714	2585.575040
607.921333	2590.661564
608.270899	2586.926069
608.620411	2587.561255
608.969870	2588.246852
609.319276	2587.500761
609.668627	2585.995977
610.017926	2585.885071
610.367171	2587.084866
610.716362	2583.508167
611.065500	2584.713003
611.414585	2588.488827
611.763616	2587.553693
612.112594	2588.042685
612.461518	2586.323652
612.810389	2588.231728
613.159207	2587.336923
613.507971	2584.995307
613.856682	2586.905905
614.205340	2588.022520
614.553945	2588.330031
614.902496	2588.103179
615.250994	2586.968919
615.599439	2589.426482
615.947830	2588.556883
616.296169	2586.752150
616.644454	2587.462952
616.992686	2585.527149
617.340864	2588.458580
617.688990	2587.803230
618.037063	2587.828436
618.385082	2588.539239
618.733048	2588.539239
619.080961	2587.404979
619.428821	2586.381625
619.776628	2588.745926
620.124382	2586.003538
620.472083	2588.539239
620.819731	2584.836511
621.167326	2584.854155
621.514868	2588.748447
621.862357	2587.755339
622.209793	2586.568147
622.557176	2589.214753
622.904506	2583.566140
623.251783	2584.476069
623.599007	2585.093610
623.946179	2584.972622
624.293297	2583.800554
624.640363	2585.300297
624.987376	2588.665267
625.334336	2586.079156
625.681243	2588.745926
626.028097	2586.474886
626.374899	2585.970771
626.721647	2586.081676
627.068343	2589.474373
627.414987	2585.431367
627.761577	2586.106882
628.108115	2588.012438
628.454600	2586.633682
628.801032	2587.397417
629.147412	2589.068560
629.493739	2588.138467
629.840014	2586.646285
630.186236	2588.040164
630.532405	2588.224167
630.878521	2588.637541
631.224585	2590.585947
631.570597	2586.338775
631.916556	2590.553180
632.262462	2586.610997
632.608316	2587.672160
632.954117	2585.925400
633.299866	2586.784917
633.645562	2587.929259
633.991206	2589.507140
634.336797	2586.840370
634.682336	2587.720051
635.027823	2586.696697
635.373257	2587.175607
635.718639	2587.578899
636.063968	2586.633682
636.409245	2589.489496
636.754470	2589.088724
637.099642	2588.287181
637.444762	2588.516553
637.789829	2585.633013
638.134845	2586.348857
638.479808	2589.363467
638.824719	2589.156780
639.169577	2586.802561
639.514383	2587.296594
639.859137	2587.384814
640.203839	2587.163004
640.548489	2587.921697
640.893086	2586.109402
641.237632	2582.935996
641.582125	2583.619073
641.926566	2583.823239
642.270955	2589.668457
642.615292	2586.890781
642.959576	2587.228539
643.303809	2584.135791
643.647990	2588.367839
643.992118	2587.306677
644.336195	2586.729464
