Dividing Wavelength (nm)	Counts (n)	Blue Motor Position (mm): 4.500000	Red Motor Position (mm): 0.000000	
326.493990	2143.518780
326.888308	2143.518780
327.282561	2143.518780
327.676750	2108.601228
328.070874	2109.884202
328.464933	2111.880498
328.858929	2118.794441
329.252859	2127.805503
329.646726	2140.347894
330.040528	2154.349699
330.434265	2168.434683
330.827938	2188.846315
331.221547	2205.716536
331.615091	2225.472818
332.008571	2244.790520
332.401986	2262.298447
332.795338	2283.302414
333.188625	2303.220013
333.581847	2319.497899
333.975006	2339.193687
334.368100	2355.854701
334.761129	2374.711137
335.154095	2392.634959
335.546996	2408.771692
335.939833	2422.856676
336.332606	2436.921496
336.725315	2451.818105
337.117960	2461.439147
337.510540	2466.787812
337.903056	2480.096458
338.295508	2487.769094
338.687896	2494.856956
339.080220	2502.557319
339.472480	2511.565861
339.864676	2514.701458
340.256807	2519.324196
340.648875	2519.793024
341.040879	2525.925587
341.432818	2525.837367
341.824694	2527.848788
342.216506	2528.373068
342.608253	2528.249559
342.999937	2528.698222
343.391557	2529.346010
343.783113	2525.708818
344.174605	2526.338962
344.566033	2522.137160
344.957397	2522.598426
345.348697	2520.118178
345.739934	2519.465349
346.131106	2514.847652
346.522215	2516.919566
346.913260	2513.529390
347.304241	2511.170130
347.695159	2508.636950
348.086012	2507.638802
348.476802	2506.529748
348.867528	2507.142248
349.258191	2504.283914
349.648789	2503.943636
350.039324	2499.968686
350.429796	2499.373830
350.820203	2496.931391
351.210548	2498.085815
351.600828	2494.531802
351.991045	2497.513644
352.381198	2493.939466
352.771288	2495.386277
353.161314	2491.902840
353.551276	2495.950887
353.941175	2494.988026
354.331010	2494.700680
354.720782	2495.338386
355.110490	2495.161946
355.500135	2494.909888
355.889717	2496.407111
356.279235	2494.453664
356.668689	2494.925012
357.058080	2499.018429
357.447408	2492.354023
357.836672	2493.150526
358.225873	2494.383088
358.615010	2492.855618
359.004084	2495.013232
359.393095	2500.084633
359.782043	2496.487769
360.170927	2498.479025
360.559748	2498.746206
360.948505	2498.852071
361.337199	2502.022956
361.725830	2500.876094
362.114398	2502.776609
362.502903	2501.012205
362.891344	2502.968173
363.279722	2501.932216
363.668037	2504.120076
364.056289	2502.769047
364.444478	2504.692247
364.832603	2504.115035
365.220665	2504.011692
365.608665	2505.700478
365.996601	2503.605879
366.384474	2503.109325
366.772284	2509.453617
367.160031	2506.282731
367.547715	2508.768020
367.935336	2505.307268
368.322893	2507.169974
368.710388	2505.360200
369.097820	2510.764317
369.485189	2507.560664
369.872495	2508.422701
370.259738	2507.961436
370.646918	2509.982938
371.034035	2509.463699
371.421090	2508.694923
371.808081	2510.996210
372.195010	2511.858247
372.581875	2511.616272
372.968678	2511.666684
373.355418	2509.874553
373.742096	2509.877074
374.128710	2509.314985
374.515262	2510.676097
374.901751	2510.040912
375.288177	2512.765655
375.674540	2511.618793
376.060841	2511.732219
376.447079	2513.642816
376.833254	2512.642147
377.219367	2508.271467
377.605417	2509.987979
377.991404	2508.309275
378.377329	2508.878926
378.763191	2508.347084
379.148991	2515.775224
379.534727	2512.009482
379.920402	2515.099709
380.306013	2514.033505
380.691563	2516.428053
381.077049	2514.167096
381.462474	2514.678773
381.847835	2513.587363
382.233134	2513.594925
382.618371	2516.854031
383.003545	2516.947292
383.388657	2513.829339
383.773706	2515.407220
384.158693	2515.707168
384.543618	2516.556603
384.928480	2517.325379
385.313280	2514.406551
385.698017	2517.297652
386.082692	2519.130112
386.467305	2516.400327
386.851856	2519.919053
387.236344	2519.062056
387.620770	2518.429392
388.005133	2519.246058
388.389435	2519.082221
388.773674	2518.159690
389.157851	2517.464011
389.541965	2519.200688
389.926018	2517.673218
390.310008	2520.685308
390.693936	2520.196316
391.077802	2520.423168
391.461606	2519.329237
391.845348	2519.122550
392.229027	2519.281347
392.612645	2521.383508
392.996200	2522.452232
393.379694	2520.720596
393.763125	2522.074146
394.146494	2520.007273
394.529801	2525.587830
394.913047	2521.935514
395.296230	2521.257479
395.679351	2522.323683
396.062410	2521.935514
396.445408	2521.370905
396.828343	2524.362830
397.211217	2517.988291
397.594028	2522.217819
397.976778	2519.510719
398.359466	2525.050947
398.742092	2520.526512
399.124656	2524.244363
399.507158	2524.496420
399.889598	2524.816533
400.271977	2524.534229
400.654294	2525.686133
401.036549	2526.074301
401.418742	2525.585309
401.800874	2528.262162
402.182944	2527.130423
402.564952	2521.963240
402.946898	2526.991791
403.328783	2525.066071
403.710606	2527.921884
404.092367	2525.943231
404.474067	2525.739065
404.855705	2526.326359
405.237282	2528.292409
405.618797	2524.352747
406.000250	2526.772501
406.381642	2524.551873
406.762972	2524.393077
407.144240	2525.343334
407.525447	2527.669827
407.906593	2526.520443
408.287677	2528.264683
408.668700	2527.153108
409.049661	2524.866945
409.430560	2527.253931
409.811399	2527.168232
410.192176	2529.252749
410.572891	2531.186031
410.953545	2528.983047
411.334138	2529.882893
411.714669	2528.216792
412.095139	2533.411701
412.475547	2530.911288
412.855894	2530.959179
413.236180	2527.505989
413.616405	2533.084026
413.996568	2530.054292
414.376670	2531.619571
414.756711	2528.980527
415.136691	2529.409025
415.516609	2532.037986
415.896466	2531.241484
416.276262	2531.506145
416.655997	2527.001874
417.035670	2527.072450
417.415283	2528.552028
417.794834	2526.346524
418.174324	2532.887421
418.553753	2530.704601
418.933121	2532.463964
419.312428	2535.231557
419.691674	2534.062010
420.070859	2531.833820
420.449983	2531.997657
420.829045	2532.650487
421.208047	2532.438758
421.586988	2532.784077
421.965867	2533.336083
422.344686	2531.947246
422.723444	2532.312729
423.102141	2533.008408
423.480777	2530.331556
423.859352	2535.100487
424.237866	2535.183666
424.616319	2535.473533
424.994712	2536.144006
425.373044	2535.382792
425.751314	2534.495549
426.129524	2535.196269
426.507673	2536.413708
426.885762	2532.221988
427.263789	2535.092926
427.641756	2536.693492
428.019662	2536.179294
428.397508	2535.463450
428.775292	2535.067720
429.153016	2533.124355
429.530679	2536.270035
429.908282	2534.218285
430.285824	2535.821372
430.663305	2537.089223
431.040726	2534.185518
431.418086	2532.544622
431.795385	2535.894469
432.172624	2534.939170
432.549802	2536.978317
432.926920	2536.179294
433.303977	2535.927237
433.680974	2538.399923
434.057910	2537.157278
434.434786	2536.335570
434.811601	2538.667104
435.188355	2537.217772
435.565050	2535.803728
435.941683	2535.677699
436.318257	2537.162319
436.694770	2531.589324
437.071222	2536.136444
437.447614	2535.181146
437.823946	2534.097298
438.200218	2539.221631
438.576429	2538.538554
438.952580	2537.321116
439.328670	2539.241795
439.704700	2537.227854
440.080670	2539.319933
440.456580	2537.416897
440.832429	2538.979655
441.208218	2537.326157
441.583947	2542.440407
441.959616	2541.396888
442.335224	2538.815818
442.710773	2539.239275
443.086261	2541.316230
443.461689	2537.303472
443.837057	2538.273894
444.212365	2539.864378
444.587612	2539.813966
444.962800	2540.862526
445.337927	2538.881353
445.712995	2540.277752
446.088002	2539.352701
446.462949	2538.659542
446.837837	2538.160468
447.212664	2540.108874
447.587431	2542.107691
447.962139	2540.015612
448.336786	2540.587783
448.711374	2540.292876
449.085901	2542.291693
449.460369	2540.355890
449.834776	2541.747249
450.209124	2539.967721
450.583412	2539.488812
450.957640	2539.511497
451.331808	2541.316230
451.705917	2541.245654
452.079965	2543.708258
452.453954	2541.134748
452.827883	2543.766231
453.201752	2541.429656
453.575562	2541.749769
453.949311	2539.879501
454.323001	2543.718340
454.696632	2540.217258
455.070202	2542.107691
455.443713	2541.795140
455.817164	2539.324974
456.190556	2538.725077
456.563888	2541.921168
456.937160	2538.105015
457.310373	2539.982845
457.683526	2544.189688
458.056619	2542.710109
458.429653	2542.677342
458.802628	2542.929399
459.175542	2540.577701
459.548398	2542.760521
459.921194	2542.533669
460.293930	2544.368649
460.666607	2543.473844
461.039224	2543.574667
461.411782	2545.671787
461.784280	2541.477547
462.156719	2543.070552
462.529099	2544.804708
462.901419	2543.776313
463.273680	2541.800181
463.645882	2543.642722
464.018024	2544.023330
464.390106	2545.974256
464.762130	2542.490819
465.134094	2546.024668
465.505999	2544.403937
465.877845	2544.426622
466.249631	2542.856302
466.621358	2543.551982
466.993026	2547.743701
467.364634	2550.128167
467.736184	2544.252702
468.107674	2543.325130
468.479105	2543.378062
468.850477	2541.162475
469.221790	2545.049204
469.593043	2545.427291
469.964238	2545.747404
470.335373	2547.259750
470.706449	2542.904193
471.077467	2545.021478
471.448425	2545.838145
471.819324	2543.859492
472.190164	2545.843186
472.560945	2547.829401
472.931667	2544.424101
473.302330	2544.940820
473.672934	2544.696324
474.043479	2546.276725
474.413965	2544.963505
474.784393	2540.025695
475.154761	2547.093392
475.525070	2543.678011
475.895321	2543.932589
476.265513	2542.054759
476.635645	2546.982487
477.005719	2545.742363
477.375734	2546.564071
477.745691	2545.850748
478.115588	2547.731098
478.485427	2543.657846
478.855207	2545.452497
479.224928	2544.517363
479.594591	2543.947712
479.964194	2546.380069
480.333739	2548.036088
480.703226	2547.789072
481.072653	2545.581046
481.442022	2548.293187
481.811333	2548.699000
482.180584	2545.644061
482.549777	2548.467107
482.918912	2545.306303
483.287988	2547.199257
483.657005	2546.468289
484.025964	2546.175902
484.394864	2545.422250
484.763706	2548.164638
485.132489	2546.538865
485.501213	2547.005172
485.869879	2547.090872
486.238487	2543.189019
486.607036	2547.968032
486.975527	2545.586087
487.343959	2546.737991
487.712333	2546.526262
488.080648	2548.520039
488.448905	2547.496685
488.817104	2544.834955
489.185244	2549.550955
489.553326	2548.373845
489.921350	2548.194884
490.289315	2546.465769
490.657222	2548.759494
491.025070	2547.693290
491.392861	2547.937786
491.760593	2549.414844
492.128267	2548.068856
492.495883	2549.757642
492.863440	2548.038609
493.230939	2549.331665
493.598380	2548.862837
493.965763	2546.705223
494.333088	2544.287990
494.700354	2544.587939
495.067563	2547.095913
495.434713	2544.986190
495.801805	2547.587425
496.168839	2547.784030
496.535815	2547.368135
496.902733	2549.515667
497.269593	2552.036244
497.636395	2550.057591
498.003139	2548.522559
498.369825	2548.000800
498.736453	2551.713610
499.103023	2549.913918
499.469535	2550.682694
499.835989	2547.708413
500.202385	2548.910728
500.568723	2548.736808
500.935003	2549.392158
501.301226	2547.731098
501.667390	2548.925852
502.033497	2550.221428
502.399546	2550.155893
502.765537	2549.014072
503.131470	2547.867209
503.497345	2549.021634
503.863163	2550.460883
504.228923	2548.830070
504.594625	2550.876778
504.960269	2547.736139
505.325856	2549.863506
505.691385	2547.398382
506.056856	2550.662529
506.422270	2549.939124
506.787625	2551.229659
507.152924	2550.889381
507.518164	2548.736808
507.883347	2550.997766
508.248472	2548.721685
508.613540	2548.041129
508.978550	2550.647406
509.343503	2550.768393
509.708398	2549.964329
510.073236	2551.416182
510.438016	2551.252344
510.802738	2549.828218
511.167403	2550.833928
511.532010	2551.963147
511.896561	2550.360060
512.261053	2550.596994
512.625488	2547.269833
512.989866	2546.732950
513.354186	2547.355532
513.718449	2547.078269
514.082655	2548.396531
514.446803	2549.230842
514.810894	2550.707900
515.174927	2552.774773
515.538904	2548.235214
515.902822	2551.655637
516.266684	2549.160265
516.630488	2548.857796
516.994235	2551.269988
517.357925	2550.612118
517.721558	2550.407951
518.085133	2550.942313
518.448651	2551.307797
518.812112	2552.507592
519.175516	2551.920297
519.538863	2548.509957
519.902152	2549.555996
520.265385	2549.266130
520.628560	2553.430123
520.991678	2550.004659
521.354739	2549.331665
521.717743	2548.953578
522.080690	2551.075904
522.443580	2548.404092
522.806413	2549.956768
523.169189	2550.508774
523.531908	2550.443239
523.894569	2550.143290
524.257174	2554.156049
524.619722	2550.539021
524.982213	2550.796120
525.344647	2550.299566
525.707025	2551.244782
526.069345	2552.295863
526.431608	2551.237221
526.793815	2549.717313
527.155964	2550.097920
527.518057	2550.627241
527.880093	2553.089845
528.242072	2551.269988
528.603995	2549.951727
528.965860	2551.867365
529.327669	2552.013558
529.689421	2550.486089
530.051117	2553.104968
530.412755	2552.739485
530.774337	2550.304607
531.135862	2551.476676
531.497331	2548.930893
531.858743	2548.746891
532.220098	2552.832746
532.581396	2545.727240
532.942638	2549.187992
533.303824	2549.568599
533.664953	2549.624052
534.026025	2551.259906
534.387040	2551.186809
534.747999	2550.738147
535.108902	2552.074052
535.469748	2553.465411
535.830537	2551.267468
536.191270	2549.893753
536.551947	2553.697304
536.912567	2551.537169
537.273131	2549.268650
537.633638	2553.147818
537.994089	2552.091696
538.354483	2551.902653
538.714821	2551.257385
539.075103	2551.065822
539.435328	2552.560524
539.795497	2553.510781
540.155609	2552.714279
540.515665	2551.627910
540.875665	2553.190668
541.235609	2550.725544
541.595496	2551.025492
541.955328	2548.731767
542.315102	2551.988353
542.674821	2551.060780
543.034483	2552.585729
543.394090	2552.003476
543.753640	2553.808209
544.113134	2553.583878
544.472571	2553.354505
544.831953	2552.268137
545.191278	2554.019938
545.550548	2551.897612
545.909761	2550.012220
546.268918	2550.881819
546.628019	2551.821995
546.987064	2552.041285
547.346053	2549.661860
547.704986	2548.394010
548.063863	2551.796789
548.422684	2551.514484
548.781449	2551.562375
549.140158	2551.784186
549.498811	2554.400545
549.857408	2551.708569
550.215949	2548.709082
550.574434	2547.809236
550.932864	2548.325954
551.291237	2546.695141
551.649555	2552.079093
552.007817	2551.333003
552.366022	2550.894422
552.724173	2551.305276
553.082267	2551.985832
553.440305	2552.563044
553.798288	2551.022972
554.156215	2549.314021
554.514086	2551.267468
554.871902	2550.110523
555.229661	2553.586398
555.587365	2551.403579
555.945014	2553.175544
556.302606	2551.597663
556.660143	2553.846018
557.017625	2552.595812
557.375050	2552.736964
557.732421	2551.716130
558.089735	2551.282591
558.446994	2553.578837
558.804197	2553.001625
559.161345	2552.409289
559.518437	2554.645041
559.875474	2551.073383
560.232455	2552.069011
560.589381	2552.212684
560.946251	2555.781821
561.303065	2553.525905
561.659825	2551.474155
562.016528	2550.808723
562.373177	2550.496171
562.729770	2555.033210
563.086307	2553.765359
563.442789	2553.662016
563.799216	2551.373332
564.155587	2551.960626
564.511904	2552.701676
564.868164	2549.014072
565.224370	2552.784855
565.580520	2552.152190
565.936615	2553.165462
566.292654	2551.837118
566.648638	2553.999773
567.004567	2551.154042
567.360441	2551.814433
567.716260	2550.690256
568.072023	2553.311656
568.427732	2548.814946
568.783385	2550.244113
569.138982	2547.839483
569.494525	2550.281922
569.850013	2547.438711
570.205445	2551.469114
570.560823	2552.623538
570.916145	2553.039433
571.271412	2551.257385
571.626625	2552.477345
571.981782	2551.781665
572.336884	2552.222766
572.691931	2550.057591
573.046923	2550.695297
573.401860	2552.159752
573.756743	2551.365770
574.111570	2552.270657
574.466342	2552.888199
574.821059	2550.596994
575.175722	2551.854762
575.530330	2554.284598
575.884882	2552.860472
576.239380	2552.416851
576.593823	2555.620504
576.948211	2549.757642
577.302544	2552.779814
577.656823	2552.787376
578.011047	2554.735782
578.365216	2552.152190
578.719330	2552.069011
579.073389	2551.595143
579.427394	2552.411810
579.781344	2553.276367
580.135239	2552.555482
580.489080	2554.826522
580.842866	2553.110009
581.196597	2555.464228
581.550273	2552.605894
581.903895	2550.034906
582.257463	2551.038095
582.610975	2550.181099
582.964434	2551.648075
583.317837	2551.171686
583.671186	2552.431974
584.024481	2553.135215
584.377721	2554.100596
584.730906	2551.048177
585.084037	2553.944320
585.437113	2552.119423
585.790135	2550.483568
586.143103	2551.869886
586.496016	2552.661347
586.848874	2548.898125
587.201679	2549.450132
587.554428	2548.361243
587.907124	2550.690256
588.259765	2550.768393
588.612352	2556.142263
588.964884	2554.876934
589.317362	2554.415668
589.669786	2554.947510
590.022155	2553.440205
590.374470	2555.491955
590.726731	2550.506253
591.078937	2552.953734
591.431090	2550.901984
591.783188	2552.316028
592.135232	2551.741336
592.487222	2554.183775
592.839157	2552.999104
593.191038	2552.169834
593.542866	2553.087324
593.894639	2553.417520
594.246358	2553.830894
594.598022	2551.138918
594.949633	2552.411810
595.301190	2552.779814
595.652692	2553.483055
596.004141	2554.375339
596.355535	2552.636141
596.706876	2551.804351
597.058162	2550.065153
597.409395	2551.605225
597.760573	2550.455842
598.111698	2549.344268
598.462768	2553.339382
598.813785	2551.673281
599.164748	2553.871224
599.515657	2551.529608
599.866511	2554.536656
600.217312	2551.247303
600.568060	2552.530277
600.918753	2557.049671
601.269392	2552.424413
601.619978	2550.546583
601.970510	2551.970709
602.320988	2554.108158
602.671412	2553.604042
603.021783	2552.182437
603.372100	2553.485575
603.722363	2555.378529
604.072572	2552.041285
604.422728	2554.161090
604.772830	2551.060780
605.122878	2550.473486
605.472872	2550.745708
605.822813	2547.910059
606.172701	2551.948023
606.522534	2553.241079
606.872314	2553.233518
607.222041	2553.455328
607.571714	2554.377860
607.921333	2553.190668
608.270899	2552.913404
608.620411	2554.486244
608.969870	2553.503219
609.319276	2554.854249
609.668627	2556.159907
610.017926	2561.722821
610.367171	2561.639642
610.716362	2557.508416
611.065500	2556.744681
611.414585	2558.446071
611.763616	2555.103786
612.112594	2555.834753
612.461518	2557.515978
612.810389	2555.804506
613.159207	2553.558672
613.507971	2555.456667
613.856682	2554.450956
614.205340	2554.115720
614.553945	2557.604198
614.902496	2553.218394
615.250994	2554.289639
615.599439	2552.479865
615.947830	2556.865669
616.296169	2554.304763
616.644454	2553.591440
616.992686	2552.154711
617.340864	2553.828374
617.688990	2553.220915
618.037063	2552.810061
618.385082	2551.774104
618.733048	2553.946841
619.080961	2550.120605
619.428821	2552.084135
619.776628	2553.503219
620.124382	2553.604042
620.472083	2553.591440
620.819731	2554.652602
621.167326	2553.064639
621.514868	2553.427602
621.862357	2551.083466
622.209793	2553.404917
622.557176	2553.452808
622.904506	2549.682025
623.251783	2549.233362
623.599007	2549.873589
623.946179	2549.482899
624.293297	2552.822664
624.640363	2553.709907
624.987376	2553.699824
625.334336	2551.910215
625.681243	2551.554813
626.028097	2551.990873
626.374899	2551.882488
626.721647	2552.242931
627.068343	2553.840977
627.414987	2554.035061
627.761577	2554.458518
628.108115	2551.333003
628.454600	2554.771070
628.801032	2552.739485
629.147412	2553.649413
629.493739	2552.028682
629.840014	2551.078424
630.186236	2552.437015
630.532405	2555.839794
630.878521	2553.977088
631.224585	2554.125802
631.570597	2553.518343
631.916556	2550.476007
632.262462	2553.530946
632.608316	2552.384083
632.954117	2551.196892
633.299866	2551.224618
633.645562	2552.537838
633.991206	2553.634289
634.336797	2551.234700
634.682336	2555.607901
635.027823	2552.905843
635.373257	2552.298384
635.718639	2551.824515
636.063968	2552.643703
636.409245	2552.991542
636.754470	2550.886861
637.099642	2550.954916
637.444762	2553.407438
637.789829	2552.263096
638.134845	2550.743188
638.479808	2552.396686
638.824719	2552.391645
639.169577	2553.780483
639.514383	2553.251162
639.859137	2549.432488
640.203839	2552.663867
640.548489	2551.428785
640.893086	2549.676984
641.237632	2548.966181
641.582125	2549.369473
641.926566	2546.841335
642.270955	2553.062118
642.615292	2549.787889
642.959576	2552.184958
643.303809	2550.352498
643.647990	2554.443395
643.992118	2553.311656
644.336195	2550.914587
