Dividing Wavelength (nm)	Counts (n)	Blue Motor Position (mm): 10.800000	Red Motor Position (mm): 0.000000	
326.493990	2063.200596
326.888308	2063.200596
327.282561	2063.200596
327.676750	2037.052131
328.070874	2039.981042
328.464933	2044.878523
328.858929	2053.556869
329.252859	2064.642366
329.646726	2077.782134
330.040528	2095.080853
330.434265	2111.288163
330.827938	2135.344549
331.221547	2153.270892
331.615091	2174.947854
332.008571	2195.591379
332.401986	2211.818853
332.795338	2234.768706
333.188625	2253.121026
333.581847	2271.556526
333.975006	2291.617798
334.368100	2307.827628
334.761129	2324.954948
335.154095	2338.671928
335.546996	2375.237937
335.939833	2441.133380
336.332606	2451.976902
336.725315	2462.787656
337.117960	2475.272073
337.510540	2485.424957
337.903056	2492.664054
338.295508	2497.291833
338.687896	2504.253667
339.080220	2508.972187
339.472480	2516.153311
339.864676	2518.731861
340.256807	2521.922911
340.648875	2519.911491
341.040879	2523.309228
341.432818	2525.328211
341.824694	2525.517254
342.216506	2525.023221
342.608253	2525.381143
342.999937	2522.895854
343.391557	2521.239835
343.783113	2523.339475
344.174605	2519.603980
344.566033	2518.716737
344.957397	2517.612725
345.348697	2515.071983
345.739934	2512.652229
346.131106	2515.182888
346.522215	2510.204749
346.913260	2509.854389
347.304241	2507.979080
347.695159	2504.999758
348.086012	2504.775426
348.476802	2499.953563
348.867528	2498.824344
349.258191	2494.466267
349.648789	2494.035248
350.039324	2497.092708
350.429796	2498.970538
350.820203	2495.320742
351.210548	2495.267810
351.600828	2490.990391
351.991045	2489.097438
352.381198	2491.091214
352.771288	2493.011894
353.161314	2491.108858
353.551276	2488.535349
353.941175	2489.846049
354.331010	2491.358395
354.720782	2491.504589
355.110490	2493.589106
355.500135	2492.981647
355.889717	2489.982160
356.279235	2491.885196
356.668689	2492.827892
357.058080	2492.411997
357.447408	2492.830412
357.836672	2492.563231
358.225873	2494.670433
358.615010	2494.869559
359.004084	2495.867708
359.393095	2495.834940
359.782043	2498.123624
360.170927	2497.402739
360.559748	2497.813593
360.948505	2498.479025
361.337199	2500.195538
361.725830	2497.256545
362.114398	2495.456853
362.502903	2500.810559
362.891344	2502.118738
363.279722	2501.717967
363.668037	2502.920282
364.056289	2503.210148
364.444478	2502.504387
364.832603	2501.496156
365.220665	2504.180570
365.608665	2500.745024
365.996601	2502.214520
366.384474	2500.757627
366.772284	2501.904489
367.160031	2503.978924
367.547715	2505.007319
367.935336	2505.453462
368.322893	2502.925323
368.710388	2500.233347
369.097820	2501.539006
369.485189	2501.256701
369.872495	2505.085457
370.259738	2505.133348
370.646918	2507.386744
371.034035	2506.597803
371.421090	2507.190139
371.808081	2503.694099
372.195010	2505.939933
372.581875	2506.076044
372.968678	2508.311796
373.355418	2505.637464
373.742096	2507.643843
374.128710	2506.673421
374.515262	2507.079234
374.901751	2510.590397
375.288177	2508.321878
375.674540	2510.242558
376.060841	2510.993690
376.447079	2509.007475
376.833254	2512.309431
377.219367	2509.481343
377.605417	2509.907321
377.991404	2510.797085
378.377329	2509.806498
378.763191	2509.269615
379.148991	2509.803977
379.534727	2512.047291
379.920402	2514.789678
380.306013	2511.601149
380.691563	2515.170286
381.077049	2512.879081
381.462474	2514.169617
381.847835	2512.102743
382.233134	2511.548217
382.618371	2514.799761
383.003545	2514.683814
383.388657	2513.874709
383.773706	2515.505522
384.158693	2512.690038
384.543618	2513.655419
384.928480	2513.821777
385.313280	2513.443690
385.698017	2513.277332
386.082692	2517.464011
386.467305	2514.996366
386.851856	2516.365039
387.236344	2513.597446
387.620770	2513.116015
388.005133	2513.431088
388.389435	2513.126098
388.773674	2509.680469
389.157851	2514.908146
389.541965	2514.567868
389.926018	2518.114319
390.310008	2519.414937
390.693936	2516.544000
391.077802	2518.061387
391.461606	2515.757580
391.845348	2518.139525
392.229027	2518.817560
392.612645	2519.425019
392.996200	2516.738084
393.379694	2518.676408
393.763125	2519.077180
394.146494	2519.745133
394.529801	2518.321007
394.913047	2518.505009
395.296230	2516.178516
395.679351	2519.583816
396.062410	2519.155318
396.445408	2520.481141
396.828343	2518.936027
397.211217	2519.384690
397.594028	2520.224042
397.976778	2518.565503
398.359466	2518.797396
398.742092	2521.635565
399.124656	2519.301511
399.507158	2519.092303
399.889598	2521.663292
400.271977	2522.006090
400.654294	2520.476100
401.036549	2522.918539
401.418742	2522.709331
401.800874	2520.254289
402.182944	2521.181862
402.564952	2523.412572
402.946898	2524.188910
403.328783	2522.984074
403.710606	2525.721421
404.092367	2523.205885
404.474067	2525.643283
404.855705	2522.827798
405.237282	2522.726975
405.618797	2524.511544
406.000250	2522.003570
406.381642	2522.994156
406.762972	2521.975843
407.144240	2522.623632
407.525447	2523.339475
407.906593	2520.518950
408.287677	2524.919877
408.668700	2525.751667
409.049661	2526.487676
409.430560	2526.777542
409.811399	2525.489527
410.192176	2526.132275
410.572891	2526.129754
410.953545	2525.645803
411.334138	2528.035310
411.714669	2527.924405
412.095139	2526.984230
412.475547	2527.442975
412.855894	2528.065557
413.236180	2525.285361
413.616405	2527.604292
413.996568	2526.180166
414.376670	2526.366688
414.756711	2529.086391
415.136691	2528.471370
415.516609	2527.891637
415.896466	2526.659075
416.276262	2527.800897
416.655997	2527.939528
417.035670	2528.151257
417.415283	2526.923736
417.794834	2528.615043
418.174324	2526.953983
418.553753	2527.390042
418.933121	2528.897348
419.312428	2528.854498
419.691674	2528.640249
420.070859	2529.146885
420.449983	2530.051772
420.829045	2525.948272
421.208047	2527.432892
421.586988	2528.617563
421.965867	2526.797707
422.344686	2529.751823
422.723444	2530.434899
423.102141	2530.205527
423.480777	2529.073788
423.859352	2526.855680
424.237866	2529.340969
424.616319	2532.020342
424.994712	2530.369364
425.373044	2532.615198
425.751314	2525.088756
426.129524	2526.989271
426.507673	2526.039013
426.885762	2525.918026
427.263789	2529.882893
427.641756	2528.743592
428.019662	2530.815507
428.397508	2528.741072
428.775292	2529.466998
429.153016	2531.435568
429.530679	2531.354910
429.908282	2530.616381
430.285824	2531.765764
430.663305	2530.593696
431.040726	2528.796524
431.418086	2530.825589
431.795385	2532.486649
432.172624	2527.523633
432.549802	2528.857018
432.926920	2528.650331
433.303977	2529.575383
433.680974	2528.937677
434.057910	2529.948428
434.434786	2531.246525
434.811601	2530.465146
435.188355	2531.362472
435.565050	2528.456247
435.941683	2532.708460
436.318257	2528.947759
436.694770	2531.120496
437.071222	2531.589324
437.447614	2529.555218
437.823946	2530.818027
438.200218	2531.123017
438.576429	2529.668644
438.952580	2529.782070
439.328670	2531.249046
439.704700	2531.281813
440.080670	2530.329035
440.456580	2528.352903
440.832429	2529.986237
441.208218	2529.832482
441.583947	2527.785773
441.959616	2527.281658
442.335224	2532.088398
442.710773	2531.372554
443.086261	2529.721576
443.461689	2530.112266
443.837057	2531.065044
444.212365	2528.844415
444.587612	2531.536392
444.962800	2528.549508
445.337927	2529.146885
445.712995	2527.793335
446.088002	2531.435568
446.462949	2530.500434
446.837837	2531.049920
447.212664	2529.335928
447.587431	2533.351207
447.962139	2530.618902
448.336786	2530.908768
448.711374	2531.090249
449.085901	2529.867770
449.460369	2532.436238
449.834776	2531.080167
450.209124	2531.095291
450.583412	2530.515558
450.957640	2530.939015
451.331808	2531.112935
451.705917	2531.077647
452.079965	2531.823737
452.453954	2533.078985
452.827883	2530.954138
453.201752	2532.736186
453.575562	2533.391536
453.949311	2529.779549
454.323001	2531.856505
454.696632	2530.727286
455.070202	2529.610671
455.443713	2530.006401
455.817164	2530.444982
456.190556	2531.100332
456.563888	2532.806762
456.937160	2531.276772
457.310373	2531.778367
457.683526	2530.250897
458.056619	2533.089067
458.429653	2531.780887
458.802628	2531.274252
459.175542	2532.262318
459.548398	2532.128727
459.921194	2531.579241
460.293930	2531.478418
460.666607	2534.354397
461.039224	2530.061854
461.411782	2532.474046
461.784280	2534.041845
462.156719	2532.600075
462.529099	2533.751979
462.901419	2532.859694
463.273680	2529.814837
463.645882	2528.894827
464.018024	2530.044210
464.390106	2528.730989
464.762130	2533.510003
465.134094	2530.961700
465.505999	2531.811134
465.877845	2532.932791
466.249631	2532.083357
466.621358	2533.605785
466.993026	2533.336083
467.364634	2537.001002
467.736184	2531.964890
468.107674	2535.476053
468.479105	2533.192411
468.850477	2533.998995
469.221790	2534.913965
469.593043	2531.861546
469.964238	2537.273225
470.335373	2534.750127
470.706449	2535.536547
471.077467	2533.172246
471.448425	2537.174922
471.819324	2534.987061
472.190164	2533.434386
472.560945	2534.293903
472.931667	2533.847761
473.302330	2537.253060
473.672934	2533.507483
474.043479	2533.197452
474.413965	2534.709798
474.784393	2534.167874
475.154761	2537.560570
475.525070	2536.126362
475.895321	2536.479243
476.265513	2534.130065
476.635645	2535.758358
477.005719	2534.724921
477.375734	2538.016795
477.745691	2535.231557
478.115588	2536.610313
478.485427	2535.047555
478.855207	2535.690302
479.224928	2537.421939
479.594591	2536.189377
479.964194	2537.560570
480.333739	2535.927237
480.703226	2537.295910
481.072653	2539.264480
481.442022	2536.272556
481.811333	2535.413039
482.180584	2534.465302
482.549777	2536.388502
482.918912	2532.116124
483.287988	2537.018646
483.657005	2537.953780
484.025964	2536.706095
484.394864	2537.426980
484.763706	2539.088040
485.132489	2538.261291
485.501213	2540.499563
485.869879	2537.185004
486.238487	2537.268183
486.607036	2538.135262
486.975527	2541.381765
487.343959	2536.632998
487.712333	2539.423277
488.080648	2540.857485
488.448905	2538.102494
488.817104	2539.715664
489.185244	2539.652649
489.553326	2538.591486
489.921350	2543.335212
490.289315	2543.050387
490.657222	2543.030222
491.025070	2539.869419
491.392861	2540.814635
491.760593	2540.260108
492.128267	2543.163813
492.495883	2540.232382
492.863440	2539.990407
493.230939	2540.376055
493.598380	2540.935623
493.965763	2540.940664
494.333088	2539.405633
494.700354	2539.198945
495.067563	2540.754141
495.434713	2539.284645
495.801805	2541.107022
496.168839	2538.906558
496.535815	2538.339429
496.902733	2539.425797
497.269593	2542.183308
497.636395	2543.463762
498.003139	2539.314892
498.369825	2540.721374
498.736453	2540.461754
499.103023	2542.332022
499.469535	2541.439738
499.835989	2538.198276
500.202385	2541.732125
500.568723	2538.294058
500.935003	2540.285314
501.301226	2537.656352
501.667390	2541.303627
502.033497	2541.701878
502.399546	2541.535520
502.765537	2540.250026
503.131470	2542.581560
503.497345	2541.643905
503.863163	2542.321940
504.228923	2539.569470
504.594625	2546.369987
504.960269	2539.423277
505.325856	2540.630633
505.691385	2540.164326
506.056856	2539.451003
506.422270	2541.069213
506.787625	2541.565767
507.152924	2541.974101
507.518164	2545.502908
507.883347	2541.492670
508.248472	2543.332692
508.613540	2543.075593
508.978550	2542.848741
509.343503	2542.009389
509.708398	2542.989893
510.073236	2544.829914
510.438016	2545.281097
510.802738	2542.379913
511.167403	2547.806716
511.532010	2545.507949
511.896561	2547.925183
512.261053	2545.704554
512.625488	2549.687066
512.989866	2548.424257
513.354186	2547.771428
513.718449	2549.639175
514.082655	2548.885523
514.446803	2548.953578
514.810894	2553.132695
515.174927	2553.780483
515.538904	2552.263096
515.902822	2549.167827
516.266684	2552.989022
516.630488	2551.602704
516.994235	2554.483724
517.357925	2553.583878
517.721558	2558.385577
518.085133	2555.376008
518.448651	2555.325597
518.812112	2555.592778
519.175516	2560.550752
519.538863	2554.312325
519.902152	2562.438665
520.265385	2562.973027
520.628560	2561.017059
520.991678	2564.823130
521.354739	2563.300702
521.717743	2565.894376
522.080690	2568.132648
522.443580	2569.841599
522.806413	2569.314798
523.169189	2568.407391
523.531908	2569.266907
523.894569	2573.173802
524.257174	2572.490725
524.619722	2574.734039
524.982213	2574.514749
525.344647	2576.327043
525.707025	2577.272260
526.069345	2580.218814
526.431608	2577.736046
526.793815	2581.342992
527.155964	2581.547158
527.518057	2583.041860
527.880093	2583.556058
528.242072	2584.758373
528.603995	2586.187540
528.965860	2585.774166
529.327669	2588.360278
529.689421	2589.502099
530.051117	2592.007552
530.412755	2590.273396
530.774337	2591.720207
531.135862	2591.942018
531.497331	2594.223140
531.858743	2596.322780
532.220098	2596.733634
532.581396	2601.222782
532.942638	2600.948039
533.303824	2600.403594
533.664953	2600.990889
534.026025	2603.193873
534.387040	2605.593462
534.747999	2604.726384
535.108902	2610.402723
535.469748	2608.224944
535.830537	2610.556478
536.191270	2612.109153
536.551947	2611.751232
536.912567	2608.429111
537.273131	2612.893053
537.633638	2611.819287
537.994089	2617.495626
538.354483	2616.568054
538.714821	2621.989815
539.075103	2622.398148
539.435328	2624.649024
539.795497	2623.774383
540.155609	2627.875362
540.515665	2627.502317
540.875665	2628.213119
541.235609	2631.794859
541.595496	2630.882410
541.955328	2634.842237
542.315102	2632.241001
542.674821	2634.300313
543.034483	2633.292082
543.394090	2634.023049
543.753640	2636.959521
544.113134	2639.817856
544.472571	2639.253246
544.831953	2643.364307
545.191278	2639.459934
545.550548	2642.484626
545.909761	2644.072589
546.268918	2644.846407
546.628019	2647.445121
546.987064	2646.598207
547.346053	2645.209370
547.704986	2648.183650
548.063863	2646.361273
548.422684	2649.448980
548.781449	2650.933600
549.140158	2650.515184
549.498811	2649.708599
549.857408	2651.425112
550.215949	2655.137922
550.574434	2653.068528
550.932864	2655.016934
551.291237	2656.070536
551.649555	2658.006339
552.007817	2656.831750
552.366022	2657.290495
552.724173	2656.710762
553.082267	2660.968017
553.440305	2657.429127
553.798288	2660.496669
554.156215	2658.722182
554.514086	2658.971720
554.871902	2656.562048
555.229661	2660.615136
555.587365	2654.578354
555.945014	2662.021618
556.302606	2660.761329
556.660143	2662.195537
557.017625	2659.521205
557.375050	2661.746875
557.732421	2662.578665
558.089735	2662.989519
558.446994	2665.542864
558.804197	2665.371464
559.161345	2665.868018
559.518437	2663.581855
559.875474	2666.004129
560.232455	2666.760302
560.589381	2666.034376
560.946251	2664.544715
561.303065	2670.584017
561.659825	2668.297854
562.016528	2665.779798
562.373177	2665.222750
562.729770	2668.396157
563.086307	2667.009839
563.442789	2668.068482
563.799216	2667.944973
564.155587	2667.340035
564.511904	2669.245591
564.868164	2669.003616
565.224370	2670.140396
565.580520	2670.026970
565.936615	2669.583348
566.292654	2673.303720
566.648638	2673.066786
567.004567	2671.171312
567.360441	2672.592917
567.716260	2669.565704
568.072023	2674.548885
568.427732	2672.353462
568.783385	2670.316836
569.138982	2675.307579
569.494525	2677.371931
569.850013	2675.254647
570.205445	2674.097702
570.560823	2672.797084
570.916145	2674.800943
571.271412	2675.000068
571.626625	2678.972497
571.981782	2674.284224
572.336884	2674.344718
572.691931	2672.335818
573.046923	2674.677434
573.401860	2673.671724
573.756743	2677.876047
574.111570	2676.976201
574.466342	2681.606500
574.821059	2683.617921
575.175722	2679.902590
575.530330	2681.911490
575.884882	2680.038702
576.239380	2680.651202
576.593823	2684.474917
576.948211	2684.542973
577.302544	2683.645647
577.656823	2686.186389
578.011047	2687.791996
578.365216	2687.189578
578.719330	2688.961544
579.073389	2689.838705
579.427394	2691.900537
579.781344	2693.511185
580.135239	2696.487987
580.489080	2696.661906
580.842866	2697.324818
581.196597	2702.509645
581.550273	2701.892103
581.903895	2706.328319
582.257463	2708.375027
582.610975	2711.732436
582.964434	2713.151521
583.317837	2713.418702
583.671186	2715.916593
584.024481	2721.666029
584.377721	2720.652757
584.730906	2726.334138
585.084037	2729.346227
585.437113	2731.183728
585.790135	2735.584655
586.143103	2736.030797
586.496016	2742.853999
586.848874	2745.815677
587.201679	2750.330030
587.554428	2752.966554
587.907124	2757.652306
588.259765	2760.835795
588.612352	2770.645880
588.964884	2767.036414
589.317362	2775.404729
589.669786	2779.898918
590.022155	2783.208436
590.374470	2790.293777
590.726731	2794.460291
591.078937	2792.514406
591.431090	2803.627629
591.783188	2808.588125
592.135232	2812.742035
592.487222	2820.064311
592.839157	2828.961948
593.191038	2831.469922
593.542866	2838.794718
593.894639	2840.488546
594.246358	2850.596060
594.598022	2857.358768
594.949633	2862.097452
595.301190	2866.163143
595.652692	2878.473640
596.004141	2888.787841
596.355535	2885.304404
596.706876	2893.186248
597.058162	2898.305540
597.409395	2912.382962
597.760573	2923.133222
598.111698	2929.023811
598.462768	2937.135027
598.813785	2949.574074
599.164748	2954.615228
599.515657	2964.004377
599.866511	2973.945533
600.217312	2988.665702
600.568060	2987.632265
600.918753	3011.701254
601.269392	3020.677029
601.619978	3031.409645
601.970510	3042.164947
602.320988	3060.839901
602.671412	3073.619226
603.021783	3085.962492
603.372100	3099.550922
603.722363	3109.693723
604.072572	3122.717544
604.422728	3140.510297
604.772830	3149.092861
605.122878	3167.354441
605.472872	3178.545802
605.822813	3197.661858
606.172701	3213.387737
606.522534	3230.935994
606.872314	3254.672267
607.222041	3268.986623
607.571714	3288.987401
607.921333	3297.154070
608.270899	3323.098368
608.620411	3343.411698
608.969870	3367.042107
609.319276	3388.114130
609.668627	3408.399733
610.017926	3438.611368
610.367171	3463.423927
610.716362	3486.189778
611.065500	3503.425483
611.414585	3535.739279
611.763616	3567.664906
612.112594	3587.743822
612.461518	3615.911269
612.810389	3654.975170
613.159207	3678.938295
613.507971	3703.839074
613.856682	3746.976228
614.205340	3769.923560
614.553945	3820.801405
614.902496	3828.595029
615.250994	3870.923077
615.599439	3901.233015
615.947830	3940.438068
616.296169	3978.796208
616.644454	4014.011188
616.992686	4054.262281
617.340864	4108.618522
617.688990	4135.646669
618.037063	4196.679918
618.385082	4233.490424
618.733048	4285.328609
619.080961	4322.340760
619.428821	4362.715362
619.776628	4400.725662
620.124382	4426.342285
620.472083	4464.846618
620.819731	4506.105942
621.167326	4517.826624
621.514868	4549.132190
621.862357	4557.457655
622.209793	4592.831432
622.557176	4605.484728
622.904506	4622.672542
623.251783	4635.356085
623.599007	4651.936440
623.946179	4680.880225
624.293297	4704.881158
624.640363	4709.178742
624.987376	4737.779728
625.334336	4757.036936
625.681243	4775.732055
626.028097	4806.662054
626.374899	4836.114996
626.721647	4878.208630
627.068343	4907.991767
627.414987	4931.438174
627.761577	4954.690496
628.108115	5019.464282
628.454600	5012.066388
628.801032	5066.619235
629.147412	5112.665134
629.493739	5147.837264
629.840014	5168.087579
630.186236	5243.407459
630.532405	5253.509931
630.878521	5319.387730
631.224585	5349.972410
631.570597	5373.882603
631.916556	5434.668836
632.262462	5475.605526
632.608316	5518.541033
632.954117	5561.370676
633.299866	5599.436429
633.645562	5636.317510
633.991206	5638.830526
634.336797	5643.894365
634.682336	5669.884033
635.027823	5692.279359
635.373257	5716.595365
635.718639	5731.043312
636.063968	5758.978866
636.409245	5738.910032
636.754470	5776.436382
637.099642	5797.596625
637.444762	5783.367968
637.789829	5837.303273
638.134845	5847.335169
638.479808	5886.212548
638.824719	5925.150420
639.169577	5915.204223
639.514383	5972.174303
639.859137	5975.367874
640.203839	6038.145363
640.548489	6051.988371
640.893086	6098.767758
641.237632	6115.993381
641.582125	6174.548904
641.926566	6195.547830
642.270955	6242.004583
642.615292	6282.842971
642.959576	6324.961811
643.303809	6370.939655
643.647990	6433.984325
643.992118	6476.342620
644.336195	6508.369070
