Dividing Wavelength (nm)	Counts (n)	Blue Motor Position (mm): 45.700000	Red Motor Position (mm): 0.000000	
326.493990	2130.247943
326.888308	2130.247943
327.282561	2130.247943
327.676750	2098.027408
328.070874	2098.289548
328.464933	2100.477408
328.858929	2106.252050
329.252859	2114.063318
329.646726	2126.303240
330.040528	2139.574077
330.434265	2155.703249
330.827938	2172.107163
331.221547	2188.432940
331.615091	2210.976980
332.008571	2230.420711
332.401986	2252.090110
332.795338	2268.199118
333.188625	2289.873558
333.581847	2307.298307
333.975006	2325.007880
334.368100	2343.957578
334.761129	2363.176977
335.154095	2376.722557
335.546996	2401.686351
335.939833	2423.343148
336.332606	2440.470468
336.725315	2451.898764
337.117960	2461.877728
337.510540	2471.322329
337.903056	2484.497385
338.295508	2489.599033
338.687896	2498.395846
339.080220	2507.888339
339.472480	2513.741118
339.864676	2515.873527
340.256807	2521.567510
340.648875	2525.973478
341.040879	2526.210412
341.432818	2529.187214
341.824694	2531.085208
342.216506	2529.683767
342.608253	2531.148223
342.999937	2529.557739
343.391557	2533.237781
343.783113	2528.796524
344.174605	2528.524302
344.566033	2528.143695
344.957397	2525.489528
345.348697	2524.128416
345.739934	2521.025586
346.131106	2522.744619
346.522215	2520.791172
346.913260	2516.342354
347.304241	2514.061232
347.695159	2512.440501
348.086012	2512.248937
348.476802	2510.701303
348.867528	2508.137876
349.258191	2506.388596
349.648789	2508.601662
350.039324	2503.918430
350.429796	2506.799450
350.820203	2501.723008
351.210548	2500.140085
351.600828	2501.228975
351.991045	2500.341732
352.381198	2499.310816
352.771288	2499.777122
353.161314	2498.010198
353.551276	2500.321567
353.941175	2499.041114
354.331010	2499.328460
354.720782	2496.830568
355.110490	2498.113542
355.500135	2497.226298
355.889717	2495.403921
356.279235	2502.375837
356.668689	2500.457678
357.058080	2501.029849
357.447408	2496.921309
357.836672	2496.220588
358.225873	2498.010198
358.615010	2497.841319
359.004084	2505.632423
359.393095	2500.586228
359.782043	2501.967504
360.170927	2502.196876
360.559748	2504.843482
360.948505	2506.081085
361.337199	2508.190808
361.725830	2506.166785
362.114398	2506.963287
362.502903	2507.994203
362.891344	2508.979749
363.279722	2507.578308
363.668037	2510.827332
364.056289	2508.165602
364.444478	2511.114677
364.832603	2511.737260
365.220665	2512.868999
365.608665	2511.346570
365.996601	2514.169617
366.384474	2512.856396
366.772284	2514.033505
367.160031	2510.915552
367.547715	2514.709020
367.935336	2515.762621
368.322893	2517.166582
368.710388	2515.427384
369.097820	2518.159690
369.485189	2516.554082
369.872495	2516.554082
370.259738	2520.347551
370.646918	2519.064577
371.034035	2518.580626
371.421090	2520.813857
371.808081	2520.632376
372.195010	2522.593385
372.581875	2521.285205
372.968678	2525.701256
373.355418	2525.166894
373.742096	2528.047913
374.128710	2529.151926
374.515262	2535.642411
374.901751	2539.241795
375.288177	2547.143804
375.674540	2549.223280
376.060841	2561.664848
376.447079	2570.212124
376.833254	2579.341653
377.219367	2586.457242
377.605417	2602.840992
377.991404	2612.625872
378.377329	2628.283696
378.763191	2636.987248
379.148991	2661.764519
379.534727	2677.815553
379.920402	2699.278265
380.306013	2716.773590
380.691563	2744.454565
381.077049	2766.653286
381.462474	2784.962757
381.847835	2816.404434
382.233134	2844.917200
382.618371	2856.562265
383.003545	2905.791653
383.388657	2923.407965
383.773706	2960.261320
384.158693	2985.129332
384.543618	3018.360618
384.928480	3058.392421
385.313280	3105.423866
385.698017	3118.583798
386.082692	3175.324505
386.467305	3194.818647
386.851856	3237.943198
387.236344	3268.943773
387.620770	3310.371976
388.005133	3346.375896
388.389435	3382.687327
388.773674	3408.671955
389.157851	3460.308494
389.541965	3487.863441
389.926018	3471.068837
390.310008	3547.008778
390.693936	3574.898962
391.077802	3623.394862
391.461606	3628.221767
391.845348	3692.892209
392.229027	3703.239177
392.612645	3723.935634
392.996200	3807.873366
393.379694	3850.463555
393.763125	3926.027930
394.146494	3897.366450
394.529801	3965.888334
394.913047	4014.396837
395.296230	3989.836335
395.679351	4045.399933
396.062410	4076.251794
396.445408	4059.305956
396.828343	4095.952623
397.211217	4122.194350
397.594028	4044.414387
397.976778	4110.569449
398.359466	4139.581289
398.742092	4171.416176
399.124656	4098.851287
399.507158	4175.312988
399.889598	4199.150084
400.271977	4263.646606
400.654294	4235.595106
401.036549	4243.489553
401.418742	4213.303123
401.800874	4315.048731
402.182944	4336.478676
402.564952	4405.502155
402.946898	4389.279722
403.328783	4386.426429
403.710606	4299.111123
404.092367	4493.767718
404.474067	4456.334630
404.855705	4462.905774
405.237282	4393.385742
405.618797	4500.986650
406.000250	4535.647103
406.381642	4617.175164
406.762972	4581.859360
407.144240	4592.899487
407.525447	4594.358901
407.906593	4649.335205
408.287677	4695.489489
408.668700	4619.783961
409.049661	4671.728010
409.430560	4713.824165
409.811399	4641.463443
410.192176	4801.915808
410.572891	4738.724945
410.953545	4845.068085
411.334138	4726.308583
411.714669	4793.557575
412.095139	4688.406667
412.475547	4830.332792
412.855894	4807.927384
413.236180	4820.842820
413.616405	4775.059061
413.996568	4859.382441
414.376670	4798.984377
414.756711	4759.491978
415.136691	4790.570691
415.516609	4864.773955
415.896466	4904.447836
416.276262	4940.416469
416.655997	4917.582562
417.035670	5102.688691
417.415283	5188.325292
417.794834	5134.284122
418.174324	5091.184778
418.553753	4994.871013
418.933121	5182.454868
419.312428	5244.864352
419.691674	5188.708419
420.070859	5308.944980
420.449983	5229.831632
420.829045	5338.395400
421.208047	5246.996761
421.586988	5323.710519
421.965867	5331.546993
422.344686	5463.718485
422.723444	5316.108459
423.102141	5137.465090
423.480777	5433.239669
423.859352	5202.992529
424.237866	5463.771417
424.616319	5453.724397
424.994712	5564.775976
425.373044	5441.076142
425.751314	5582.130148
426.129524	5385.578080
426.507673	5579.690229
426.885762	5658.715357
427.263789	5594.246561
427.641756	5473.377336
428.019662	5600.364001
428.397508	5604.969095
428.775292	5554.862547
429.153016	5650.931815
429.530679	5580.106124
429.908282	5663.577550
430.285824	5531.504360
430.663305	5807.537780
431.040726	5541.064908
431.418086	5543.961051
431.795385	5648.461650
432.172624	5661.203166
432.549802	5654.684954
432.926920	5669.304301
433.303977	5675.567934
433.680974	5715.831630
434.057910	5729.651953
434.434786	5736.661678
434.811601	5707.390218
435.188355	5944.115241
435.565050	5814.481970
435.941683	5796.469927
436.318257	6010.285426
436.694770	5994.930072
437.071222	6028.030288
437.447614	5959.178208
437.823946	5870.821905
438.200218	6024.040214
438.576429	5895.889043
438.952580	5992.938816
439.328670	6036.290218
439.704700	5942.950734
440.080670	5930.320123
440.456580	6201.201484
440.832429	6080.493576
441.208218	5928.732160
441.583947	6088.607313
441.959616	6082.568011
442.335224	6014.545201
442.710773	6153.746582
443.086261	6178.037382
443.461689	5973.689170
443.837057	6124.805318
444.212365	6281.224760
444.587612	6168.184447
444.962800	6320.200441
445.337927	6301.734695
445.712995	5914.105252
446.088002	6496.020764
446.462949	6323.812428
446.837837	6257.173415
447.212664	6425.454692
447.587431	6571.118833
447.962139	7107.424505
448.336786	8037.779530
448.711374	7774.008717
449.085901	6852.788263
449.460369	6772.523011
449.834776	6711.192333
450.209124	7099.126766
450.583412	7252.226608
450.957640	7395.662559
451.331808	7162.657907
451.705917	6712.898764
452.079965	6637.505788
452.453954	6845.478590
452.827883	6725.526854
453.201752	6815.327448
453.575562	6619.304702
453.949311	6820.726524
454.323001	6711.469597
454.696632	6782.658251
455.070202	6921.693274
455.443713	7082.538849
455.817164	7185.033069
456.190556	7266.213290
456.563888	7332.774164
456.937160	7372.964763
457.310373	7033.037239
457.683526	7060.456075
458.056619	6952.527492
458.429653	6939.957374
458.802628	6876.741305
459.175542	6986.310784
459.548398	7341.117274
459.921194	7499.114597
460.293930	7504.445618
460.666607	8031.742748
461.039224	8336.525868
461.411782	8468.851116
461.784280	8483.810740
462.156719	8374.362249
462.529099	8252.207529
462.901419	7838.762338
463.273680	7730.259063
463.645882	7745.495950
464.018024	7612.404448
464.390106	7776.597349
464.762130	8162.119589
465.134094	8632.676013
465.505999	9653.862547
465.877845	10879.893848
466.249631	11541.772142
466.621358	11142.169959
466.993026	10521.034270
467.364634	10261.175392
467.736184	9893.965143
468.107674	9565.234022
468.479105	9598.230894
468.850477	9364.097024
469.221790	9138.981779
469.593043	8803.591293
469.964238	8668.382506
470.335373	8680.445987
470.706449	8735.064368
471.077467	8717.286739
471.448425	10024.213435
471.819324	11096.275295
472.190164	11121.869233
472.560945	9868.204847
472.931667	9083.350126
473.302330	8949.830125
473.672934	8599.159902
474.043479	8956.504612
474.413965	8891.216629
474.784393	8780.946430
475.154761	8935.546015
475.525070	9021.343933
475.895321	8852.987039
476.265513	9027.423565
476.635645	9196.937404
477.005719	9198.797590
477.375734	9313.987955
477.745691	9549.142659
478.115588	9675.380713
478.485427	9922.727447
478.855207	10466.632659
479.224928	11281.920826
479.594591	11903.679098
479.964194	11718.514996
480.333739	11651.646611
480.703226	11570.012686
481.072653	11662.323775
481.442022	11898.184240
481.811333	12089.090215
482.180584	11887.691078
482.549777	11600.289856
482.918912	11423.408371
483.287988	11446.345621
483.657005	11459.248454
484.025964	11139.656944
484.394864	11272.335072
484.763706	11244.686864
485.132489	10997.582105
485.501213	10965.936262
485.869879	11036.421675
486.238487	10881.590196
486.607036	10990.537093
486.975527	10768.968299
487.343959	10962.412495
487.712333	11009.234732
488.080648	10949.449168
488.448905	10987.681279
488.817104	10924.308934
489.185244	11197.005110
489.553326	11344.274858
489.921350	11881.349307
490.289315	12948.710290
490.657222	13291.327270
491.025070	13199.603476
491.392861	13071.164958
491.760593	12692.047503
492.128267	12342.342661
492.495883	12011.118689
492.863440	11664.685555
493.230939	11334.409320
493.598380	11268.851635
493.965763	11133.559668
494.333088	11030.649554
494.700354	10955.243975
495.067563	11022.109839
495.434713	10842.344814
495.801805	10974.213837
496.168839	10901.417054
496.535815	10844.184835
496.902733	10835.589668
497.269593	10770.742785
497.636395	10866.602846
498.003139	10861.909532
498.369825	10720.427028
498.736453	10888.985569
499.103023	10812.143261
499.469535	10843.557211
499.835989	10827.881743
500.202385	10789.725250
500.568723	10645.023970
500.935003	10866.096210
501.301226	10669.672692
501.667390	10926.642988
502.033497	11026.213338
502.399546	10880.806297
502.765537	10798.693463
503.131470	10868.208453
503.497345	11037.124916
503.863163	10656.565692
504.228923	10958.054418
504.594625	11017.653459
504.960269	10768.275140
505.325856	10989.440642
505.691385	10785.866247
506.056856	10939.621439
506.422270	10965.860645
506.787625	10851.910403
507.152924	10967.015069
507.518164	10953.882863
507.883347	10871.218022
508.248472	10795.782196
508.613540	11025.429439
508.978550	10920.971690
509.343503	10887.528676
509.708398	11006.583085
510.073236	11121.450817
510.438016	11127.590942
510.802738	11078.243087
511.167403	11129.819132
511.532010	11022.918944
511.896561	11260.503484
512.261053	11329.300111
512.625488	11196.218690
512.989866	11177.183293
513.354186	11173.067191
513.718449	11068.246479
514.082655	11263.528176
514.446803	11155.581949
514.810894	11277.414035
515.174927	11143.551235
515.538904	11167.274905
515.902822	11319.411887
516.266684	11204.806296
516.630488	11143.639456
516.994235	11204.405524
517.357925	11265.448856
517.721558	11350.442710
518.085133	11368.651358
518.448651	11379.948583
518.812112	11254.108780
519.175516	11275.498396
519.538863	11396.624720
519.902152	11317.690333
520.265385	11473.204888
520.628560	11383.389171
520.991678	11359.554595
521.354739	11424.734194
521.717743	11360.056190
522.080690	11335.175575
522.443580	11475.060033
522.806413	11434.002355
523.169189	11461.423712
523.531908	11517.037721
523.894569	11336.466111
524.257174	11339.657161
524.619722	11460.849020
524.982213	11410.593758
525.344647	11461.050666
525.707025	11409.688870
526.069345	11505.490958
526.431608	11423.068093
526.793815	11528.062724
527.155964	11315.169756
527.518057	11378.484128
527.880093	11315.557925
528.242072	11388.785726
528.603995	11301.367077
528.965860	11218.092257
529.327669	11265.189237
529.689421	11219.342463
530.051117	11187.157216
530.412755	11287.703030
530.774337	11180.061792
531.135862	11163.194091
531.497331	11176.187665
531.858743	11031.889678
532.220098	11202.933507
532.581396	11069.708414
532.942638	11061.932434
533.303824	11024.849706
533.664953	11035.733558
534.026025	10949.827255
534.387040	11046.808973
534.747999	11044.968951
535.108902	11111.643252
535.469748	10864.276353
535.830537	10973.296347
536.191270	10947.334404
536.551947	10971.196706
536.912567	10978.201389
537.273131	10905.742364
537.633638	10879.041893
537.994089	10862.554799
538.354483	10811.782818
538.714821	10962.488113
539.075103	10966.775614
539.435328	10931.369070
539.795497	10758.742318
540.155609	10917.032028
540.515665	11007.480411
540.875665	10736.490665
541.235609	10805.723352
541.595496	10800.846035
541.955328	10960.723709
542.315102	10833.852990
542.674821	10794.138780
543.034483	10794.652978
543.394090	10797.387804
543.753640	10719.426359
544.113134	10943.727459
544.472571	10801.219081
544.831953	10948.977820
545.191278	10749.370813
545.550548	10779.370720
545.909761	10913.934239
546.268918	10888.864581
546.628019	10976.028652
546.987064	10840.260297
547.346053	10760.665518
547.704986	10858.345436
548.063863	10845.969403
548.422684	10833.162352
548.781449	10752.261915
549.140158	10863.000942
549.498811	10729.080169
549.857408	10591.925496
550.215949	10812.831378
550.574434	10668.843422
550.932864	10769.245562
551.291237	10834.536066
551.649555	10777.520616
552.007817	10793.213728
552.366022	10751.903993
552.724173	10749.511966
553.082267	10729.289377
553.440305	10868.097548
553.798288	10665.939717
554.156215	10820.050311
554.514086	10800.790583
554.871902	10645.669237
555.229661	10679.500421
555.587365	10666.826960
555.945014	10557.292769
556.302606	10682.522593
556.660143	10571.080325
557.017625	10726.947761
557.375050	10627.072421
557.732421	10756.201577
558.089735	10671.094297
558.446994	10668.351909
558.804197	10710.679958
559.161345	10714.178518
559.518437	10560.173789
559.875474	10651.234671
560.232455	10683.482933
560.589381	10632.630293
560.946251	10625.323141
561.303065	10730.005221
561.659825	10666.184213
562.016528	10601.581827
562.373177	10468.765067
562.729770	10596.500343
563.086307	10516.449341
563.442789	10603.683988
563.799216	10475.134565
564.155587	10524.116936
564.511904	10479.530451
564.868164	10470.486621
565.224370	10491.742646
565.580520	10410.144009
565.936615	10414.048383
566.292654	10285.478795
566.648638	10414.796994
567.004567	10374.712259
567.360441	10359.132573
567.716260	10270.630077
568.072023	10364.536690
568.427732	10317.502725
568.783385	10221.282222
569.138982	10294.094127
569.494525	10311.982662
569.850013	10184.176809
570.205445	10268.621177
570.560823	10163.737450
570.916145	10081.090254
571.271412	10151.429473
571.626625	10096.332182
571.981782	10072.190097
572.336884	10043.909223
572.691931	10051.193691
573.046923	10001.966823
573.401860	9952.755080
573.756743	9887.933403
574.111570	9931.168859
574.466342	9910.394264
574.821059	9940.857957
575.175722	9832.737809
575.530330	9841.038069
575.884882	9840.113017
576.239380	9764.437737
576.593823	9743.637936
576.948211	9758.390872
577.302544	9638.045927
577.656823	9659.256582
578.011047	9660.085852
578.365216	9632.445205
578.719330	9555.653309
579.073389	9563.698990
579.427394	9517.849696
579.781344	9490.514039
580.135239	9442.265156
580.489080	9448.957288
580.842866	9349.470117
581.196597	9353.059418
581.550273	9396.849401
581.903895	9361.846149
582.257463	9430.022714
582.610975	9308.180546
582.964434	9336.219444
583.317837	9260.957537
583.671186	9240.795442
584.024481	9235.290503
584.377721	9152.739088
584.730906	9128.637331
585.084037	9159.015324
585.437113	9099.920398
585.790135	9117.100651
586.143103	9011.455710
586.496016	8993.078184
586.848874	9050.534735
587.201679	9035.870018
587.554428	8921.312318
587.907124	8969.969534
588.259765	8943.783261
588.612352	8939.732694
588.964884	8815.276687
589.317362	8831.282351
589.669786	8832.101538
590.022155	8878.964105
590.374470	8896.693843
590.726731	8834.851488
591.078937	8681.688631
591.431090	8795.311198
591.783188	8672.347373
592.135232	8662.824633
592.487222	8657.256679
592.839157	8712.890853
593.191038	8648.086820
593.542866	8596.793080
593.894639	8495.770877
594.246358	8550.638796
594.598022	8559.513747
594.949633	8458.340310
595.301190	8434.470447
595.652692	8464.135116
596.004141	8572.325840
596.355535	8353.312911
596.706876	8335.628543
597.058162	8268.830734
597.409395	8342.804626
597.760573	8409.660408
598.111698	8314.901839
598.462768	8303.271897
598.813785	8267.179756
599.164748	8236.368224
599.515657	8225.517140
599.866511	8132.026422
600.217312	8265.891741
600.568060	8115.055377
600.918753	8221.317859
601.269392	8194.309877
601.619978	8101.605579
601.970510	8169.252822
602.320988	8165.676123
602.671412	8221.648055
603.021783	8162.202768
603.372100	8128.643807
603.722363	8132.918706
604.072572	8106.160261
604.422728	8113.785006
604.772830	8048.582723
605.122878	8051.410810
605.472872	8046.979636
605.822813	8078.993483
606.172701	8023.208075
606.522534	8099.326977
606.872314	8092.138292
607.222041	8067.171977
607.571714	8121.848332
607.921333	8081.672856
608.270899	8090.714166
608.620411	8177.540479
608.969870	8083.326355
609.319276	8074.900066
609.668627	8084.629493
610.017926	8130.408211
610.367171	8171.813728
610.716362	8149.083166
611.065500	8137.556567
611.414585	8168.126124
611.763616	8156.082808
612.112594	8140.099829
612.461518	8151.230697
612.810389	8217.486582
613.159207	8151.429823
613.507971	8103.198583
613.856682	8225.890186
614.205340	8170.424890
614.553945	8258.662727
614.902496	8150.769432
615.250994	8207.706744
615.599439	8186.168414
615.947830	8201.337246
616.296169	8178.064759
616.644454	8193.110083
616.992686	8190.720576
617.340864	8242.470541
617.688990	8150.560224
618.037063	8237.746979
618.385082	8186.972478
618.733048	8274.252495
619.080961	8213.559523
619.428821	8229.867656
619.776628	8232.781443
620.124382	8183.625152
620.472083	8164.438520
620.819731	8199.161988
621.167326	8091.707273
621.514868	8100.549457
621.862357	7984.466807
622.209793	8000.563212
622.557176	7933.684744
622.904506	7905.686176
623.251783	7841.809715
623.599007	7800.550392
623.946179	7795.524361
624.293297	7761.864577
624.640363	7675.529776
624.987376	7650.933987
625.334336	7601.916327
625.681243	7546.241824
626.028097	7540.240330
626.374899	7522.422372
626.721647	7506.953592
627.068343	7438.439270
627.414987	7413.392297
627.761577	7368.135338
628.108115	7404.098930
628.454600	7297.090357
628.801032	7348.799993
629.147412	7313.360681
629.493739	7303.540513
629.840014	7234.842189
630.186236	7293.236395
630.532405	7178.595515
630.878521	7230.836992
631.224585	7182.673809
631.570597	7111.114630
631.916556	7138.619165
632.262462	7138.994731
632.608316	7100.117353
632.954117	7074.218425
633.299866	7062.729635
633.645562	7055.256125
633.991206	6975.439536
634.336797	6919.283602
634.682336	6874.772735
635.027823	6845.690318
635.373257	6837.785789
635.718639	6768.328771
636.063968	6781.907119
636.409245	6675.629514
636.754470	6670.437125
637.099642	6629.150075
637.444762	6575.648309
637.789829	6581.896820
638.134845	6524.750300
638.479808	6507.239852
638.824719	6516.558425
639.169577	6444.888340
639.514383	6461.907276
639.859137	6384.709566
640.203839	6401.088275
640.548489	6385.901799
