Dividing Wavelength (nm)	Counts (n)	Blue Motor Position (mm): 0.200000	Red Motor Position (mm): 0.000000	
326.493990	2144.229583
326.888308	2144.229583
327.282561	2144.229583
327.676750	2111.709099
328.070874	2110.675663
328.464933	2112.278750
328.858929	2119.197733
329.252859	2127.697119
329.646726	2139.614406
330.040528	2154.367343
330.434265	2171.240085
330.827938	2186.469411
331.221547	2205.774509
331.615091	2225.893754
332.008571	2244.241034
332.401986	2262.910947
332.795338	2280.607918
333.188625	2303.439303
333.581847	2319.833136
333.975006	2338.044304
334.368100	2357.107427
334.761129	2375.449666
335.154095	2392.947511
335.546996	2408.554923
335.939833	2421.833322
336.332606	2437.932247
336.725315	2451.054370
337.117960	2457.847325
337.510540	2468.564818
337.903056	2480.421612
338.295508	2486.521408
338.687896	2497.279231
339.080220	2506.872546
339.472480	2509.060407
339.864676	2516.929648
340.256807	2521.335617
340.648875	2520.949968
341.040879	2523.596574
341.432818	2526.769981
341.824694	2531.007070
342.216506	2526.835516
342.608253	2529.819879
342.999937	2529.020856
343.391557	2525.923067
343.783113	2526.858201
344.174605	2524.400638
344.566033	2525.708818
344.957397	2523.583971
345.348697	2520.821419
345.739934	2519.533404
346.131106	2517.695904
346.522215	2516.405368
346.913260	2515.893691
347.304241	2509.914883
347.695159	2512.148114
348.086012	2508.573936
348.476802	2506.703668
348.867528	2505.584532
349.258191	2502.471619
349.648789	2504.266270
350.039324	2499.066320
350.429796	2500.316526
350.820203	2500.268635
351.210548	2498.042965
351.600828	2500.220744
351.991045	2495.174549
352.381198	2495.514827
352.771288	2493.962151
353.161314	2495.766884
353.551276	2493.437871
353.941175	2494.851915
354.331010	2495.310660
354.720782	2495.814775
355.110490	2495.809734
355.500135	2496.273520
355.889717	2496.628922
356.279235	2496.649086
356.668689	2496.611278
357.058080	2493.919302
357.447408	2493.954590
357.836672	2492.480052
358.225873	2495.267810
358.615010	2491.060967
359.004084	2498.514313
359.393095	2498.259735
359.782043	2500.099756
360.170927	2497.342245
360.559748	2498.317708
360.948505	2499.048676
361.337199	2500.485404
361.725830	2499.799807
362.114398	2499.882987
362.502903	2502.365755
362.891344	2500.636639
363.279722	2502.627895
363.668037	2505.317350
364.056289	2505.897083
364.444478	2502.658142
364.832603	2504.241064
365.220665	2507.883298
365.608665	2506.872546
365.996601	2506.171826
366.384474	2504.447751
366.772284	2506.650736
367.160031	2503.063955
367.547715	2510.182064
367.935336	2508.636950
368.322893	2509.078051
368.710388	2509.125942
369.097820	2509.468741
369.485189	2509.105778
369.872495	2508.641991
370.259738	2508.725170
370.646918	2508.006806
371.034035	2510.696262
371.421090	2510.560150
371.808081	2511.152486
372.195010	2508.641991
372.581875	2510.608041
372.968678	2510.509739
373.355418	2508.092506
373.742096	2512.541324
374.128710	2511.770027
374.515262	2511.039060
374.901751	2513.375635
375.288177	2513.221880
375.674540	2512.503515
376.060841	2512.019564
376.447079	2512.087620
376.833254	2513.418485
377.219367	2508.450427
377.605417	2513.055522
377.991404	2511.076869
378.377329	2513.428567
378.763191	2506.927999
379.148991	2514.068793
379.534727	2513.940244
379.920402	2514.991325
380.306013	2513.378155
380.691563	2515.034174
381.077049	2513.037877
381.462474	2515.976870
381.847835	2516.060049
382.233134	2513.592404
382.618371	2514.638444
383.003545	2517.912673
383.388657	2517.141377
383.773706	2519.654392
384.158693	2517.544669
384.543618	2521.731347
384.928480	2516.201202
385.313280	2518.038702
385.698017	2516.700276
386.082692	2518.721778
386.467305	2516.531397
386.851856	2519.551048
387.236344	2520.433250
387.620770	2519.001563
388.005133	2518.542817
388.389435	2519.198168
388.773674	2518.479803
389.157851	2519.140194
389.541965	2517.857221
389.926018	2520.125740
390.310008	2522.127078
390.693936	2519.735050
391.077802	2521.723786
391.461606	2521.965761
391.845348	2520.425688
392.229027	2522.638755
392.612645	2522.028775
392.996200	2522.918539
393.379694	2520.818898
393.763125	2523.742768
394.146494	2520.360153
394.529801	2525.255114
394.913047	2523.102541
395.296230	2525.257634
395.679351	2521.517098
396.062410	2522.154804
396.445408	2523.621780
396.828343	2525.401307
397.211217	2518.820081
397.594028	2519.702283
397.976778	2519.457787
398.359466	2525.343334
398.742092	2519.697242
399.124656	2525.726462
399.507158	2525.441637
399.889598	2525.199661
400.271977	2523.919208
400.654294	2526.623787
401.036549	2526.099507
401.418742	2526.220495
401.800874	2525.708818
402.182944	2526.132275
402.564952	2521.935514
402.946898	2526.228057
403.328783	2528.355423
403.710606	2528.146216
404.092367	2525.993643
404.474067	2528.804086
404.855705	2524.884589
405.237282	2529.003212
405.618797	2525.640762
406.000250	2526.502799
406.381642	2528.350382
406.762972	2528.063037
407.144240	2529.676206
407.525447	2528.988088
407.906593	2530.359282
408.287677	2531.004550
408.668700	2530.923891
409.049661	2530.021525
409.430560	2528.307533
409.811399	2531.145702
410.192176	2528.040351
410.572891	2529.098994
410.953545	2528.652852
411.334138	2531.581762
411.714669	2529.323325
412.095139	2528.310053
412.475547	2530.908768
412.855894	2530.336597
413.236180	2530.220650
413.616405	2533.084026
413.996568	2530.762574
414.376670	2530.170239
414.756711	2530.359282
415.136691	2533.691485
415.516609	2530.555887
415.896466	2531.952287
416.276262	2531.377595
416.655997	2529.824920
417.035670	2526.147398
417.415283	2530.281144
417.794834	2528.587317
418.174324	2531.556556
418.553753	2533.668800
418.933121	2531.672503
419.312428	2532.290044
419.691674	2532.834489
420.070859	2533.686444
420.449983	2533.386495
420.829045	2531.342307
421.208047	2532.095960
421.586988	2533.991433
421.965867	2533.555374
422.344686	2534.109901
422.723444	2532.710980
423.102141	2535.108049
423.480777	2536.900179
423.859352	2535.385313
424.237866	2532.484128
424.616319	2531.763243
424.994712	2533.749458
425.373044	2536.267514
425.751314	2534.830786
426.129524	2536.307844
426.507673	2533.719211
426.885762	2533.043697
427.263789	2534.939170
427.641756	2534.563604
428.019662	2535.541588
428.397508	2535.859181
428.775292	2539.307330
429.153016	2534.818183
429.530679	2535.642411
429.908282	2537.096784
430.285824	2538.145344
430.663305	2535.012267
431.040726	2535.413039
431.418086	2535.357586
431.795385	2536.544778
432.172624	2536.746424
432.549802	2539.307330
432.926920	2537.938657
433.303977	2539.151054
433.680974	2539.539223
434.057910	2534.906403
434.434786	2535.370189
434.811601	2538.092412
435.188355	2538.132741
435.565050	2538.667104
435.941683	2539.468647
436.318257	2537.447144
436.694770	2533.757020
437.071222	2535.095446
437.447614	2533.373892
437.823946	2533.809952
438.200218	2539.065355
438.576429	2539.027546
438.952580	2539.405633
439.328670	2541.079296
439.704700	2539.778678
440.080670	2538.619213
440.456580	2540.315561
440.832429	2538.304141
441.208218	2537.391692
441.583947	2540.010571
441.959616	2539.526620
442.335224	2538.959491
442.710773	2540.192053
443.086261	2539.209028
443.461689	2537.187525
443.837057	2538.901517
444.212365	2538.276414
444.587612	2539.536703
444.962800	2542.168185
445.337927	2541.016281
445.712995	2541.200283
446.088002	2542.624409
446.462949	2540.365972
446.837837	2542.715150
447.212664	2539.027546
447.587431	2541.545602
447.962139	2542.677342
448.336786	2541.911086
448.711374	2543.264636
449.085901	2542.720191
449.460369	2540.537372
449.834776	2539.801363
450.209124	2542.730274
450.583412	2540.222300
450.957640	2541.895963
451.331808	2537.842875
451.705917	2541.606096
452.079965	2540.343287
452.453954	2543.831766
452.827883	2542.208514
453.201752	2542.531148
453.575562	2543.486447
453.949311	2539.934954
454.323001	2544.172044
454.696632	2540.907897
455.070202	2542.221117
455.443713	2543.612476
455.817164	2540.534851
456.190556	2538.410005
456.563888	2539.793802
456.937160	2537.938657
457.310373	2539.387989
457.683526	2542.962167
458.056619	2542.707588
458.429653	2544.406457
458.802628	2546.501057
459.175542	2543.037784
459.548398	2544.429142
459.921194	2543.521735
460.293930	2542.793288
460.666607	2543.509132
461.039224	2544.983669
461.411782	2541.593493
461.784280	2543.415871
462.156719	2543.650284
462.529099	2545.331509
462.901419	2544.776982
463.273680	2544.701365
463.645882	2544.537527
464.018024	2543.085675
464.390106	2546.765717
464.762130	2544.645912
465.134094	2544.068700
465.505999	2545.767569
465.877845	2543.919986
466.249631	2545.308824
466.621358	2545.457538
466.993026	2547.113557
467.364634	2548.774617
467.736184	2545.336550
468.107674	2545.142466
468.479105	2545.245809
468.850477	2542.715150
469.221790	2546.977446
469.593043	2547.965512
469.964238	2547.282436
470.335373	2542.311858
470.706449	2545.573484
471.077467	2544.487116
471.448425	2544.908052
471.819324	2545.598690
472.190164	2547.383259
472.560945	2545.134904
472.931667	2543.683052
473.302330	2545.495347
473.672934	2544.567774
474.043479	2547.098433
474.413965	2545.218083
474.784393	2541.424615
475.154761	2544.363607
475.525070	2542.160623
475.895321	2541.895963
476.265513	2542.379913
476.635645	2545.102137
477.005719	2547.456355
477.375734	2549.392158
477.745691	2546.133052
478.115588	2549.034237
478.485427	2546.990049
478.855207	2548.290666
479.224928	2544.751776
479.594591	2547.148845
479.964194	2543.448638
480.333739	2546.768238
480.703226	2545.868392
481.072653	2547.027857
481.442022	2546.269164
481.811333	2545.563402
482.180584	2545.260933
482.549777	2545.888557
482.918912	2546.848896
483.287988	2549.752601
483.657005	2546.995090
484.025964	2548.467107
484.394864	2549.157745
484.763706	2552.903322
485.132489	2546.180943
485.501213	2548.293187
485.869879	2547.715975
486.238487	2546.876623
486.607036	2546.228834
486.975527	2548.293187
487.343959	2546.163299
487.712333	2547.463917
488.080648	2547.917621
488.448905	2549.593805
488.817104	2547.456355
489.185244	2549.251006
489.553326	2549.452652
489.921350	2548.446942
490.289315	2547.912580
490.657222	2547.726057
491.025070	2549.205636
491.392861	2548.862837
491.760593	2549.198074
492.128267	2548.262940
492.495883	2551.282591
492.863440	2549.598846
493.230939	2548.325954
493.598380	2548.991387
493.965763	2544.532486
494.333088	2543.821683
494.700354	2545.089534
495.067563	2545.886036
495.434713	2545.255892
495.801805	2547.254709
496.168839	2549.082128
496.535815	2546.480892
496.902733	2547.670604
497.269593	2549.303938
497.636395	2546.564071
498.003139	2549.127498
498.369825	2548.083979
498.736453	2549.026675
499.103023	2546.369987
499.469535	2546.828732
499.835989	2551.247303
500.202385	2551.307797
500.568723	2552.003476
500.935003	2551.794268
501.301226	2550.619679
501.667390	2549.606408
502.033497	2549.114895
502.399546	2550.488609
502.765537	2549.210677
503.131470	2550.231511
503.497345	2550.402910
503.863163	2549.934082
504.228923	2549.513146
504.594625	2547.940306
504.960269	2551.022972
505.325856	2552.472303
505.691385	2550.065152
506.056856	2550.576830
506.422270	2549.704710
506.787625	2547.640357
507.152924	2547.632796
507.518164	2550.108002
507.883347	2548.114226
508.248472	2550.347457
508.613540	2548.638506
508.978550	2550.780996
509.343503	2552.333672
509.708398	2551.123795
510.073236	2550.362581
510.438016	2549.876109
510.802738	2552.666388
511.167403	2550.080276
511.532010	2550.566747
511.896561	2553.508261
512.261053	2551.587581
512.625488	2551.254865
512.989866	2546.261602
513.354186	2545.500388
513.718449	2544.887888
514.082655	2549.319062
514.446803	2549.301418
514.810894	2552.099258
515.174927	2550.657488
515.538904	2552.855431
515.902822	2549.568599
516.266684	2551.481717
516.630488	2550.191181
516.994235	2550.551624
517.357925	2548.106664
517.721558	2552.931048
518.085133	2551.242262
518.448651	2549.112374
518.812112	2550.637323
519.175516	2551.413661
519.538863	2551.030533
519.902152	2551.156562
520.265385	2551.363250
520.628560	2551.295194
520.991678	2550.775955
521.354739	2549.535831
521.717743	2550.344937
522.080690	2549.742519
522.443580	2551.564896
522.806413	2550.896943
523.169189	2550.276881
523.531908	2550.007179
523.894569	2551.146480
524.257174	2550.992725
524.619722	2549.878630
524.982213	2552.220246
525.344647	2550.614638
525.707025	2552.313507
526.069345	2551.670760
526.431608	2548.764535
526.793815	2553.162942
527.155964	2551.655637
527.518057	2552.656306
527.880093	2550.491130
528.242072	2551.937941
528.603995	2551.456511
528.965860	2552.918446
529.327669	2550.715461
529.689421	2552.157231
530.051117	2550.939793
530.412755	2551.244783
530.774337	2551.043136
531.135862	2553.016748
531.497331	2552.971378
531.858743	2548.406613
532.220098	2549.049360
532.581396	2548.835111
532.942638	2548.686397
533.303824	2551.554813
533.664953	2551.398538
534.026025	2551.821995
534.387040	2552.936090
534.747999	2551.854762
535.108902	2551.771583
535.469748	2552.512633
535.830537	2552.195040
536.191270	2552.860472
536.551947	2552.699155
536.912567	2552.374001
537.273131	2554.324927
537.633638	2554.645041
537.994089	2551.390976
538.354483	2550.687735
538.714821	2550.062632
539.075103	2551.418702
539.435328	2549.692107
539.795497	2554.750905
540.155609	2551.519525
540.515665	2552.232849
540.875665	2551.869886
541.235609	2553.193188
541.595496	2555.575134
541.955328	2556.333827
542.315102	2553.490617
542.674821	2553.024310
543.034483	2554.125802
543.394090	2552.154711
543.753640	2554.859290
544.113134	2554.755946
544.472571	2552.648744
544.831953	2550.246634
545.191278	2551.103630
545.550548	2552.310987
545.909761	2551.297715
546.268918	2551.275029
546.628019	2554.075390
546.987064	2552.898281
547.346053	2552.953734
547.704986	2553.445246
548.063863	2554.105637
548.422684	2552.124464
548.781449	2551.753939
549.140158	2551.600184
549.498811	2552.366439
549.857408	2551.461552
550.215949	2548.676315
550.574434	2549.644216
550.932864	2549.477858
551.291237	2550.259237
551.649555	2555.486913
552.007817	2554.392983
552.366022	2553.873744
552.724173	2552.467262
553.082267	2555.186965
553.440305	2552.038764
553.798288	2556.774928
554.156215	2549.780327
554.514086	2552.038764
554.871902	2550.755791
555.229661	2552.220246
555.587365	2553.127653
555.945014	2552.530277
556.302606	2551.915256
556.660143	2552.515153
557.017625	2552.966337
557.375050	2554.014897
557.732421	2550.854093
558.089735	2555.764177
558.446994	2553.762839
558.804197	2553.069680
559.161345	2553.127653
559.518437	2554.549259
559.875474	2553.717468
560.232455	2553.606563
560.589381	2552.724361
560.946251	2554.390463
561.303065	2554.861810
561.659825	2552.772252
562.016528	2553.392314
562.373177	2552.119423
562.729770	2553.112530
563.086307	2552.885678
563.442789	2554.120761
563.799216	2553.450287
564.155587	2550.735626
564.511904	2553.256203
564.868164	2553.185627
565.224370	2552.358878
565.580520	2552.394166
565.936615	2553.223435
566.292654	2552.003476
566.648638	2553.735113
567.004567	2554.130843
567.360441	2552.749567
567.716260	2552.752088
568.072023	2548.767055
568.427732	2549.321582
568.783385	2553.588919
569.138982	2549.442570
569.494525	2550.947354
569.850013	2550.072714
570.205445	2552.573127
570.560823	2550.700338
570.916145	2554.093034
571.271412	2554.130843
571.626625	2555.073539
571.981782	2552.847869
572.336884	2552.031202
572.691931	2555.761656
573.046923	2552.361398
573.401860	2554.927345
573.756743	2553.210833
574.111570	2553.528425
574.466342	2549.598846
574.821059	2553.329300
575.175722	2553.046995
575.530330	2553.651933
575.884882	2554.191337
576.239380	2553.198230
576.593823	2557.765515
576.948211	2552.981460
577.302544	2556.245607
577.656823	2552.928528
578.011047	2554.140925
578.365216	2551.680842
578.719330	2552.031203
579.073389	2552.346275
579.427394	2550.836449
579.781344	2553.687222
580.135239	2553.840977
580.489080	2553.326779
580.842866	2552.691594
581.196597	2554.582026
581.550273	2554.176213
581.903895	2555.706204
582.257463	2551.867365
582.610975	2552.999104
582.964434	2551.915256
583.317837	2553.374670
583.671186	2554.766028
584.024481	2551.514484
584.377721	2553.152859
584.730906	2550.672612
585.084037	2551.577499
585.437113	2554.944989
585.790135	2554.408107
586.143103	2554.708055
586.496016	2554.992880
586.848874	2550.324772
587.201679	2550.680173
587.554428	2547.292518
587.907124	2552.121943
588.259765	2550.954916
588.612352	2552.742005
588.964884	2552.653785
589.317362	2555.166800
589.669786	2555.002963
590.022155	2552.646223
590.374470	2553.614125
590.726731	2554.201419
591.078937	2552.431974
591.431090	2555.514640
591.783188	2556.149825
592.135232	2553.294012
592.487222	2552.663867
592.839157	2553.588919
593.191038	2552.868034
593.542866	2553.727551
593.894639	2551.338044
594.246358	2551.980791
594.598022	2550.571788
594.949633	2553.566234
595.301190	2553.205791
595.652692	2553.185627
596.004141	2551.446429
596.355535	2555.053374
596.706876	2554.476162
597.058162	2554.481203
597.409395	2554.133364
597.760573	2552.842828
598.111698	2551.529608
598.462768	2551.892571
598.813785	2550.201264
599.164748	2552.154711
599.515657	2553.498178
599.866511	2554.458518
600.217312	2554.955072
600.568060	2550.607077
600.918753	2556.159907
601.269392	2551.892571
601.619978	2553.689742
601.970510	2552.956254
602.320988	2554.881975
602.671412	2553.576316
603.021783	2553.848538
603.372100	2551.905174
603.722363	2555.343241
604.072572	2553.251162
604.422728	2555.063457
604.772830	2551.343085
605.122878	2549.253527
605.472872	2550.813764
605.822813	2550.392827
606.172701	2553.195709
606.522534	2553.853580
606.872314	2554.529094
607.222041	2552.953734
607.571714	2553.351985
607.921333	2555.474311
608.270899	2553.351985
608.620411	2556.326266
608.969870	2555.887685
609.319276	2554.531615
609.668627	2558.020093
610.017926	2558.824157
610.367171	2563.136864
610.716362	2561.329611
611.065500	2558.846842
611.414585	2555.973385
611.763616	2557.788200
612.112594	2555.897768
612.461518	2555.383570
612.810389	2556.374157
613.159207	2555.854918
613.507971	2555.378529
613.856682	2557.316852
614.205340	2554.927345
614.553945	2555.141594
614.902496	2556.207798
615.250994	2555.847356
615.599439	2554.687891
615.947830	2553.238559
616.296169	2552.154711
616.644454	2555.945658
616.992686	2553.813250
617.340864	2553.601522
617.688990	2551.859803
618.037063	2554.564382
618.385082	2553.543549
618.733048	2554.173693
619.080961	2555.658313
619.428821	2554.324928
619.776628	2555.814588
620.124382	2553.046995
620.472083	2553.009186
620.819731	2554.849208
621.167326	2554.962633
621.514868	2554.841646
621.862357	2553.566234
622.209793	2555.128992
622.557176	2555.728889
622.904506	2550.241593
623.251783	2552.648744
623.599007	2550.213867
623.946179	2549.646737
624.293297	2551.758980
624.640363	2554.367777
624.987376	2555.083621
625.334336	2552.237890
625.681243	2554.009855
626.028097	2553.372149
626.374899	2553.541028
626.721647	2551.852242
627.068343	2553.752757
627.414987	2552.721841
627.761577	2551.650595
628.108115	2552.825184
628.454600	2554.637479
628.801032	2553.914073
629.147412	2554.395504
629.493739	2553.251162
629.840014	2554.851728
630.186236	2553.021789
630.532405	2551.022972
630.878521	2552.724361
631.224585	2554.019938
631.570597	2555.234856
631.916556	2556.366595
632.262462	2552.885678
632.608316	2553.467931
632.954117	2552.089176
633.299866	2555.280226
633.645562	2551.895091
633.991206	2553.110009
634.336797	2550.889381
634.682336	2554.087993
635.027823	2550.589432
635.373257	2552.084135
635.718639	2553.334341
636.063968	2554.282078
636.409245	2552.018600
636.754470	2552.666388
637.099642	2551.922818
637.444762	2549.881150
637.789829	2552.565565
638.134845	2554.287119
638.479808	2549.911397
638.824719	2551.232180
639.169577	2551.320400
639.514383	2555.106306
639.859137	2553.662016
640.203839	2553.619166
640.548489	2552.197561
640.893086	2548.388969
641.237632	2545.480223
641.582125	2550.085317
641.926566	2546.357384
642.270955	2554.171172
642.615292	2552.744526
642.959576	2553.178065
643.303809	2552.615976
643.647990	2553.009186
643.992118	2550.985163
644.336195	2554.854249
