Dividing Wavelength (nm)	Counts (n)	Blue Motor Position (mm): 12.400000	Red Motor Position (mm): 0.000000	
326.493990	2166.859322
326.888308	2166.859322
327.282561	2166.859322
327.676750	2125.529423
328.070874	2119.043978
328.464933	2122.945831
328.858929	2123.127313
329.252859	2128.627212
329.646726	2140.342853
330.040528	2150.571354
330.434265	2164.573159
330.827938	2182.892712
331.221547	2196.982737
331.615091	2215.904708
332.008571	2235.250136
332.401986	2251.853176
332.795338	2274.155241
333.188625	2290.949845
333.581847	2311.323668
333.975006	2329.675989
334.368100	2347.506550
334.761129	2363.587831
335.154095	2381.090717
335.546996	2402.596279
335.939833	2423.645617
336.332606	2440.798143
336.725315	2454.696604
337.117960	2463.939560
337.510540	2477.109574
337.903056	2488.258086
338.295508	2497.720332
338.687896	2504.934223
339.080220	2514.136849
339.472480	2521.945596
339.864676	2524.193951
340.256807	2531.675023
340.648875	2533.668800
341.040879	2535.859181
341.432818	2539.803884
341.824694	2543.504091
342.216506	2543.735984
342.608253	2541.651467
342.999937	2544.905532
343.391557	2544.313196
343.783113	2545.389482
344.174605	2543.801519
344.566033	2541.026364
344.957397	2542.853782
345.348697	2542.727753
345.739934	2539.309851
346.131106	2538.891435
346.522215	2534.558563
346.913260	2532.867256
347.304241	2530.913809
347.695159	2529.769467
348.086012	2527.052285
348.476802	2524.556914
348.867528	2522.532891
349.258191	2519.082221
349.648789	2518.741943
350.039324	2514.953516
350.429796	2517.844618
350.820203	2511.616272
351.210548	2515.271109
351.600828	2510.141735
351.991045	2516.470903
352.381198	2516.228928
352.771288	2511.039060
353.161314	2511.462517
353.551276	2514.421674
353.941175	2510.177023
354.331010	2513.516787
354.720782	2511.860768
355.110490	2510.154338
355.500135	2509.430932
355.889717	2509.791374
356.279235	2509.657784
356.668689	2511.903618
357.058080	2512.329595
357.447408	2511.868330
357.836672	2510.948319
358.225873	2510.476971
358.615010	2511.066786
359.004084	2512.508556
359.393095	2515.094668
359.782043	2513.534431
360.170927	2513.544513
360.559748	2513.196674
360.948505	2517.189268
361.337199	2517.174144
361.725830	2516.818743
362.114398	2515.417302
362.502903	2516.110461
362.891344	2517.040554
363.279722	2517.335461
363.668037	2518.235307
364.056289	2517.736233
364.444478	2521.023065
364.832603	2520.861748
365.220665	2519.263703
365.608665	2519.949299
365.996601	2524.078004
366.384474	2522.142201
366.772284	2521.567510
367.160031	2523.168076
367.547715	2521.330576
367.935336	2520.763446
368.322893	2521.350740
368.710388	2520.352592
369.097820	2521.673374
369.485189	2519.044412
369.872495	2521.161697
370.259738	2523.558766
370.646918	2524.693025
371.034035	2526.510361
371.421090	2525.184538
371.808081	2523.558766
372.195010	2525.539939
372.581875	2527.453057
372.968678	2527.551359
373.355418	2526.585978
373.742096	2524.816533
374.128710	2525.602953
374.515262	2526.873324
374.901751	2526.611184
375.288177	2530.492873
375.674540	2528.257121
376.060841	2529.388860
376.447079	2527.611853
376.833254	2528.650331
377.219367	2530.482790
377.605417	2528.483973
377.991404	2529.179652
378.377329	2531.639735
378.763191	2527.503468
379.148991	2530.525640
379.534727	2530.734848
379.920402	2531.533871
380.306013	2531.148223
380.691563	2529.759385
381.077049	2530.613860
381.462474	2528.607481
381.847835	2530.908768
382.233134	2527.009435
382.618371	2530.888603
383.003545	2531.344828
383.388657	2529.666123
383.773706	2535.080323
384.158693	2530.807945
384.543618	2531.117976
384.928480	2533.903213
385.313280	2530.840712
385.698017	2535.705426
386.082692	2532.589993
386.467305	2532.837009
386.851856	2534.457740
387.236344	2532.703419
387.620770	2532.332894
388.005133	2530.142513
388.389435	2532.027904
388.773674	2529.396422
389.157851	2537.225334
389.541965	2535.254242
389.926018	2535.100487
390.310008	2540.212217
390.693936	2538.034439
391.077802	2535.697864
391.461606	2534.815662
391.845348	2536.446475
392.229027	2534.588810
392.612645	2535.990251
392.996200	2538.523431
393.379694	2537.003523
393.763125	2536.282638
394.146494	2536.123842
394.529801	2539.287166
394.913047	2538.725077
395.296230	2538.026877
395.679351	2537.321116
396.062410	2537.631147
396.445408	2538.619213
396.828343	2538.246167
397.211217	2537.300951
397.594028	2538.876312
397.976778	2539.889583
398.359466	2540.441590
398.742092	2542.710109
399.124656	2540.174409
399.507158	2539.393030
399.889598	2541.051569
400.271977	2539.234233
400.654294	2540.217258
401.036549	2540.968390
401.418742	2542.027033
401.800874	2539.728267
402.182944	2542.163144
402.564952	2541.154913
402.946898	2539.274563
403.328783	2543.380582
403.710606	2544.212373
404.092367	2540.721374
404.474067	2540.998637
404.855705	2543.879657
405.237282	2542.558874
405.618797	2543.173895
406.000250	2544.764379
406.381642	2543.544420
406.762972	2543.005017
407.144240	2538.974614
407.525447	2541.268339
407.906593	2537.343801
408.287677	2545.954092
408.668700	2544.787064
409.049661	2546.254040
409.430560	2543.516694
409.811399	2544.966025
410.192176	2545.308824
410.572891	2548.121788
410.953545	2544.739173
411.334138	2545.611293
411.714669	2544.469472
412.095139	2546.269164
412.475547	2545.253371
412.855894	2547.690769
413.236180	2545.011396
413.616405	2549.127498
413.996568	2547.544576
414.376670	2545.492826
414.756711	2545.482744
415.136691	2547.131201
415.516609	2545.371838
415.896466	2549.097251
416.276262	2545.167672
416.655997	2549.888712
417.035670	2547.007693
417.415283	2546.808567
417.794834	2551.411141
418.174324	2547.947868
418.553753	2545.714637
418.933121	2548.436860
419.312428	2547.889895
419.691674	2546.392672
420.070859	2548.603218
420.449983	2545.119781
420.829045	2548.071376
421.208047	2550.612118
421.586988	2549.813095
421.965867	2550.730585
422.344686	2547.002652
422.723444	2548.749411
423.102141	2549.830739
423.480777	2554.987839
423.859352	2550.097920
424.237866	2547.451314
424.616319	2552.409289
424.994712	2553.077242
425.373044	2549.308979
425.751314	2548.089020
426.129524	2544.648433
426.507673	2546.329658
426.885762	2544.915614
427.263789	2552.628579
427.641756	2552.222766
428.019662	2551.219577
428.397508	2552.018600
428.775292	2548.981304
429.153016	2551.963147
429.530679	2553.099927
429.908282	2551.761501
430.285824	2553.150339
430.663305	2551.917777
431.040726	2551.091027
431.418086	2551.703528
431.795385	2552.618497
432.172624	2551.733774
432.549802	2553.379711
432.926920	2551.406099
433.303977	2555.239897
433.680974	2553.543549
434.057910	2552.487427
434.434786	2549.568599
434.811601	2554.942469
435.188355	2553.256203
435.565050	2552.648744
435.941683	2554.418189
436.318257	2554.103117
436.694770	2552.558003
437.071222	2553.626728
437.447614	2551.048177
437.823946	2553.558672
438.200218	2551.063301
438.576429	2556.225443
438.952580	2554.854249
439.328670	2554.458518
439.704700	2553.278888
440.080670	2553.344423
440.456580	2556.981616
440.832429	2555.731409
441.208218	2555.353323
441.583947	2554.118240
441.959616	2554.123281
442.335224	2553.205791
442.710773	2555.184444
443.086261	2553.997252
443.461689	2554.768549
443.837057	2554.786193
444.212365	2556.227963
444.587612	2553.541028
444.962800	2553.228477
445.337927	2552.527756
445.712995	2550.017262
446.088002	2556.069167
446.462949	2556.129661
446.837837	2556.807696
447.212664	2553.677139
447.587431	2555.166800
447.962139	2555.560010
448.336786	2556.195196
448.711374	2557.238714
449.085901	2554.516491
449.460369	2556.386759
449.834776	2557.079918
450.209124	2560.008828
450.583412	2557.291647
450.957640	2554.844166
451.331808	2556.651420
451.705917	2557.957079
452.079965	2553.304094
452.453954	2556.981616
452.827883	2559.235011
453.201752	2558.400700
453.575562	2560.608726
453.949311	2558.153684
454.323001	2558.075546
454.696632	2557.480690
455.070202	2557.044630
455.443713	2558.120916
455.817164	2558.874569
456.190556	2557.611760
456.563888	2557.319373
456.937160	2557.740309
457.310373	2558.950186
457.683526	2558.103272
458.056619	2559.527398
458.429653	2561.407749
458.802628	2555.786862
459.175542	2556.512788
459.548398	2558.819116
459.921194	2561.092677
460.293930	2560.404559
460.666607	2558.594785
461.039224	2561.574107
461.411782	2559.887841
461.784280	2560.056719
462.156719	2563.207441
462.529099	2561.553942
462.901419	2557.999929
463.273680	2557.982285
463.645882	2557.735268
464.018024	2557.742830
464.390106	2556.255689
464.762130	2561.874055
465.134094	2560.240722
465.505999	2562.078222
465.877845	2564.240877
466.249631	2565.289437
466.621358	2563.318346
466.993026	2565.143244
467.364634	2564.596278
467.736184	2563.222564
468.107674	2563.146947
468.479105	2565.049982
468.850477	2561.034703
469.221790	2562.925136
469.593043	2561.916905
469.964238	2563.940928
470.335373	2562.363047
470.706449	2565.692729
471.077467	2563.391443
471.448425	2563.162070
471.819324	2565.163408
472.190164	2566.436300
472.560945	2567.230281
472.931667	2562.741134
473.302330	2564.603840
473.672934	2563.683830
474.043479	2565.591906
474.413965	2563.782132
474.784393	2564.954200
475.154761	2566.935374
475.525070	2565.672565
475.895321	2563.255332
476.265513	2566.678275
476.635645	2568.256156
477.005719	2566.466547
477.375734	2564.671896
477.745691	2566.206927
478.115588	2566.761454
478.485427	2565.118038
478.855207	2568.876218
479.224928	2567.464695
479.594591	2568.677092
479.964194	2566.839592
480.333739	2571.976528
480.703226	2570.978379
481.072653	2573.471230
481.442022	2569.075344
481.811333	2567.920919
482.180584	2567.754561
482.549777	2567.293296
482.918912	2563.209961
483.287988	2573.199007
483.657005	2569.067782
484.025964	2570.736404
484.394864	2571.966445
484.763706	2570.154151
485.132489	2573.206569
485.501213	2573.297310
485.869879	2568.742627
486.238487	2570.723801
486.607036	2572.306723
486.975527	2571.469892
487.343959	2572.120201
487.712333	2572.904100
488.080648	2569.476115
488.448905	2574.013154
488.817104	2571.162381
489.185244	2570.093657
489.553326	2572.498287
489.921350	2573.032649
490.289315	2575.888463
490.657222	2574.509707
491.025070	2574.640777
491.392861	2575.480130
491.760593	2575.001220
492.128267	2573.715726
492.495883	2574.686148
492.863440	2575.961560
493.230939	2572.142886
493.598380	2574.401323
493.965763	2571.996692
494.333088	2573.935016
494.700354	2572.629357
495.067563	2572.344532
495.434713	2575.051632
495.801805	2573.451065
496.168839	2570.224727
496.535815	2573.819069
496.902733	2572.498287
497.269593	2574.010633
497.636395	2571.979048
498.003139	2573.972825
498.369825	2572.336970
498.736453	2573.413257
499.103023	2574.834862
499.469535	2574.154306
499.835989	2573.103226
500.202385	2571.248081
500.568723	2569.196331
500.935003	2572.972156
501.301226	2569.702967
501.667390	2574.010633
502.033497	2574.691189
502.399546	2577.720923
502.765537	2574.449214
503.131470	2576.387537
503.497345	2575.059193
503.863163	2574.834862
504.228923	2573.133472
504.594625	2573.062896
504.960269	2574.371076
505.325856	2575.344018
505.691385	2574.330747
506.056856	2576.798391
506.422270	2574.008113
506.787625	2576.601786
507.152924	2575.419636
507.518164	2578.477096
507.883347	2577.236972
508.248472	2578.361149
508.613540	2578.260326
508.978550	2577.461303
509.343503	2577.267219
509.708398	2581.867272
510.073236	2579.573547
510.438016	2579.903742
510.802738	2577.017682
511.167403	2580.866603
511.532010	2578.535069
511.896561	2581.254771
512.261053	2582.575554
512.625488	2581.675708
512.989866	2583.500605
513.354186	2584.168558
513.718449	2584.521439
514.082655	2583.079669
514.446803	2582.915832
514.810894	2585.811974
515.174927	2585.252406
515.538904	2588.811461
515.902822	2587.654516
516.266684	2588.413210
516.630488	2588.022520
516.994235	2586.855493
517.357925	2588.713158
517.721558	2589.991091
518.085133	2591.480752
518.448651	2588.889599
518.812112	2589.761718
519.175516	2588.468662
519.538863	2584.949937
519.902152	2594.417224
520.265385	2593.749271
520.628560	2591.919332
520.991678	2594.795311
521.354739	2598.432503
521.717743	2596.277410
522.080690	2597.174735
522.443580	2600.128851
522.806413	2601.860488
523.169189	2600.711105
523.531908	2603.062803
523.894569	2604.318050
524.257174	2602.536002
524.619722	2603.294696
524.982213	2603.768564
525.344647	2606.137907
525.707025	2609.359204
526.069345	2605.064141
526.431608	2607.204111
526.793815	2607.549430
527.155964	2610.402723
527.518057	2607.887187
527.880093	2608.653443
528.242072	2613.785337
528.603995	2613.573609
528.965860	2612.734257
529.327669	2613.303907
529.689421	2615.968157
530.051117	2615.370780
530.412755	2614.380193
530.774337	2617.031840
531.135862	2617.772890
531.497331	2618.375308
531.858743	2618.150976
532.220098	2620.648868
532.581396	2624.233128
532.942638	2623.119033
533.303824	2621.447891
533.664953	2624.888478
534.026025	2623.497120
534.387040	2625.037192
534.747999	2623.865124
535.108902	2626.557100
535.469748	2626.347892
535.830537	2627.882924
536.191270	2629.400311
536.551947	2628.608850
536.912567	2626.231946
537.273131	2629.715383
537.633638	2626.118520
537.994089	2632.051958
538.354483	2633.087915
538.714821	2635.797535
539.075103	2634.176804
539.435328	2634.101187
539.795497	2637.224182
540.155609	2635.880714
540.515665	2633.710498
540.875665	2637.942546
541.235609	2638.678555
541.595496	2639.396919
541.955328	2636.261322
542.315102	2644.286838
542.674821	2641.942702
543.034483	2641.559574
543.394090	2643.082003
543.753640	2643.253402
544.113134	2647.745070
544.472571	2646.240286
544.831953	2647.298928
545.191278	2645.998310
545.550548	2646.353712
545.909761	2649.370842
546.268918	2651.132725
546.628019	2650.109371
546.987064	2651.346974
547.346053	2650.875627
547.704986	2652.796306
548.063863	2656.511637
548.422684	2655.112716
548.781449	2653.207160
549.140158	2657.701349
549.498811	2655.851245
549.857408	2654.573313
550.215949	2659.584220
550.574434	2656.415855
550.932864	2660.862152
551.291237	2657.066163
551.649555	2661.008346
552.007817	2661.038593
552.366022	2663.158398
552.724173	2660.526916
553.082267	2661.031031
553.440305	2668.572597
553.798288	2666.362051
554.156215	2668.174346
554.514086	2666.200734
554.871902	2661.966165
555.229661	2667.763492
555.587365	2664.229643
555.945014	2668.688544
556.302606	2671.854388
556.660143	2672.539985
557.017625	2677.623989
557.375050	2674.712722
557.732421	2674.604338
558.089735	2677.036694
558.446994	2679.428722
558.804197	2682.733198
559.161345	2682.551717
559.518437	2679.973167
559.875474	2682.266892
560.232455	2681.669515
560.589381	2686.382994
560.946251	2686.050277
561.303065	2688.709486
561.659825	2692.180321
562.016528	2689.763087
562.373177	2694.348017
562.729770	2692.192923
563.086307	2697.544108
563.442789	2698.927905
563.799216	2701.456044
564.155587	2702.544933
564.511904	2703.265818
564.868164	2704.475695
565.224370	2709.105995
565.580520	2706.809749
565.936615	2709.839482
566.292654	2710.772096
566.648638	2714.668908
567.004567	2714.933568
567.360441	2718.840463
567.716260	2716.478682
568.072023	2721.860114
568.427732	2722.543190
568.783385	2722.321379
569.138982	2730.982082
569.494525	2733.495097
569.850013	2738.170767
570.205445	2737.364182
570.560823	2737.323853
570.916145	2743.519431
571.271412	2744.426839
571.626625	2751.570154
571.981782	2754.632655
572.336884	2750.859351
572.691931	2754.390680
573.046923	2756.147522
573.401860	2756.966709
573.756743	2768.541198
574.111570	2773.751231
574.466342	2776.516304
574.821059	2779.609052
575.175722	2777.698454
575.530330	2785.262706
575.884882	2790.656740
576.239380	2796.073460
576.593823	2799.670323
576.948211	2804.058648
577.302544	2804.507311
577.656823	2807.020326
578.011047	2817.435350
578.365216	2817.780669
578.719330	2826.327945
579.073389	2828.157884
579.427394	2842.661283
579.781344	2837.657938
580.135239	2847.752849
580.489080	2852.841894
580.842866	2856.784076
581.196597	2875.985831
581.550273	2875.827035
581.903895	2887.915722
582.257463	2898.673544
582.610975	2900.228740
582.964434	2915.400092
583.317837	2920.305135
583.671186	2935.335335
584.024481	2949.054835
584.377721	2947.633230
584.730906	2958.207050
585.084037	2968.836323
585.437113	2975.924185
585.790135	2991.584530
586.143103	2997.016373
586.496016	3000.686333
586.848874	3020.911442
587.201679	3026.968389
587.554428	3034.303267
587.907124	3057.278326
588.259765	3065.260993
588.612352	3088.593974
588.964884	3090.779314
589.317362	3102.268104
589.669786	3122.296608
590.022155	3135.474184
590.374470	3158.708862
590.726731	3166.731858
591.078937	3171.309226
591.431090	3189.401927
591.783188	3194.468287
592.135232	3203.607899
592.487222	3230.860377
592.839157	3246.951740
593.191038	3260.164604
593.542866	3268.422014
593.894639	3283.424488
594.246358	3309.910710
594.598022	3320.308090
594.949633	3326.508709
595.301190	3339.852643
595.652692	3364.466077
596.004141	3386.879047
596.355535	3381.769838
596.706876	3403.235071
597.058162	3418.018254
597.409395	3437.756892
597.760573	3468.399546
598.111698	3471.726707
598.462768	3493.507012
598.813785	3509.326153
599.164748	3519.640354
599.515657	3542.474260
599.866511	3555.213256
600.217312	3599.222529
600.568060	3585.797937
600.918753	3638.755258
601.269392	3656.298473
601.619978	3663.628311
601.970510	3709.134807
602.320988	3721.946899
602.671412	3765.618415
603.021783	3776.829941
603.372100	3789.609266
603.722363	3826.303825
604.072572	3850.448431
604.422728	3877.678224
604.772830	3899.655134
605.122878	3904.867687
605.472872	3947.901497
605.822813	3978.917196
606.172701	4001.562059
606.522534	4048.946384
606.872314	4076.581990
607.222041	4081.492074
607.571714	4136.168428
607.921333	4162.780679
608.270899	4194.592881
608.620411	4256.140328
608.969870	4248.381992
609.319276	4291.892191
609.668627	4339.697453
610.017926	4383.452148
610.367171	4432.643727
610.716362	4488.903004
611.065500	4493.664374
611.414585	4548.219741
611.763616	4574.506837
612.112594	4616.305565
612.461518	4630.372904
612.810389	4698.844377
613.159207	4709.269483
613.507971	4738.941714
613.856682	4835.131971
614.205340	4863.543914
614.553945	4946.337304
614.902496	4925.759314
615.250994	5023.580384
615.599439	5050.500145
615.947830	5087.459365
616.296169	5126.614007
616.644454	5179.868756
616.992686	5201.306263
617.340864	5294.164317
617.688990	5309.446574
618.037063	5401.850924
618.385082	5425.246919
618.733048	5509.751781
619.080961	5536.353950
619.428821	5600.283343
619.776628	5644.872348
620.124382	5657.901211
620.472083	5718.929419
620.819731	5775.619715
621.167326	5749.594758
621.514868	5786.523730
621.862357	5789.618999
622.209793	5828.110729
622.557176	5832.199105
622.904506	5817.622608
623.251783	5839.392831
623.599007	5856.943608
623.946179	5882.298092
624.293297	5907.876906
624.640363	5901.071349
624.987376	5930.673004
625.334336	5923.743938
625.681243	5933.798519
626.028097	5968.315300
626.374899	6027.395102
626.721647	6004.241083
627.068343	6013.302557
627.414987	6043.660385
627.761577	6101.792451
628.108115	6160.892418
628.454600	6112.373833
628.801032	6168.451628
629.147412	6196.402306
629.493739	6249.518423
629.840014	6258.935298
630.186236	6313.326828
630.532405	6296.098685
630.878521	6400.072483
631.224585	6408.644965
631.570597	6429.974087
631.916556	6457.566842
632.262462	6488.738817
632.608316	6530.416557
632.954117	6550.901285
633.299866	6595.699499
633.645562	6625.044055
633.991206	6580.742395
634.336797	6552.232150
634.682336	6609.734071
635.027823	6600.228976
635.373257	6621.651359
635.718639	6601.955571
636.063968	6623.786288
636.409245	6595.412153
636.754470	6636.815150
637.099642	6629.923892
637.444762	6579.819864
637.789829	6645.349823
638.134845	6628.169571
638.479808	6665.539644
638.824719	6691.839344
639.169577	6673.552558
639.514383	6727.213120
639.859137	6701.175561
640.203839	6765.498163
640.548489	6731.651856
640.893086	6791.263501
641.237632	6743.974957
641.582125	6866.502722
641.926566	6836.296128
642.270955	6871.188474
642.615292	6892.283183
642.959576	6935.511077
643.303809	6998.669173
643.647990	6992.861763
643.992118	7070.777837
644.336195	6993.607854
