Dividing Wavelength (nm)	Counts (n)	Blue Motor Position (mm): 16.800000	Red Motor Position (mm): 0.000000	
326.493990	2178.085972
326.888308	2178.085972
327.282561	2178.085972
327.676750	2134.472429
328.070874	2132.955042
328.464933	2133.983438
328.858929	2136.468726
329.252859	2142.029119
329.646726	2152.643268
330.040528	2164.711791
330.434265	2176.666887
330.827938	2194.351255
331.221547	2209.099150
331.615091	2228.986502
332.008571	2246.108781
332.401986	2266.916144
332.795338	2284.865172
333.188625	2302.514252
333.581847	2323.233394
333.975006	2340.212000
334.368100	2360.973992
334.761129	2374.811960
335.154095	2392.967675
335.546996	2418.992632
335.939833	2443.669080
336.332606	2459.062243
336.725315	2472.128914
337.117960	2483.400934
337.510540	2498.098418
337.903056	2509.854389
338.295508	2515.825636
338.687896	2524.143539
339.080220	2529.409025
339.472480	2539.120807
339.864676	2544.850079
340.256807	2546.990049
340.648875	2552.623538
341.040879	2557.276523
341.432818	2555.539846
341.824694	2561.148129
342.216506	2564.432441
342.608253	2562.141237
342.999937	2563.338511
343.391557	2563.252811
343.783113	2564.379509
344.174605	2563.562842
344.566033	2560.664178
344.957397	2562.332800
345.348697	2558.196534
345.739934	2557.062274
346.131106	2557.243756
346.522215	2551.940462
346.913260	2553.102448
347.304241	2551.713610
347.695159	2547.229503
348.086012	2548.580533
348.476802	2544.287990
348.867528	2539.771116
349.258191	2538.198276
349.648789	2537.686599
350.039324	2533.865405
350.429796	2538.599048
350.820203	2532.970600
351.210548	2535.476053
351.600828	2535.198790
351.991045	2532.983203
352.381198	2532.837009
352.771288	2530.666792
353.161314	2530.455064
353.551276	2529.555218
353.941175	2530.318953
354.331010	2529.482121
354.720782	2529.436751
355.110490	2531.546474
355.500135	2527.894158
355.889717	2530.865918
356.279235	2528.226874
356.668689	2530.507996
357.058080	2527.533715
357.447408	2529.018335
357.836672	2528.690660
358.225873	2530.581093
358.615010	2529.593027
359.004084	2533.212575
359.393095	2532.305167
359.782043	2531.352389
360.170927	2529.930784
360.559748	2532.809283
360.948505	2534.251053
361.337199	2536.809438
361.725830	2531.115455
362.114398	2536.204500
362.502903	2533.109232
362.891344	2536.073430
363.279722	2539.050231
363.668037	2535.874304
364.056289	2537.046373
364.444478	2536.983358
364.832603	2539.453524
365.220665	2540.602907
365.608665	2540.282793
365.996601	2542.460572
366.384474	2537.154757
366.772284	2540.144162
367.160031	2539.430838
367.547715	2538.972093
367.935336	2540.948226
368.322893	2537.147196
368.710388	2536.038142
369.097820	2541.175078
369.485189	2537.414377
369.872495	2543.551982
370.259738	2541.961498
370.646918	2544.000644
371.034035	2542.243802
371.421090	2541.454862
371.808081	2544.106509
372.195010	2546.314534
372.581875	2546.533824
372.968678	2543.725902
373.355418	2545.555840
373.742096	2546.344781
374.128710	2544.156920
374.515262	2547.932744
374.901751	2545.576005
375.288177	2545.427291
375.674540	2548.237734
376.060841	2545.427291
376.447079	2546.183464
376.833254	2546.090203
377.219367	2546.372507
377.605417	2550.723023
377.991404	2547.214380
378.377329	2547.584905
378.763191	2548.298228
379.148991	2549.117416
379.534727	2550.987684
379.920402	2547.615152
380.306013	2549.951727
380.691563	2551.718651
381.077049	2549.843342
381.462474	2547.947868
381.847835	2549.606407
382.233134	2551.335523
382.618371	2550.670091
383.003545	2550.690256
383.388657	2550.997766
383.773706	2552.220246
384.158693	2550.206305
384.543618	2550.488609
384.928480	2551.726213
385.313280	2551.378373
385.698017	2552.525236
386.082692	2551.587581
386.467305	2553.203271
386.851856	2552.000956
387.236344	2553.631769
387.620770	2549.233362
388.005133	2548.308310
388.389435	2548.825029
388.773674	2548.346119
389.157851	2557.357182
389.541965	2552.275698
389.926018	2552.862993
390.310008	2552.502550
390.693936	2554.090514
391.077802	2554.145967
391.461606	2555.285267
391.845348	2554.730740
392.229027	2558.367933
392.612645	2552.704197
392.996200	2555.890206
393.379694	2556.021276
393.763125	2554.239228
394.146494	2556.071687
394.529801	2559.224929
394.913047	2556.868190
395.296230	2558.269630
395.679351	2559.149312
396.062410	2557.410114
396.445408	2557.309291
396.828343	2559.235011
397.211217	2559.308108
397.594028	2561.546380
397.976778	2557.667212
398.359466	2558.637635
398.742092	2562.005125
399.124656	2557.236194
399.507158	2558.670402
399.889598	2560.240722
400.271977	2559.197203
400.654294	2562.022769
401.036549	2560.785166
401.418742	2561.737944
401.800874	2559.108982
402.182944	2560.560835
402.564952	2558.098231
402.946898	2561.327090
403.328783	2560.399518
403.710606	2563.204920
404.092367	2563.335990
404.474067	2561.947152
404.855705	2563.555280
405.237282	2561.541339
405.618797	2562.688202
406.000250	2563.056206
406.381642	2563.446895
406.762972	2560.759960
407.144240	2559.287943
407.525447	2561.760629
407.906593	2559.482028
408.287677	2563.109138
408.668700	2561.863973
409.049661	2564.031669
409.430560	2564.339180
409.811399	2567.812535
410.192176	2563.119220
410.572891	2564.800445
410.953545	2563.905640
411.334138	2565.942267
411.714669	2563.996381
412.095139	2566.259859
412.475547	2565.062585
412.855894	2567.464695
413.236180	2565.294478
413.616405	2566.572411
413.996568	2564.808007
414.376670	2563.981258
414.756711	2567.217678
415.136691	2566.035528
415.516609	2566.297668
415.896466	2567.689026
416.276262	2567.845302
416.655997	2565.906978
417.035670	2566.751372
417.415283	2568.137689
417.794834	2570.499470
418.174324	2565.906978
418.553753	2566.224571
418.933121	2566.549726
419.312428	2568.936712
419.691674	2568.845971
420.070859	2569.539130
420.449983	2567.545353
420.829045	2568.510734
421.208047	2568.936712
421.586988	2569.065261
421.965867	2571.227916
422.344686	2571.341342
422.723444	2572.084912
423.102141	2570.227247
423.480777	2570.829665
423.859352	2570.577607
424.237866	2570.890159
424.616319	2570.131465
424.994712	2574.756724
425.373044	2570.086095
425.751314	2570.277659
426.129524	2565.932184
426.507673	2568.883780
426.885762	2566.993347
427.263789	2570.355797
427.641756	2571.699264
428.019662	2575.666652
428.397508	2573.806467
428.775292	2571.986610
429.153016	2572.614234
429.530679	2571.424521
429.908282	2573.909810
430.285824	2576.296797
430.663305	2572.304203
431.040726	2571.225396
431.418086	2573.541806
431.795385	2573.088102
432.172624	2572.818400
432.549802	2574.141703
432.926920	2570.960735
433.303977	2572.394943
433.680974	2572.815880
434.057910	2572.722618
434.434786	2574.918041
434.811601	2576.702609
435.188355	2573.970304
435.565050	2572.044583
435.941683	2574.665983
436.318257	2572.710016
436.694770	2575.255798
437.071222	2574.718915
437.447614	2576.677404
437.823946	2574.746642
438.200218	2576.183371
438.576429	2574.484502
438.952580	2574.056004
439.328670	2573.567012
439.704700	2575.759914
440.080670	2572.599110
440.456580	2572.954512
440.832429	2577.461303
441.208218	2576.836200
441.583947	2577.073134
441.959616	2574.436611
442.335224	2575.477609
442.710773	2574.968452
443.086261	2575.308730
443.461689	2577.957857
443.837057	2577.728484
444.212365	2580.269226
444.587612	2572.949470
444.962800	2574.280335
445.337927	2572.770509
445.712995	2571.679100
446.088002	2578.509863
446.462949	2580.654874
446.837837	2579.412230
447.212664	2577.950295
447.587431	2576.911817
447.962139	2578.686303
448.336786	2580.541448
448.711374	2583.044381
449.085901	2582.510019
449.460369	2578.482137
449.834776	2580.556572
450.209124	2579.457600
450.583412	2581.718557
450.957640	2580.412899
451.331808	2582.719227
451.705917	2580.465831
452.079965	2581.375759
452.453954	2580.062538
452.827883	2579.097157
453.201752	2580.213773
453.575562	2580.811150
453.949311	2581.232086
454.323001	2580.430543
454.696632	2582.139494
455.070202	2580.591860
455.443713	2580.546489
455.817164	2579.424833
456.190556	2584.176120
456.563888	2583.581264
456.937160	2582.636047
457.310373	2583.457756
457.683526	2581.562282
458.056619	2583.936665
458.429653	2582.177302
458.802628	2585.300297
459.175542	2583.644278
459.548398	2586.051429
459.921194	2583.533373
460.293930	2584.045050
460.666607	2585.491861
461.039224	2584.052612
461.411782	2584.586974
461.784280	2586.411872
462.156719	2586.588312
462.529099	2587.604105
462.901419	2587.798189
463.273680	2584.302149
463.645882	2582.386510
464.018024	2583.452714
464.390106	2582.331058
464.762130	2584.770976
465.134094	2589.418920
465.505999	2589.794486
465.877845	2588.740885
466.249631	2591.959662
466.621358	2595.901844
466.993026	2593.081318
467.364634	2598.780343
467.736184	2591.831112
468.107674	2591.044692
468.479105	2592.894796
468.850477	2591.616863
469.221790	2592.171390
469.593043	2592.456215
469.964238	2591.382449
470.335373	2591.405135
470.706449	2590.636359
471.077467	2590.467480
471.448425	2592.874631
471.819324	2593.961000
472.190164	2594.964189
472.560945	2595.952255
472.931667	2591.223653
473.302330	2593.872779
473.672934	2591.574013
474.043479	2595.198603
474.413965	2590.049064
474.784393	2593.988726
475.154761	2593.391349
475.525070	2592.423448
475.895321	2592.395721
476.265513	2592.186513
476.635645	2598.389653
477.005719	2592.289857
477.375734	2594.059302
477.745691	2596.274889
478.115588	2595.546442
478.485427	2598.699684
478.855207	2598.039293
479.224928	2601.565580
479.594591	2603.884511
479.964194	2601.878132
480.333739	2602.208327
480.703226	2603.375354
481.072653	2600.953080
481.442022	2602.437700
481.811333	2603.839141
482.180584	2601.474839
482.549777	2600.053234
482.918912	2599.450816
483.287988	2604.247474
483.657005	2600.217072
484.025964	2605.076744
484.394864	2605.414501
484.763706	2606.657146
485.132489	2603.584562
485.501213	2604.640684
485.869879	2604.519696
486.238487	2607.637650
486.607036	2603.808894
486.975527	2605.001127
487.343959	2607.385592
487.712333	2607.493977
488.080648	2604.721342
488.448905	2605.059100
488.817104	2607.108329
489.185244	2605.840479
489.553326	2607.796446
489.921350	2609.008844
490.289315	2612.222579
490.657222	2615.426233
491.025070	2612.086468
491.392861	2614.876747
491.760593	2612.898094
492.128267	2614.433125
492.495883	2610.236365
492.863440	2613.326592
493.230939	2610.112857
493.598380	2615.201901
493.965763	2609.810387
494.333088	2614.493619
494.700354	2611.055552
495.067563	2612.328444
495.434713	2613.772734
495.801805	2611.857096
496.168839	2612.988835
496.535815	2613.805502
496.902733	2612.363732
497.269593	2614.150821
497.636395	2615.552262
498.003139	2616.847838
498.369825	2617.044443
498.736453	2615.368259
499.103023	2618.609721
499.469535	2616.845317
499.835989	2618.418158
500.202385	2614.707868
500.568723	2612.328444
500.935003	2616.610904
501.301226	2617.301542
501.667390	2618.768518
502.033497	2623.494599
502.399546	2621.737757
502.765537	2621.967130
503.131470	2620.560648
503.497345	2626.078191
503.863163	2623.602984
504.228923	2627.686319
504.594625	2628.656741
504.960269	2628.001391
505.325856	2633.178656
505.691385	2630.774026
506.056856	2633.360137
506.422270	2631.804942
506.787625	2635.164871
507.152924	2638.315592
507.518164	2639.676703
507.883347	2640.082516
508.248472	2642.038484
508.613540	2644.876653
508.978550	2643.916314
509.343503	2646.068886
509.708398	2648.145842
510.073236	2650.928559
510.438016	2657.403921
510.802738	2657.391318
511.167403	2659.516164
511.532010	2661.804848
511.896561	2665.699139
512.261053	2668.113852
512.625488	2672.817249
512.989866	2674.395130
513.354186	2677.621468
513.718449	2682.508867
514.082655	2687.086235
514.446803	2688.827953
514.810894	2697.516382
515.174927	2700.228523
515.538904	2701.864377
515.902822	2708.206149
516.266684	2712.687734
516.630488	2718.636296
516.994235	2725.361195
517.357925	2730.805641
517.721558	2737.454923
518.085133	2744.061355
518.448651	2750.803899
518.812112	2755.212388
519.175516	2765.090529
519.538863	2769.186466
519.902152	2780.937396
520.265385	2792.348047
520.628560	2801.119655
520.991678	2811.194401
521.354739	2824.114878
521.717743	2832.561332
522.080690	2847.730164
522.443580	2857.300794
522.806413	2872.812425
523.169189	2882.708210
523.531908	2899.833009
523.894569	2908.465985
524.257174	2927.113213
524.619722	2945.092488
524.982213	2955.890640
525.344647	2974.956284
525.707025	2996.587875
526.069345	3015.353570
526.431608	3032.843853
526.793815	3058.147925
527.155964	3070.710481
527.518057	3091.817792
527.880093	3114.208077
528.242072	3135.204482
528.603995	3157.655261
528.965860	3178.780216
529.327669	3205.369782
529.689421	3231.203175
530.051117	3255.342740
530.412755	3292.256589
530.774337	3316.214673
531.135862	3343.517562
531.497331	3379.539127
531.858743	3400.412024
532.220098	3457.225828
532.581396	3469.664875
532.942638	3516.469468
533.303824	3552.337278
533.664953	3596.218002
534.026025	3627.697487
534.387040	3670.317922
534.747999	3724.653999
535.108902	3770.440278
535.469748	3792.568423
535.830537	3849.891384
536.191270	3897.706728
536.551947	3952.511632
536.912567	3964.338179
537.273131	4039.469015
537.633638	4072.428079
537.994089	4156.333044
538.354483	4170.559180
538.714821	4264.284312
539.075103	4341.290458
539.435328	4378.645408
539.795497	4398.628542
540.155609	4496.265609
540.515665	4580.513372
540.875665	4580.911623
541.235609	4662.880785
541.595496	4734.828133
541.955328	4840.556252
542.315102	4900.256117
542.674821	4927.387607
543.034483	4978.696471
543.394090	5049.948139
543.753640	5105.801603
544.113134	5231.964040
544.472571	5282.511689
544.831953	5415.209982
545.191278	5434.076500
545.550548	5515.070199
545.909761	5577.575465
546.268918	5708.567327
546.628019	5777.701711
546.987064	5862.985431
547.346053	5908.496968
547.704986	5989.099977
548.063863	6107.993070
548.422684	6155.894114
548.781449	6206.512340
549.140158	6353.593044
549.498811	6410.492548
549.857408	6420.927736
550.215949	6594.492142
550.574434	6629.376927
550.932864	6764.273163
551.291237	6864.720674
551.649555	6963.398740
552.007817	7075.476193
552.366022	7147.872203
552.724173	7228.386992
553.082267	7326.316446
553.440305	7526.916561
553.798288	7477.296483
554.156215	7697.322684
554.514086	7816.427506
554.871902	7781.046167
555.229661	7942.617669
555.587365	8040.708440
555.945014	8087.046726
556.302606	8287.745143
556.660143	8341.367897
557.017625	8543.389617
557.375050	8540.062455
557.732421	8715.928148
558.089735	8807.614134
558.446994	8903.214575
558.804197	9044.870998
559.161345	9163.806941
559.518437	9141.925813
559.875474	9361.858752
560.232455	9483.801743
560.589381	9589.423998
560.946251	9649.325509
561.303065	9896.636955
561.659825	10033.204333
562.016528	10021.806284
562.373177	10060.391276
562.729770	10257.729764
563.086307	10397.094983
563.442789	10547.419670
563.799216	10610.325708
564.155587	10698.931548
564.511904	10847.695998
564.868164	10896.209543
565.224370	11052.288707
565.580520	11088.262381
565.936615	11294.042281
566.292654	11251.106773
566.648638	11542.384642
567.004567	11546.047041
567.360441	11646.267700
567.716260	11633.138015
568.072023	11929.167171
568.427732	11931.927203
568.783385	11937.583378
569.138982	12146.004842
569.494525	12306.305973
569.850013	12319.702839
570.205445	12459.098305
570.560823	12454.767954
570.916145	12504.904749
571.271412	12663.829645
571.626625	12708.806819
571.981782	12832.920027
572.336884	12838.472858
572.691931	13036.388558
573.046923	12964.564719
573.401860	13072.480699
573.756743	13193.864122
574.111570	13243.953027
574.466342	13303.478971
574.821059	13472.617244
575.175722	13403.646698
575.530330	13543.384962
575.884882	13641.536228
576.239380	13711.532649
576.593823	13741.585487
576.948211	13813.187516
577.302544	13826.657479
577.656823	13866.611144
578.011047	14035.769582
578.365216	14047.200398
578.719330	14084.424278
579.073389	14106.943112
579.427394	14321.267768
579.781344	14243.339091
580.135239	14305.582218
580.489080	14350.967726
580.842866	14280.479792
581.196597	14540.217683
581.550273	14554.738726
581.903895	14631.951559
582.257463	14900.856788
582.610975	14694.436661
582.964434	14974.702130
583.317837	14882.426329
583.671186	15026.706673
584.024481	15095.127733
584.377721	15007.764537
584.730906	15127.514626
585.084037	15252.872999
585.437113	15259.597898
585.790135	15465.781090
586.143103	15186.619634
586.496016	15254.350057
586.848874	15546.724377
587.201679	15567.209106
587.554428	15385.805705
587.907124	15699.264651
588.259765	15620.390758
588.612352	15773.732576
588.964884	15526.456418
589.317362	15722.685852
589.669786	15826.115206
590.022155	15938.822803
590.374470	16149.485060
590.726731	16081.036273
591.078937	15957.096985
591.431090	16097.057060
591.783188	15945.071313
592.135232	15982.731253
592.487222	16160.638613
592.839157	16231.197123
593.191038	16231.978502
593.542866	16185.153744
593.894639	16048.677107
594.246358	16276.247394
594.598022	16249.350318
594.949633	16125.902543
595.301190	16124.778365
595.652692	16338.666961
596.004141	16590.349088
596.355535	16100.870693
596.706876	16157.611400
597.058162	16139.879142
597.409395	16353.452665
597.760573	16516.014753
598.111698	16364.099582
598.462768	16364.260899
598.813785	16367.759460
599.164748	16277.346366
599.515657	16341.056468
599.866511	16222.891822
600.217312	16563.121816
600.568060	16218.889146
600.918753	16525.071186
601.269392	16499.550345
601.619978	16331.725292
601.970510	16579.893734
602.320988	16552.535393
602.671412	16788.100950
603.021783	16731.324955
603.372100	16549.016667
603.722363	16707.830657
604.072572	16696.556117
604.422728	16828.301631
604.772830	16685.319385
605.122878	16646.333622
605.472872	16690.995724
605.822813	16721.875312
606.172701	16706.358640
606.522534	16931.904905
606.872314	16985.966238
607.222041	16850.908686
607.571714	17076.969148
607.921333	16963.152497
608.270899	17064.325934
608.620411	17267.204650
608.969870	17059.993062
609.319276	17099.886233
609.668627	17161.443763
610.017926	17307.402811
610.367171	17452.721632
610.716362	17512.066095
611.065500	17362.167385
611.414585	17506.359509
611.763616	17514.253956
612.112594	17495.082448
612.461518	17482.003174
612.810389	17700.935444
613.159207	17555.858598
613.507971	17500.710896
613.856682	17815.357034
614.205340	17767.508922
614.553945	17925.042459
614.902496	17680.692691
615.250994	17963.934961
615.599439	17902.752997
615.947830	17902.029592
616.296169	17942.442002
616.644454	17939.540818
616.992686	17921.493487
617.340864	18140.186303
617.688990	17923.888035
618.037063	18109.473073
618.385082	17955.581769
618.733048	18253.939939
619.080961	18129.607441
619.428821	18191.250670
619.776628	18107.824615
620.124382	18021.956121
620.472083	18074.041323
620.819731	18121.113097
621.167326	17828.872367
621.514868	17891.541471
621.862357	17668.959406
622.209793	17693.787088
622.557176	17550.706539
622.904506	17388.651087
623.251783	17304.993139
623.599007	17105.759177
623.946179	17070.488744
624.293297	17030.814864
624.640363	16791.957433
624.987376	16820.157647
625.334336	16610.339783
625.681243	16476.729042
626.028097	16474.029504
626.374899	16429.435457
626.721647	16312.614278
627.068343	16148.091181
627.414987	16086.107674
627.761577	16061.869806
628.108115	16127.863551
628.454600	15843.509707
628.801032	15941.713904
629.147412	15868.407966
629.493739	15899.499282
629.840014	15716.122270
630.186236	15825.343909
630.532405	15580.674028
630.878521	15789.045081
631.224585	15672.785991
631.570597	15507.103428
631.916556	15539.961669
632.262462	15526.980698
632.608316	15448.719305
632.954117	15393.559000
633.299866	15387.219749
633.645562	15321.152907
633.991206	15074.922789
634.336797	14953.100785
634.682336	14923.098358
635.027823	14822.741588
635.373257	14714.313931
635.718639	14603.413587
636.063968	14566.431682
636.409245	14320.627542
636.754470	14354.617521
637.099642	14201.900807
637.444762	13970.080827
637.789829	14025.893961
638.134845	13883.652764
638.479808	13901.150609
638.824719	13853.264689
639.169577	13702.284652
639.514383	13755.211726
639.859137	13567.433787
640.203839	13649.213905
640.548489	13494.984844
640.893086	13474.308552
641.237632	13349.877751
