Dividing Wavelength (nm)	Counts (n)	Blue Motor Position (mm): 5.000000	Red Motor Position (mm): 0.000000	
326.493990	2065.088508
326.888308	2065.088508
327.282561	2065.088508
327.676750	2039.774354
328.070874	2041.518594
328.464933	2047.482279
328.858929	2056.899154
329.252859	2067.926678
329.646726	2082.195664
330.040528	2098.052613
330.434265	2111.638523
330.827938	2135.400002
331.221547	2156.827426
331.615091	2173.765703
332.008571	2196.922243
332.401986	2218.367312
332.795338	2237.271639
333.188625	2256.375091
333.581847	2277.134563
333.975006	2291.804320
334.368100	2308.798050
334.761129	2326.442088
335.154095	2344.456652
335.546996	2358.304701
335.939833	2373.397916
336.332606	2384.438043
336.725315	2396.345248
337.117960	2407.062741
337.510540	2419.093455
337.903056	2421.913981
338.295508	2436.016608
338.687896	2441.579522
339.080220	2447.016406
339.472480	2448.780810
339.864676	2452.627210
340.256807	2453.801799
340.648875	2458.091821
341.040879	2457.716255
341.432818	2459.178190
341.824694	2463.195989
342.216506	2462.827985
342.608253	2456.884465
342.999937	2459.382357
343.391557	2458.217850
343.783113	2460.105762
344.174605	2455.115020
344.566033	2453.653085
344.957397	2452.279371
345.348697	2452.869186
345.739934	2449.728547
346.131106	2447.845676
346.522215	2447.001283
346.913260	2445.698144
347.304241	2440.369645
347.695159	2441.942485
348.086012	2441.264450
348.476802	2435.671289
348.867528	2435.381423
349.258191	2429.175763
349.648789	2431.431679
350.039324	2429.979827
350.429796	2433.735486
350.820203	2430.330187
351.210548	2431.484611
351.600828	2426.632501
351.991045	2431.235074
352.381198	2430.410845
352.771288	2429.999991
353.161314	2428.185176
353.551276	2430.186514
353.941175	2428.003694
354.331010	2429.279106
354.720782	2429.747934
355.110490	2430.834302
355.500135	2431.033428
355.889717	2427.169383
356.279235	2428.190217
356.668689	2429.768098
357.058080	2428.787594
357.447408	2432.167687
357.836672	2430.481422
358.225873	2431.640887
358.615010	2431.840013
359.004084	2432.218099
359.393095	2432.334046
359.782043	2434.118614
360.170927	2436.056938
360.559748	2434.360589
360.948505	2434.660538
361.337199	2437.695313
361.725830	2433.344797
362.114398	2437.077771
362.502903	2435.512493
362.891344	2436.561053
363.279722	2438.421239
363.668037	2436.901331
364.056289	2438.385951
364.444478	2439.628595
364.832603	2438.136414
365.220665	2442.600355
365.608665	2439.636157
365.996601	2438.522062
366.384474	2438.786723
366.772284	2439.691610
367.160031	2440.649429
367.547715	2441.231682
367.935336	2440.616661
368.322893	2439.510128
368.710388	2437.299582
369.097820	2440.856116
369.485189	2439.502566
369.872495	2442.580191
370.259738	2440.772937
370.646918	2444.316868
371.034035	2446.597990
371.421090	2443.532969
371.808081	2443.913576
372.195010	2448.193516
372.581875	2444.102619
372.968678	2445.526745
373.355418	2442.202104
373.742096	2445.105809
374.128710	2443.863164
374.515262	2447.270984
374.901751	2446.600511
375.288177	2448.064966
375.674540	2445.720830
376.060841	2446.048505
376.447079	2447.633948
376.833254	2447.656633
377.219367	2446.663525
377.605417	2449.388269
377.991404	2445.980449
378.377329	2450.230142
378.763191	2447.795264
379.148991	2449.859617
379.534727	2449.244596
379.920402	2450.088989
380.306013	2448.836263
380.691563	2450.920780
381.077049	2449.839452
381.462474	2450.600667
381.847835	2449.599997
382.233134	2452.617128
382.618371	2452.143260
383.003545	2450.643516
383.388657	2454.847839
383.773706	2450.865327
384.158693	2451.777776
384.543618	2451.213167
384.928480	2452.634772
385.313280	2451.926490
385.698017	2453.469083
386.082692	2454.195009
386.467305	2452.286932
386.851856	2454.197530
387.236344	2452.183589
387.620770	2453.965637
388.005133	2449.005141
388.389435	2451.014041
388.773674	2449.970522
389.157851	2454.086624
389.541965	2454.515122
389.926018	2455.057047
390.310008	2455.611573
390.693936	2454.850359
391.077802	2456.221553
391.461606	2456.171142
391.845348	2454.696604
392.229027	2456.758436
392.612645	2457.270113
392.996200	2456.130812
393.379694	2454.890688
393.763125	2457.469239
394.146494	2455.256172
394.529801	2454.898250
394.913047	2455.256172
395.296230	2456.445884
395.679351	2457.350772
396.062410	2457.663323
396.445408	2456.271965
396.828343	2456.599640
397.211217	2458.452264
397.594028	2456.866821
397.976778	2458.432099
398.359466	2457.985957
398.742092	2458.941256
399.124656	2457.176852
399.507158	2459.296657
399.889598	2458.192644
400.271977	2458.477469
400.654294	2456.491255
401.036549	2460.415793
401.418742	2460.080556
401.800874	2458.285906
402.182944	2460.534260
402.564952	2461.340845
402.946898	2461.945783
403.328783	2461.035855
403.710606	2461.086267
404.092367	2460.478808
404.474067	2460.337655
404.855705	2461.497121
405.237282	2461.645835
405.618797	2462.681792
406.000250	2461.907975
406.381642	2460.715742
406.762972	2460.065433
407.144240	2457.791872
407.525447	2458.963941
407.906593	2457.194496
408.287677	2462.641462
408.668700	2462.613736
409.049661	2464.743624
409.430560	2461.721452
409.811399	2463.132975
410.192176	2460.884620
410.572891	2463.075002
410.953545	2463.324539
411.334138	2464.105918
411.714669	2465.368727
412.095139	2464.476443
412.475547	2466.303861
412.855894	2464.209261
413.236180	2468.141361
413.616405	2464.244549
413.996568	2466.500466
414.376670	2463.271607
414.756711	2465.398974
415.136691	2466.127420
415.516609	2465.751854
415.896466	2467.370065
416.276262	2465.933336
416.655997	2468.027935
417.035670	2464.952832
417.415283	2469.109263
417.794834	2467.334777
418.174324	2466.666824
418.553753	2466.593727
418.933121	2467.934674
419.312428	2467.629684
419.691674	2467.639767
420.070859	2466.394602
420.449983	2466.210599
420.829045	2467.352421
421.208047	2466.102215
421.586988	2463.183387
421.965867	2469.245374
422.344686	2468.161526
422.723444	2469.247895
423.102141	2468.053141
423.480777	2464.110959
423.859352	2467.317133
424.237866	2468.637915
424.616319	2467.627164
424.994712	2468.610189
425.373044	2470.586321
425.751314	2466.389560
426.129524	2463.291771
426.507673	2468.663121
426.885762	2464.302523
427.263789	2469.988944
427.641756	2471.092957
428.019662	2469.139510
428.397508	2470.656897
428.775292	2471.135807
429.153016	2470.422483
429.530679	2468.315281
429.908282	2472.365848
430.285824	2468.867288
430.663305	2470.959366
431.040726	2472.020529
431.418086	2472.179326
431.795385	2471.629840
432.172624	2470.246043
432.549802	2469.867957
432.926920	2472.214614
433.303977	2471.891980
433.680974	2472.794346
434.057910	2470.656897
434.434786	2471.082875
434.811601	2471.579428
435.188355	2472.378451
435.565050	2473.369038
435.941683	2472.948102
436.318257	2471.851651
436.694770	2472.708647
437.071222	2474.800726
437.447614	2472.204531
437.823946	2472.930458
438.200218	2471.718060
438.576429	2472.895169
438.952580	2472.078503
439.328670	2471.660087
439.704700	2471.113122
440.080670	2473.376600
440.456580	2473.805098
440.832429	2472.633029
441.208218	2472.791826
441.583947	2473.510190
441.959616	2474.846096
442.335224	2475.519090
442.710773	2472.355766
443.086261	2474.843575
443.461689	2475.128401
443.837057	2474.059676
444.212365	2473.520272
444.587612	2473.555561
444.962800	2470.971969
445.337927	2470.888790
445.712995	2471.289562
446.088002	2473.432052
446.462949	2475.133442
446.837837	2477.066724
447.212664	2473.255612
447.587431	2477.941364
447.962139	2474.856178
448.336786	2474.861219
448.711374	2474.231075
449.085901	2474.321816
449.460369	2477.102012
449.834776	2475.042701
450.209124	2474.152937
450.583412	2475.226703
450.957640	2472.978348
451.331808	2475.456076
451.705917	2475.773668
452.079965	2474.989769
452.453954	2476.993628
452.827883	2475.791312
453.201752	2476.938175
453.575562	2475.181333
453.949311	2476.398771
454.323001	2474.384830
454.696632	2476.219810
455.070202	2478.221148
455.443713	2476.633185
455.817164	2478.019502
456.190556	2477.815336
456.563888	2477.386837
456.937160	2477.959008
457.310373	2477.127218
457.683526	2476.862558
458.056619	2477.157465
458.429653	2478.082517
458.802628	2479.804071
459.175542	2478.475727
459.548398	2481.036633
459.921194	2478.833649
460.293930	2478.856334
460.666607	2476.875160
461.039224	2480.466983
461.411782	2477.926241
461.784280	2478.505974
462.156719	2476.756693
462.529099	2479.448669
462.901419	2478.029585
463.273680	2475.254429
463.645882	2474.742752
464.018024	2476.199646
464.390106	2474.614203
464.762130	2478.561426
465.134094	2478.190902
465.505999	2477.759883
465.877845	2478.891622
466.249631	2479.007568
466.621358	2479.282311
466.993026	2478.868937
467.364634	2483.138794
467.736184	2479.985552
468.107674	2478.465644
468.479105	2481.878506
468.850477	2478.516056
469.221790	2477.066724
469.593043	2480.235089
469.964238	2477.936323
470.335373	2479.330202
470.706449	2480.499750
471.077467	2476.474389
471.448425	2479.914976
471.819324	2480.320789
472.190164	2481.024030
472.560945	2481.825573
472.931667	2479.398258
473.302330	2478.921869
473.672934	2478.327013
474.043479	2479.806591
474.413965	2481.850779
474.784393	2479.849441
475.154761	2480.996304
475.525070	2482.140646
475.895321	2481.253403
476.265513	2481.402117
476.635645	2482.188537
477.005719	2481.812971
477.375734	2481.646612
477.745691	2481.296252
478.115588	2482.012096
478.485427	2479.980511
478.855207	2481.263485
479.224928	2480.847590
479.594591	2480.771972
479.964194	2480.572847
480.333739	2482.085193
480.703226	2482.163331
481.072653	2483.111068
481.442022	2480.565285
481.811333	2478.881540
482.180584	2476.915490
482.549777	2478.216107
482.918912	2477.757362
483.287988	2483.584936
483.657005	2479.846921
484.025964	2481.313896
484.394864	2483.229535
484.763706	2479.594863
485.132489	2479.410861
485.501213	2480.905563
485.869879	2481.916314
486.238487	2482.070069
486.607036	2480.416571
486.975527	2482.846407
487.343959	2481.951602
487.712333	2482.758187
488.080648	2482.243989
488.448905	2479.287353
488.817104	2483.030409
489.185244	2480.582929
489.553326	2481.021509
489.921350	2482.148207
490.289315	2481.558392
490.657222	2485.782879
491.025070	2483.393372
491.392861	2482.193578
491.760593	2482.811119
492.128267	2483.330358
492.495883	2482.347333
492.863440	2481.805409
493.230939	2483.990749
493.598380	2482.853969
493.965763	2482.362456
494.333088	2481.938999
494.700354	2482.732981
495.067563	2484.399083
495.434713	2481.717189
495.801805	2483.935296
496.168839	2479.705768
496.535815	2481.681901
496.902733	2482.218783
497.269593	2482.720378
497.636395	2482.536376
498.003139	2484.547797
498.369825	2483.209370
498.736453	2481.374390
499.103023	2486.307159
499.469535	2481.775162
499.835989	2481.893629
500.202385	2482.110399
500.568723	2479.897332
500.935003	2484.802375
501.301226	2480.323310
501.667390	2485.503095
502.033497	2481.576036
502.399546	2485.152735
502.765537	2485.440081
503.131470	2485.601398
503.497345	2483.993270
503.863163	2483.209370
504.228923	2483.191726
504.594625	2483.095944
504.960269	2484.444453
505.325856	2483.630307
505.691385	2483.471510
506.056856	2484.154587
506.422270	2483.902529
506.787625	2485.215749
507.152924	2484.658702
507.518164	2482.821201
507.883347	2484.608290
508.248472	2482.599391
508.613540	2483.320276
508.978550	2485.208188
509.343503	2484.661223
509.708398	2483.887405
510.073236	2483.579895
510.438016	2485.752632
510.802738	2485.745071
511.167403	2486.733137
511.532010	2485.429998
511.896561	2483.426140
512.261053	2487.491830
512.625488	2486.100472
512.989866	2482.334730
513.354186	2484.598208
513.718449	2485.240955
514.082655	2484.973774
514.446803	2485.374546
514.810894	2482.934627
515.174927	2488.706748
515.538904	2485.563589
515.902822	2485.583754
516.266684	2486.002169
516.630488	2485.535863
516.994235	2488.056440
517.357925	2485.913949
517.721558	2488.023672
518.085133	2482.591829
518.448651	2481.747436
518.812112	2482.135604
519.175516	2482.397744
519.538863	2480.444297
519.902152	2484.260451
520.265385	2487.277581
520.628560	2487.764053
520.991678	2485.835811
521.354739	2484.633496
521.717743	2485.392190
522.080690	2485.145173
522.443580	2484.648620
522.806413	2486.728096
523.169189	2484.081490
523.531908	2486.914618
523.894569	2485.886223
524.257174	2487.479227
524.619722	2485.644247
524.982213	2485.402272
525.344647	2487.539721
525.707025	2484.812457
526.069345	2483.852117
526.431608	2487.055771
526.793815	2484.426809
527.155964	2486.002169
527.518057	2484.449494
527.880093	2486.975112
528.242072	2487.779176
528.603995	2486.503764
528.965860	2486.965030
529.327669	2487.600215
529.689421	2485.513178
530.051117	2486.438229
530.412755	2488.842860
530.774337	2486.297077
531.135862	2483.872282
531.497331	2485.346819
531.858743	2488.212715
532.220098	2483.771459
532.581396	2483.821870
532.942638	2485.898826
533.303824	2486.171048
533.664953	2484.033599
534.026025	2487.479227
534.387040	2487.391007
534.747999	2484.187354
535.108902	2486.405462
535.469748	2484.467138
535.830537	2487.343116
536.191270	2486.445791
536.551947	2484.656181
536.912567	2480.540079
537.273131	2484.268013
537.633638	2480.093937
537.994089	2486.042499
538.354483	2485.719865
538.714821	2488.432006
539.075103	2486.423106
539.435328	2487.383446
539.795497	2483.917652
540.155609	2487.239773
540.515665	2486.223980
540.875665	2488.268168
541.235609	2482.042343
541.595496	2485.671974
541.955328	2483.053094
542.315102	2486.322283
542.674821	2487.327993
543.034483	2489.019300
543.394090	2485.646768
543.753640	2487.466625
544.113134	2484.668784
544.472571	2485.240955
544.831953	2485.699700
545.191278	2486.886892
545.550548	2487.446460
545.909761	2488.064001
546.268918	2486.342447
546.628019	2484.774648
546.987064	2484.661222
547.346053	2487.431337
547.704986	2487.902684
548.063863	2484.522591
548.422684	2487.325472
548.781449	2485.480410
549.140158	2484.633496
549.498811	2485.699700
549.857408	2487.781697
550.215949	2486.513847
550.574434	2484.812457
550.932864	2488.749598
551.291237	2487.612818
551.649555	2488.230359
552.007817	2486.982674
552.366022	2486.133239
552.724173	2485.956799
553.082267	2486.851604
553.440305	2488.205154
553.798288	2486.352530
554.156215	2484.724237
554.514086	2487.159114
554.871902	2482.571664
555.229661	2486.569299
555.587365	2480.562764
555.945014	2486.849083
556.302606	2485.157776
556.660143	2485.729947
557.017625	2486.241624
557.375050	2487.610298
557.732421	2486.672643
558.089735	2485.374546
558.446994	2487.673312
558.804197	2489.593992
559.161345	2484.693990
559.518437	2485.001500
559.875474	2483.400934
560.232455	2484.560399
560.589381	2486.826398
560.946251	2489.462922
561.303065	2488.540390
561.659825	2485.871099
562.016528	2487.385966
562.373177	2487.504433
562.729770	2488.101810
563.086307	2488.721872
563.442789	2488.346306
563.799216	2485.825729
564.155587	2485.954278
564.511904	2487.799341
564.868164	2486.390338
565.224370	2489.384784
565.580520	2485.974443
565.936615	2489.099958
566.292654	2487.716162
566.648638	2488.341265
567.004567	2487.587612
567.360441	2485.596357
567.716260	2487.312869
568.072023	2486.143322
568.427732	2487.391007
568.783385	2488.028713
569.138982	2485.089721
569.494525	2485.745071
569.850013	2489.916625
570.205445	2487.343116
570.560823	2484.998980
570.916145	2487.552324
571.271412	2483.383290
571.626625	2489.450319
571.981782	2485.737509
572.336884	2485.528301
572.691931	2481.976808
573.046923	2485.084679
573.401860	2480.434215
573.756743	2487.922849
574.111570	2487.627942
574.466342	2487.131388
574.821059	2488.197592
575.175722	2486.234062
575.530330	2487.446460
575.884882	2488.144660
576.239380	2486.276912
576.593823	2486.851604
576.948211	2487.275061
577.302544	2488.023672
577.656823	2488.048878
578.011047	2485.435040
578.365216	2487.557365
578.719330	2485.671974
579.073389	2487.963178
579.427394	2488.414362
579.781344	2489.160452
580.135239	2487.454022
580.489080	2484.817498
580.842866	2488.552993
581.196597	2485.452684
581.550273	2487.282623
581.903895	2485.155256
582.257463	2486.833960
582.610975	2487.156594
582.964434	2489.248673
583.317837	2486.178610
583.671186	2490.191368
584.024481	2485.487972
584.377721	2489.271358
584.730906	2486.077787
585.084037	2487.872438
585.437113	2486.491161
585.790135	2488.142139
586.143103	2487.363281
586.496016	2485.916470
586.848874	2488.890751
587.201679	2488.374032
587.554428	2483.988228
587.907124	2487.143991
588.259765	2486.869248
588.612352	2484.741881
588.964884	2484.946048
589.317362	2486.715493
589.669786	2487.496872
590.022155	2487.189361
590.374470	2484.497385
590.726731	2483.358084
591.078937	2483.927735
591.431090	2488.933600
591.783188	2483.821870
592.135232	2489.203302
592.487222	2486.337406
592.839157	2487.678353
593.191038	2484.797334
593.542866	2485.624083
593.894639	2486.337406
594.246358	2489.049547
594.598022	2486.007211
594.949633	2484.565441
595.301190	2486.254227
595.652692	2486.208857
596.004141	2484.509988
596.355535	2488.457211
596.706876	2488.938642
597.058162	2488.174907
597.409395	2483.743732
597.760573	2488.802530
598.111698	2484.653661
598.462768	2489.286481
598.813785	2484.885554
599.164748	2487.567448
599.515657	2486.115595
599.866511	2487.721203
600.217312	2486.075266
600.568060	2487.925370
600.918753	2488.787407
601.269392	2488.774804
601.619978	2487.451501
601.970510	2485.578712
602.320988	2486.755822
602.671412	2484.525111
603.021783	2487.242293
603.372100	2487.905205
603.722363	2485.687097
604.072572	2486.705410
604.422728	2489.223467
604.772830	2488.253045
605.122878	2485.833291
605.472872	2486.922180
605.822813	2486.198774
606.172701	2485.750112
606.522534	2484.774648
606.872314	2488.394197
607.222041	2485.329175
607.571714	2486.758343
607.921333	2484.381438
608.270899	2482.990080
608.620411	2484.081490
608.969870	2485.457725
609.319276	2487.048209
609.668627	2485.815647
610.017926	2487.771614
610.367171	2485.750112
610.716362	2485.540904
611.065500	2486.745740
611.414585	2489.399907
611.763616	2486.899495
612.112594	2486.798672
612.461518	2487.975781
612.810389	2484.557879
613.159207	2486.002169
613.507971	2486.128198
613.856682	2488.482417
614.205340	2488.873107
614.553945	2486.072746
614.902496	2488.220277
615.250994	2486.102993
615.599439	2488.384115
615.947830	2487.582571
616.296169	2486.695328
616.644454	2487.585092
616.992686	2486.120637
617.340864	2486.886892
617.688990	2487.879999
618.037063	2487.111223
618.385082	2487.509474
618.733048	2487.766573
619.080961	2489.714979
619.428821	2489.737664
619.776628	2487.902684
620.124382	2488.447129
620.472083	2489.359578
620.819731	2487.048209
621.167326	2486.158445
621.514868	2487.322952
621.862357	2488.386635
622.209793	2490.082983
622.557176	2485.238435
622.904506	2487.176758
623.251783	2488.366471
623.599007	2487.045688
623.946179	2485.790441
624.293297	2487.322952
624.640363	2485.500575
624.987376	2486.816316
625.334336	2486.229021
625.681243	2485.175420
626.028097	2483.995790
626.374899	2488.588281
626.721647	2487.121306
627.068343	2487.063332
627.414987	2487.774135
627.761577	2485.240955
628.108115	2486.473517
628.454600	2488.890751
628.801032	2488.938642
629.147412	2486.276912
629.493739	2486.365132
629.840014	2488.124495
630.186236	2487.000318
630.532405	2486.680205
630.878521	2489.198261
631.224585	2485.598877
631.570597	2489.125164
631.916556	2486.014772
632.262462	2486.733137
632.608316	2485.871099
632.954117	2489.437716
633.299866	2488.038796
633.645562	2488.023672
633.991206	2486.745740
634.336797	2488.202633
634.682336	2485.054433
635.027823	2484.227683
635.373257	2482.440594
635.718639	2485.581233
636.063968	2486.344968
636.409245	2487.287664
636.754470	2488.484938
637.099642	2488.273209
637.444762	2484.303301
637.789829	2488.235401
638.134845	2486.042499
638.479808	2487.622900
638.824719	2488.782366
639.169577	2485.394710
639.514383	2485.997128
639.859137	2490.183807
640.203839	2484.978815
640.548489	2486.846563
640.893086	2485.450163
641.237632	2485.924032
641.582125	2489.841008
641.926566	2489.611636
642.270955	2483.957982
642.615292	2482.165851
642.959576	2482.914463
643.303809	2480.048567
643.647990	2486.428147
643.992118	2485.931593
644.336195	2488.222798
