Dividing Wavelength (nm)	Counts (n)	Blue Motor Position (mm): 7.900000	Red Motor Position (mm): 0.000000	
326.493990	2158.811120
326.888308	2158.811120
327.282561	2158.811120
327.676750	2119.202774
328.070874	2117.024996
328.464933	2113.080293
328.858929	2117.549276
329.252859	2124.521192
329.646726	2129.993364
330.040528	2145.285704
330.434265	2159.073260
330.827938	2178.312824
331.221547	2194.678930
331.615091	2212.063349
332.008571	2227.632953
332.401986	2246.872516
332.795338	2266.275917
333.188625	2284.315686
333.581847	2300.328912
333.975006	2319.752477
334.368100	2340.713595
334.761129	2356.560462
335.154095	2375.139635
335.546996	2392.327449
335.939833	2409.585839
336.332606	2429.815989
336.725315	2436.853440
337.117960	2451.031685
337.510540	2464.569704
337.903056	2474.752835
338.295508	2481.588639
338.687896	2494.176400
339.080220	2500.775271
339.472480	2505.700478
339.864676	2510.666015
340.256807	2517.131294
340.648875	2520.680267
341.040879	2521.799403
341.432818	2527.856349
341.824694	2528.113448
342.216506	2530.533202
342.608253	2531.460774
342.999937	2530.520599
343.391557	2529.734179
343.783113	2529.514889
344.174605	2531.296937
344.566033	2529.461957
344.957397	2527.826102
345.348697	2525.550021
345.739934	2526.729651
346.131106	2521.635565
346.522215	2519.104906
346.913260	2518.648682
347.304241	2519.120030
347.695159	2513.927641
348.086012	2511.457476
348.476802	2513.398320
348.867528	2510.542506
349.258191	2505.420694
349.648789	2504.573780
350.039324	2503.101763
350.429796	2505.007319
350.820203	2504.357011
351.210548	2502.741321
351.600828	2500.480363
351.991045	2499.305774
352.381198	2498.632780
352.771288	2499.409118
353.161314	2497.559015
353.551276	2497.569097
353.941175	2499.293172
354.331010	2495.920640
354.720782	2497.191010
355.110490	2496.951556
355.500135	2495.673623
355.889717	2494.700680
356.279235	2494.509117
356.668689	2496.886021
357.058080	2495.971051
357.447408	2494.703201
357.836672	2497.057420
358.225873	2495.464415
358.615010	2498.784015
359.004084	2498.980620
359.393095	2497.513644
359.782043	2497.606906
360.170927	2499.721670
360.559748	2497.024652
360.948505	2499.056237
361.337199	2503.545385
361.725830	2498.090856
362.114398	2501.092863
362.502903	2500.094715
362.891344	2503.699140
363.279722	2501.894407
363.668037	2506.544871
364.056289	2504.873729
364.444478	2501.934736
364.832603	2504.452792
365.220665	2506.207114
365.608665	2507.157372
365.996601	2505.345077
366.384474	2506.330622
366.772284	2508.521004
367.160031	2507.386744
367.547715	2510.779441
367.935336	2504.493122
368.322893	2506.983452
368.710388	2502.101094
369.097820	2506.416322
369.485189	2503.973883
369.872495	2508.601662
370.259738	2510.542506
370.646918	2511.185253
371.034035	2509.478823
371.421090	2510.552589
371.808081	2509.551920
372.195010	2512.115346
372.581875	2509.824142
372.968678	2511.790192
373.355418	2508.876405
373.742096	2511.107116
374.128710	2510.424039
374.515262	2513.242044
374.901751	2512.342198
375.288177	2515.805471
375.674540	2514.184740
376.060841	2516.334792
376.447079	2515.707168
376.833254	2514.043588
377.219367	2515.538290
377.605417	2515.886129
377.991404	2514.950995
378.377329	2511.555778
378.763191	2514.988804
379.148991	2512.695079
379.534727	2513.463855
379.920402	2513.307579
380.306013	2512.490912
380.691563	2516.775893
381.077049	2517.524504
381.462474	2516.216325
381.847835	2516.581809
382.233134	2514.519977
382.618371	2514.265398
383.003545	2516.811181
383.388657	2517.910153
383.773706	2514.635923
384.158693	2515.939062
384.543618	2519.059536
384.928480	2517.791686
385.313280	2517.769000
385.698017	2518.036182
386.082692	2516.319669
386.467305	2521.277643
386.851856	2517.733712
387.236344	2518.439474
387.620770	2516.475944
388.005133	2514.817405
388.389435	2516.627179
388.773674	2516.541479
389.157851	2520.339989
389.541965	2524.738396
389.926018	2521.040709
390.310008	2521.491893
390.693936	2522.164887
391.077802	2520.854187
391.461606	2521.300329
391.845348	2520.181192
392.229027	2522.646317
392.612645	2519.367046
392.996200	2522.734537
393.379694	2521.751512
393.763125	2521.055833
394.146494	2523.324352
394.529801	2525.078673
394.913047	2524.821575
395.296230	2522.326203
395.679351	2523.331914
396.062410	2522.258148
396.445408	2521.285205
396.828343	2525.892820
397.211217	2523.808303
397.594028	2525.938190
397.976778	2527.321987
398.359466	2525.650844
398.742092	2523.972140
399.124656	2523.538601
399.507158	2526.848118
399.889598	2527.357275
400.271977	2524.052799
400.654294	2527.465660
401.036549	2526.860721
401.418742	2527.112779
401.800874	2525.766791
402.182944	2527.720238
402.564952	2525.401307
402.946898	2527.306863
403.328783	2527.599250
403.710606	2528.027748
404.092367	2528.100845
404.474067	2527.269055
404.855705	2525.020700
405.237282	2527.765608
405.618797	2529.245187
406.000250	2526.283509
406.381642	2528.579755
406.762972	2526.270906
407.144240	2523.914167
407.525447	2527.672347
407.906593	2522.963909
408.287677	2529.456916
408.668700	2526.717048
409.049661	2529.945908
409.430560	2529.225023
409.811399	2531.072605
410.192176	2529.671165
410.572891	2531.024714
410.953545	2530.076977
411.334138	2529.421628
411.714669	2529.666123
412.095139	2532.463964
412.475547	2528.241997
412.855894	2530.056813
413.236180	2532.214427
413.616405	2533.389016
413.996568	2529.676206
414.376670	2532.506814
414.756711	2530.974303
415.136691	2529.726617
415.516609	2531.914478
415.896466	2532.504293
416.276262	2530.215609
416.655997	2532.728624
417.035670	2532.405991
417.415283	2534.475384
417.794834	2535.342463
418.174324	2530.996988
418.553753	2532.073274
418.933121	2535.004705
419.312428	2533.192411
419.691674	2532.194262
420.070859	2533.968748
420.449983	2532.763913
420.829045	2532.287523
421.208047	2534.780374
421.586988	2533.318439
421.965867	2532.640404
422.344686	2536.736342
422.723444	2532.141330
423.102141	2532.408511
423.480777	2533.663758
423.859352	2534.820703
424.237866	2537.033770
424.616319	2535.891948
424.994712	2533.348686
425.373044	2536.423790
425.751314	2533.018491
426.129524	2530.424817
426.507673	2531.065044
426.885762	2532.874818
427.263789	2537.172402
427.641756	2532.098480
428.019662	2536.466640
428.397508	2534.341794
428.775292	2535.816331
429.153016	2537.179963
429.530679	2535.634850
429.908282	2536.224665
430.285824	2536.728780
430.663305	2536.144006
431.040726	2536.499407
431.418086	2534.974458
431.795385	2538.757844
432.172624	2537.174922
432.549802	2534.624098
432.926920	2536.708615
433.303977	2538.316743
433.680974	2537.172402
434.057910	2539.516538
434.434786	2536.370858
434.811601	2538.493184
435.188355	2537.895807
435.565050	2539.246836
435.941683	2537.454706
436.318257	2538.132741
436.694770	2537.679037
437.071222	2540.260108
437.447614	2539.866898
437.823946	2538.848585
438.200218	2537.429500
438.576429	2539.831610
438.952580	2537.454706
439.328670	2540.335726
439.704700	2536.506969
440.080670	2542.019471
440.456580	2537.202648
440.832429	2542.044677
441.208218	2541.601055
441.583947	2539.755993
441.959616	2540.260108
442.335224	2541.028884
442.710773	2540.111394
443.086261	2538.992258
443.461689	2540.416384
443.837057	2541.096940
444.212365	2540.655839
444.587612	2537.051414
444.962800	2538.941847
445.337927	2534.956814
445.712995	2534.142668
446.088002	2538.851106
446.462949	2541.172557
446.837837	2541.921168
447.212664	2540.048380
447.587431	2540.693647
447.962139	2540.330684
448.336786	2542.805891
448.711374	2541.505273
449.085901	2544.459389
449.460369	2540.020653
449.834776	2542.568957
450.209124	2543.367980
450.583412	2540.723894
450.957640	2542.836138
451.331808	2539.181301
451.705917	2539.030067
452.079965	2542.286652
452.453954	2541.840510
452.827883	2540.683565
453.201752	2541.475026
453.575562	2545.976777
453.949311	2541.840510
454.323001	2544.386293
454.696632	2540.988555
455.070202	2541.361600
455.443713	2540.517207
455.817164	2542.415202
456.190556	2542.881508
456.563888	2542.969728
456.937160	2544.310675
457.310373	2543.267157
457.683526	2542.311858
458.056619	2543.342774
458.429653	2543.168854
458.802628	2540.819676
459.175542	2545.969215
459.548398	2543.965356
459.921194	2544.456869
460.293930	2544.179605
460.666607	2544.227496
461.039224	2544.361087
461.411782	2545.409647
461.784280	2541.051569
462.156719	2544.242620
462.529099	2541.490150
462.901419	2542.861344
463.273680	2541.190201
463.645882	2539.705581
464.018024	2542.011909
464.390106	2538.440252
464.762130	2544.287990
465.134094	2543.690613
465.505999	2546.349822
465.877845	2544.928217
466.249631	2544.295552
466.621358	2546.591797
466.993026	2544.008206
467.364634	2547.360573
467.736184	2546.841335
468.107674	2544.550130
468.479105	2543.962836
468.850477	2546.407795
469.221790	2546.130532
469.593043	2546.191026
469.964238	2547.345450
470.335373	2546.233876
470.706449	2547.831921
471.077467	2544.648433
471.448425	2545.891077
471.819324	2547.652960
472.190164	2545.008875
472.560945	2547.453835
472.931667	2544.542568
473.302330	2543.846889
473.672934	2544.245140
474.043479	2545.359235
474.413965	2545.792775
474.784393	2546.236396
475.154761	2548.567930
475.525070	2547.214380
475.895321	2545.155069
476.265513	2546.460727
476.635645	2551.126315
477.005719	2549.281253
477.375734	2544.459389
477.745691	2546.417878
478.115588	2546.206149
478.485427	2545.608772
478.855207	2546.511139
479.224928	2548.056253
479.594591	2548.197405
479.964194	2548.940975
480.333739	2547.514329
480.703226	2544.270346
481.072653	2548.948537
481.442022	2546.148176
481.811333	2546.001982
482.180584	2545.470141
482.549777	2546.049873
482.918912	2544.451828
483.287988	2550.171017
483.657005	2549.281253
484.025964	2550.443239
484.394864	2548.071376
484.763706	2548.696479
485.132489	2548.290666
485.501213	2548.338557
485.869879	2546.921993
486.238487	2547.642878
486.607036	2548.696479
486.975527	2549.646737
487.343959	2548.872920
487.712333	2547.791592
488.080648	2549.709751
488.448905	2550.352498
488.817104	2548.913249
489.185244	2551.955585
489.553326	2546.614483
489.921350	2549.016592
490.289315	2547.572302
490.657222	2550.488609
491.025070	2549.308979
491.392861	2549.732436
491.760593	2550.153373
492.128267	2550.095399
492.495883	2549.888712
492.863440	2548.933413
493.230939	2551.045657
493.598380	2553.304094
493.965763	2550.249155
494.333088	2553.946841
494.700354	2548.630944
495.067563	2552.742005
495.434713	2550.123126
495.801805	2551.325441
496.168839	2550.276881
496.535815	2550.357539
496.902733	2549.334185
497.269593	2551.693445
497.636395	2551.103630
498.003139	2550.811243
498.369825	2549.485420
498.736453	2548.961140
499.103023	2551.287632
499.469535	2550.977601
499.835989	2549.929041
500.202385	2547.678166
500.568723	2548.348640
500.935003	2548.812426
501.301226	2546.722867
501.667390	2551.890050
502.033497	2551.227138
502.399546	2552.207643
502.765537	2552.169834
503.131470	2549.490461
503.497345	2553.215874
503.863163	2551.038095
504.228923	2550.178578
504.594625	2550.034906
504.960269	2549.775286
505.325856	2550.531459
505.691385	2550.405430
506.056856	2551.166645
506.422270	2550.647406
506.787625	2551.459032
507.152924	2550.478527
507.518164	2547.809236
507.883347	2552.865513
508.248472	2549.432488
508.613540	2552.394166
508.978550	2551.375852
509.343503	2551.864844
509.708398	2549.409802
510.073236	2551.650595
510.438016	2550.929710
510.802738	2551.985832
511.167403	2553.437684
511.532010	2553.909032
511.896561	2556.099414
512.261053	2552.026161
512.625488	2554.251831
512.989866	2552.389124
513.354186	2553.777962
513.718449	2552.358877
514.082655	2552.164793
514.446803	2553.873744
514.810894	2550.778476
515.174927	2551.824515
515.538904	2555.572613
515.902822	2552.684032
516.266684	2552.525236
516.630488	2551.648075
516.994235	2554.491286
517.357925	2552.686553
517.721558	2554.629917
518.085133	2552.989022
518.448651	2551.390976
518.812112	2548.590615
519.175516	2551.340564
519.538863	2550.355019
519.902152	2551.892571
520.265385	2551.963147
520.628560	2553.031872
520.991678	2554.060267
521.354739	2554.793755
521.717743	2552.484906
522.080690	2553.634289
522.443580	2552.598332
522.806413	2555.136553
523.169189	2554.556821
523.531908	2553.001625
523.894569	2553.294012
524.257174	2551.433826
524.619722	2550.271840
524.982213	2555.025648
525.344647	2555.774259
525.707025	2552.928528
526.069345	2552.079093
526.431608	2553.883827
526.793815	2553.530946
527.155964	2553.364588
527.518057	2553.523384
527.880093	2551.887530
528.242072	2552.928528
528.603995	2553.737633
528.965860	2554.428271
529.327669	2555.307953
529.689421	2553.725030
530.051117	2553.649413
530.412755	2556.850546
530.774337	2554.846687
531.135862	2555.038251
531.497331	2555.285267
531.858743	2554.627397
532.220098	2556.250648
532.581396	2554.743343
532.942638	2557.636966
533.303824	2555.038251
533.664953	2557.780638
534.026025	2558.161246
534.387040	2556.353992
534.747999	2558.251986
535.108902	2558.188972
535.469748	2555.116389
535.830537	2558.889692
536.191270	2556.628735
536.551947	2552.812581
536.912567	2556.167469
537.273131	2557.699980
537.633638	2554.319886
537.994089	2559.784497
538.354483	2558.551935
538.714821	2561.629559
539.075103	2560.626370
539.435328	2562.058057
539.795497	2563.777091
540.155609	2565.581824
540.515665	2563.005794
540.875665	2564.087122
541.235609	2563.504869
541.595496	2561.130485
541.955328	2564.692060
542.315102	2566.159036
542.674821	2563.998902
543.034483	2564.744992
543.394090	2563.696432
543.753640	2566.958059
544.113134	2567.522668
544.472571	2569.128276
544.831953	2569.955025
545.191278	2566.751372
545.550548	2570.121383
545.909761	2570.476784
546.268918	2570.045766
546.628019	2569.612227
546.987064	2570.867474
547.346053	2571.661456
547.704986	2575.212948
548.063863	2573.332598
548.422684	2570.287741
548.781449	2572.251271
549.140158	2571.099367
549.498811	2577.007599
549.857408	2575.162537
550.215949	2572.291600
550.574434	2572.677248
550.932864	2572.437793
551.291237	2574.096333
551.649555	2576.634554
552.007817	2575.596076
552.366022	2576.304358
552.724173	2577.569688
553.082267	2577.380645
553.440305	2577.788978
553.798288	2576.047259
554.156215	2574.514749
554.514086	2575.858216
554.871902	2573.839234
555.229661	2576.319482
555.587365	2571.583318
555.945014	2574.910479
556.302606	2578.467013
556.660143	2577.211766
557.017625	2580.249061
557.375050	2579.926427
557.732421	2578.945923
558.089735	2577.791499
558.446994	2580.138156
558.804197	2580.533886
559.161345	2580.173444
559.518437	2578.550192
559.875474	2578.522466
560.232455	2579.336612
560.589381	2580.654874
560.946251	2580.107909
561.303065	2580.443146
561.659825	2582.809967
562.016528	2578.991293
562.373177	2578.978690
562.729770	2576.528690
563.086307	2582.079000
563.442789	2580.753177
563.799216	2579.510532
564.155587	2581.287539
564.511904	2581.592529
564.868164	2579.689493
565.224370	2581.990780
565.580520	2578.777044
565.936615	2582.550348
566.292654	2579.694534
566.648638	2582.305852
567.004567	2579.283680
567.360441	2580.470872
567.716260	2580.964905
568.072023	2582.089082
568.427732	2578.643454
568.783385	2582.953640
569.138982	2578.784606
569.494525	2578.245203
569.850013	2579.006417
570.205445	2579.056828
570.560823	2580.244020
570.916145	2578.330902
571.271412	2576.921900
571.626625	2581.668146
571.981782	2580.526325
572.336884	2577.947774
572.691931	2574.368555
573.046923	2574.771847
573.401860	2571.616085
573.756743	2579.208063
574.111570	2578.038515
574.466342	2578.257805
574.821059	2578.262847
575.175722	2575.308730
575.530330	2577.199163
575.884882	2577.862075
576.239380	2577.831828
576.593823	2579.475244
576.948211	2577.277301
577.302544	2577.854513
577.656823	2575.429718
578.011047	2575.394430
578.365216	2574.751683
578.719330	2576.785788
579.073389	2577.620099
579.427394	2577.519276
579.781344	2572.856209
580.135239	2575.659091
580.489080	2575.500294
580.842866	2577.327713
581.196597	2575.878381
581.550273	2574.360993
581.903895	2572.712536
582.257463	2576.637074
582.610975	2572.997361
582.964434	2575.679255
583.317837	2572.490725
583.671186	2574.413926
584.024481	2576.400140
584.377721	2571.696744
584.730906	2573.781261
585.084037	2573.632547
585.437113	2573.844275
585.790135	2573.153637
586.143103	2574.045921
586.496016	2573.962742
586.848874	2573.950139
587.201679	2570.801939
587.554428	2571.399316
587.907124	2574.381158
588.259765	2570.859912
588.612352	2573.680438
588.964884	2570.078533
589.317362	2571.366548
589.669786	2570.804459
590.022155	2569.826476
590.374470	2566.917730
590.726731	2568.067113
591.078937	2565.944787
591.431090	2571.185067
591.783188	2569.561815
592.135232	2571.474933
592.487222	2571.379151
592.839157	2570.141548
593.191038	2569.355128
593.542866	2570.381003
593.894639	2570.423852
594.246358	2569.781105
594.598022	2570.438976
594.949633	2567.719273
595.301190	2567.114335
595.652692	2568.419994
596.004141	2568.203224
596.355535	2569.040056
596.706876	2569.337484
597.058162	2568.641804
597.409395	2566.826989
597.760573	2568.634243
598.111698	2568.198183
598.462768	2569.380333
598.813785	2567.318502
599.164748	2568.097360
599.515657	2567.003429
599.866511	2568.669531
600.217312	2565.939746
600.568060	2564.656772
600.918753	2568.540981
601.269392	2566.259859
601.619978	2567.404201
601.970510	2568.883780
602.320988	2565.254149
602.671412	2566.075857
603.021783	2568.291444
603.372100	2563.630897
603.722363	2566.617781
604.072572	2566.269942
604.422728	2569.143399
604.772830	2569.995354
605.122878	2567.000909
605.472872	2568.062072
605.822813	2567.958728
606.172701	2570.880077
606.522534	2567.898234
606.872314	2568.689695
607.222041	2567.300858
607.571714	2566.048131
607.921333	2564.752554
608.270899	2565.647359
608.620411	2565.516289
608.969870	2572.115159
609.319276	2576.810994
609.668627	2578.283011
610.017926	2583.614031
610.367171	2583.235945
610.716362	2584.607139
611.065500	2584.544124
611.414585	2579.747466
611.763616	2580.415419
612.112594	2577.010120
612.461518	2575.878381
612.810389	2575.212948
613.159207	2575.306210
613.507971	2577.365521
613.856682	2577.418453
614.205340	2574.907959
614.553945	2578.136818
614.902496	2576.256467
615.250994	2575.409553
615.599439	2575.102043
615.947830	2577.657908
616.296169	2575.548185
616.644454	2572.589028
616.992686	2572.715057
617.340864	2575.412074
617.688990	2576.473237
618.037063	2577.368042
618.385082	2575.820407
618.733048	2578.724112
619.080961	2573.917372
619.428821	2576.808474
619.776628	2580.211252
620.124382	2577.317630
620.472083	2579.220666
620.819731	2581.978177
621.167326	2576.543813
621.514868	2580.085224
621.862357	2578.530028
622.209793	2580.531366
622.557176	2579.041705
622.904506	2574.045921
623.251783	2578.827456
623.599007	2580.758218
623.946179	2576.868968
624.293297	2579.329051
624.640363	2576.591704
624.987376	2577.985583
625.334336	2576.989955
625.681243	2575.918710
626.028097	2575.288566
626.374899	2579.671849
626.721647	2581.385841
627.068343	2583.470358
627.414987	2578.746797
627.761577	2580.155800
628.108115	2577.635223
628.454600	2580.760738
628.801032	2580.947261
629.147412	2581.345512
629.493739	2580.738053
629.840014	2583.858527
630.186236	2580.208732
630.532405	2583.422468
630.878521	2581.751325
631.224585	2583.856007
631.570597	2583.268712
631.916556	2582.963723
632.262462	2583.356932
632.608316	2584.884402
632.954117	2583.021696
633.299866	2586.618559
633.645562	2586.217787
633.991206	2585.320462
634.336797	2583.634196
634.682336	2586.671491
635.027823	2584.047571
635.373257	2587.387335
635.718639	2583.971953
636.063968	2586.749629
636.409245	2583.651840
636.754470	2589.802048
637.099642	2583.185533
637.444762	2585.070925
637.789829	2582.928434
638.134845	2585.312900
638.479808	2589.464290
638.824719	2587.904053
639.169577	2587.732654
639.514383	2586.805082
639.859137	2587.951944
640.203839	2586.653847
640.548489	2585.489341
640.893086	2589.968406
641.237632	2584.218970
641.582125	2590.522933
641.926566	2591.067377
642.270955	2587.160483
642.615292	2585.171748
642.959576	2586.618559
643.303809	2584.894484
643.647990	2589.544949
643.992118	2593.088880
644.336195	2587.500761
