Dividing Wavelength (nm)	Counts (n)	Blue Motor Position (mm): 36.500000	Red Motor Position (mm): 0.000000	
326.493990	2154.989926
326.888308	2154.989926
327.282561	2154.989926
327.676750	2128.223919
328.070874	2129.491769
328.464933	2135.987296
328.858929	2143.977525
329.252859	2157.548311
329.646726	2169.876453
330.040528	2184.851200
330.434265	2204.214272
330.827938	2221.623897
331.221547	2241.347412
331.615091	2261.943046
332.008571	2279.667743
332.401986	2303.482153
332.795338	2322.779690
333.188625	2343.677793
333.581847	2364.033973
333.975006	2383.013917
334.368100	2401.202400
334.761129	2418.959864
335.154095	2434.194231
335.546996	2456.798765
335.939833	2489.677171
336.332606	2501.977586
336.725315	2513.889832
337.117960	2524.574558
337.510540	2530.659231
337.903056	2539.982845
338.295508	2548.361242
338.687896	2552.159752
339.080220	2561.586710
339.472480	2565.523851
339.864676	2572.299162
340.256807	2575.487691
340.648875	2576.004410
341.040879	2579.727302
341.432818	2580.254102
341.824694	2581.859710
342.216506	2580.387693
342.608253	2579.424832
342.999937	2576.987435
343.391557	2578.356108
343.783113	2576.556416
344.174605	2576.682445
344.566033	2570.655745
344.957397	2573.977866
345.348697	2571.215313
345.739934	2569.892011
346.131106	2565.506207
346.522215	2568.997206
346.913260	2564.079560
347.304241	2562.453788
347.695159	2557.838612
348.086012	2560.112172
348.476802	2555.345761
348.867528	2556.497665
349.258191	2558.158725
349.648789	2555.494475
350.039324	2552.132026
350.429796	2555.423899
350.820203	2549.240924
351.210548	2551.466593
351.600828	2549.924000
351.991045	2547.597508
352.381198	2547.395862
352.771288	2548.517518
353.161314	2547.302600
353.551276	2549.823177
353.941175	2547.347971
354.331010	2549.339226
354.720782	2548.910728
355.110490	2549.205636
355.500135	2547.340409
355.889717	2550.750749
356.279235	2547.665563
356.668689	2549.124977
357.058080	2549.578681
357.447408	2546.105326
357.836672	2546.153217
358.225873	2547.952909
358.615010	2544.305634
359.004084	2551.864844
359.393095	2553.422561
359.782043	2552.996583
360.170927	2551.998435
360.559748	2553.944320
360.948505	2553.251162
361.337199	2553.394835
361.725830	2556.628735
362.114398	2554.022458
362.502903	2555.209650
362.891344	2559.534960
363.279722	2553.757798
363.668037	2557.899106
364.056289	2558.594785
364.444478	2558.965310
364.832603	2558.504044
365.220665	2558.688046
365.608665	2561.811041
365.996601	2564.124931
366.384474	2559.446740
366.772284	2562.214333
367.160031	2560.654096
367.547715	2560.790207
367.935336	2561.904302
368.322893	2558.940104
368.710388	2562.718449
369.097820	2566.000240
369.485189	2565.123079
369.872495	2563.749365
370.259738	2562.713408
370.646918	2564.681978
371.034035	2566.789180
371.421090	2568.142730
371.808081	2566.998388
372.195010	2564.760116
372.581875	2565.617112
372.968678	2566.607699
373.355418	2564.490414
373.742096	2566.786660
374.128710	2564.780281
374.515262	2564.808007
374.901751	2566.534602
375.288177	2565.639797
375.674540	2567.502504
376.060841	2566.877401
376.447079	2570.622978
376.833254	2568.664490
377.219367	2562.849519
377.605417	2566.458985
377.991404	2564.306412
378.377329	2562.668037
378.763191	2566.320353
379.148991	2568.914027
379.534727	2570.005437
379.920402	2571.895869
380.306013	2569.529048
380.691563	2570.895200
381.077049	2571.391754
381.462474	2570.048286
381.847835	2570.895200
382.233134	2572.727660
382.618371	2573.269584
383.003545	2571.790005
383.388657	2571.537947
383.773706	2575.563309
384.158693	2572.548699
384.543618	2572.561302
384.928480	2575.825449
385.313280	2575.754873
385.698017	2572.591548
386.082692	2574.875191
386.467305	2578.285532
386.851856	2577.113463
387.236344	2574.575242
387.620770	2576.427867
388.005133	2576.737897
388.389435	2579.795357
388.773674	2575.570870
389.157851	2574.590366
389.541965	2578.464493
389.926018	2574.945767
390.310008	2577.481468
390.693936	2580.188567
391.077802	2577.869637
391.461606	2579.792837
391.845348	2578.585480
392.229027	2578.645974
392.612645	2582.182344
392.996200	2579.901222
393.379694	2581.821901
393.763125	2583.097313
394.146494	2581.993300
394.529801	2581.360636
394.913047	2582.547827
395.296230	2580.475913
395.679351	2583.009093
396.062410	2584.521439
396.445408	2582.071438
396.828343	2584.672674
397.211217	2577.753690
397.594028	2581.000193
397.976778	2583.455235
398.359466	2581.847107
398.742092	2581.254771
399.124656	2584.271902
399.507158	2584.655030
399.889598	2585.065884
400.271977	2584.317272
400.654294	2587.089907
401.036549	2587.165524
401.418742	2590.790114
401.800874	2591.440423
402.182944	2590.253231
402.564952	2592.685588
402.946898	2593.464446
403.328783	2594.132399
403.710606	2595.770774
404.092367	2596.108531
404.474067	2599.740682
404.855705	2600.864860
405.237282	2603.191352
405.618797	2605.618668
406.000250	2612.399020
406.381642	2614.743156
406.762972	2617.558641
407.144240	2622.975361
407.525447	2627.338479
407.906593	2630.332925
408.287677	2637.481281
408.668700	2641.993113
409.049661	2646.499905
409.430560	2654.684218
409.811399	2665.318532
410.192176	2670.152999
410.572891	2678.720440
410.953545	2688.901050
411.334138	2692.538242
411.714669	2706.451827
412.095139	2709.201777
412.475547	2725.164590
412.855894	2732.161712
413.236180	2746.695358
413.616405	2754.254568
413.996568	2768.747886
414.376670	2780.645009
414.756711	2789.283026
415.136691	2807.163999
415.516609	2821.649754
415.896466	2837.244564
416.276262	2860.431351
416.655997	2877.276366
417.035670	2895.043913
417.415283	2930.775612
417.794834	2950.509208
418.174324	2962.766774
418.553753	2978.550627
418.933121	3011.116480
419.312428	3021.975126
419.691674	3035.845861
420.070859	3069.432548
420.449983	3077.206007
420.829045	3120.202008
421.208047	3128.771970
421.586988	3170.701767
421.965867	3205.949515
422.344686	3223.104561
422.723444	3263.998401
423.102141	3230.197465
423.480777	3306.520534
423.859352	3308.161430
424.237866	3381.938716
424.616319	3393.223339
424.994712	3452.971094
425.373044	3465.271510
425.751314	3524.563041
426.129524	3498.787621
426.507673	3589.130139
426.885762	3593.001745
427.263789	3629.945841
427.641756	3645.207935
428.019662	3689.794420
428.397508	3707.894683
428.775292	3752.287083
429.153016	3781.770272
429.530679	3808.006957
429.908282	3828.663085
430.285824	3829.933456
430.663305	3905.399529
431.040726	3886.996797
431.418086	3892.118609
431.795385	3973.024087
432.172624	4019.511087
432.549802	4003.328983
432.926920	4031.400648
433.303977	4039.877349
433.680974	4091.624793
434.057910	4122.869864
434.434786	4137.272441
434.811601	4142.963904
435.188355	4251.976335
435.565050	4238.529057
435.941683	4242.751023
436.318257	4335.843491
436.694770	4351.032488
437.071222	4411.513731
437.447614	4358.954661
437.823946	4367.196947
438.200218	4393.549579
438.576429	4380.001478
438.952580	4413.835182
439.328670	4426.619548
439.704700	4474.505469
440.080670	4439.671096
440.456580	4504.525540
440.832429	4545.878125
441.208218	4455.649033
441.583947	4508.233308
441.959616	4525.317779
442.335224	4552.996234
442.710773	4575.245367
443.086261	4630.894664
443.461689	4590.678859
443.837057	4605.159573
444.212365	4679.730842
444.587612	4686.995144
444.962800	4655.636647
445.337927	4696.439746
445.712995	4588.506122
446.088002	4779.243219
446.462949	4803.350016
446.837837	4825.009334
447.212664	4814.143127
447.587431	5035.729565
447.962139	5333.886088
448.336786	5671.681205
448.711374	5653.386857
449.085901	5299.180265
449.460369	5234.862703
449.834776	5175.608981
450.209124	5411.746709
450.583412	5421.224079
450.957640	5546.741248
451.331808	5412.359210
451.705917	5260.055870
452.079965	5250.946505
452.453954	5290.063338
452.827883	5252.332822
453.201752	5258.805663
453.575562	5295.013751
453.949311	5426.565181
454.323001	5435.036840
454.696632	5421.239202
455.070202	5577.278037
455.443713	5611.252893
455.817164	5702.671698
456.190556	5773.787255
456.563888	5748.102576
456.937160	5826.379093
457.310373	5670.151214
457.683526	5721.555860
458.056619	5722.836313
458.429653	5702.122212
458.802628	5745.680302
459.175542	5777.149705
459.548398	5920.520120
459.921194	6107.602381
460.293930	6171.385580
460.666607	6421.918323
461.039224	6635.060828
461.411782	6757.570949
461.784280	6673.978536
462.156719	6679.599422
462.529099	6636.938658
462.901419	6496.232492
463.273680	6366.964705
463.645882	6355.430545
464.018024	6357.066399
464.390106	6428.494508
464.762130	6685.283323
465.134094	7076.517191
465.505999	7718.762712
465.877845	8414.976305
466.249631	8769.684492
466.621358	8685.847583
466.993026	8486.719486
467.364634	8278.159389
467.736184	7992.174732
468.107674	7837.277718
468.479105	7755.142198
468.850477	7692.659617
469.221790	7515.707555
469.593043	7296.182949
469.964238	7199.501180
470.335373	7175.749784
470.706449	7327.632187
471.077467	7517.419027
471.448425	8188.550359
471.819324	8763.773739
472.190164	8796.707597
472.560945	8308.025705
472.931667	7847.538987
473.302330	7642.568192
473.672934	7531.236830
474.043479	7607.612831
474.413965	7494.990933
474.784393	7456.295037
475.154761	7609.513346
475.525070	7621.334852
475.895321	7576.274498
476.265513	7678.589757
476.635645	7842.379366
477.005719	7832.062644
477.375734	7919.466170
477.745691	8024.107921
478.115588	8231.964776
478.485427	8468.838513
478.855207	8947.859034
479.224928	9382.935816
479.594591	9761.692828
479.964194	9767.459908
480.333739	9845.847330
480.703226	9849.875212
481.072653	9949.054873
481.442022	10070.362678
481.811333	10208.414676
482.180584	10056.983456
482.549777	9991.070369
482.918912	9926.813302
483.287988	9917.673690
483.657005	9829.108179
484.025964	9737.054189
484.394864	9801.361668
484.763706	9763.777345
485.132489	9680.462196
485.501213	9669.064147
485.869879	9729.925997
486.238487	9664.176748
486.607036	9743.761444
486.975527	9686.441004
487.343959	9747.040715
487.712333	9793.807499
488.080648	9837.085805
488.448905	9931.201626
488.817104	9943.335684
489.185244	10108.282238
489.553326	10323.534466
489.921350	10804.697477
490.289315	11427.128742
490.657222	11717.289996
491.025070	11895.058724
491.392861	11805.391721
491.760593	11645.589665
492.128267	11396.249154
492.495883	11152.234623
492.863440	10926.708523
493.230939	10692.675477
493.598380	10517.538230
493.965763	10491.160393
494.333088	10361.943017
494.700354	10288.367376
495.067563	10264.454663
495.434713	10266.604715
495.801805	10312.736314
496.168839	10269.450447
496.535815	10241.403987
496.902733	10285.907293
497.269593	10250.331871
497.636395	10256.545093
498.003139	10357.413540
498.369825	10291.480289
498.736453	10376.708556
499.103023	10325.835752
499.469535	10331.638120
499.835989	10382.342046
500.202385	10356.770793
500.568723	10370.712104
500.935003	10435.064953
501.301226	10403.721579
501.667390	10571.365150
502.033497	10665.642289
502.399546	10593.049674
502.765537	10502.104738
503.131470	10606.915367
503.497345	10692.725888
503.863163	10472.780346
504.228923	10603.865469
504.594625	10717.241019
504.960269	10628.516712
505.325856	10781.054465
505.691385	10665.254120
506.056856	10723.136649
506.422270	10828.133801
506.787625	10764.534604
507.152924	10817.519652
507.518164	10879.137675
507.883347	10741.481407
508.248472	10820.395630
508.613540	10925.133163
508.978550	11002.436736
509.343503	10982.312450
509.708398	11033.437312
510.073236	11161.916159
510.438016	11179.804693
510.802738	11098.518608
511.167403	11217.820034
511.532010	11276.791452
511.896561	11368.457273
512.261053	11566.932541
512.625488	11489.117290
512.989866	11473.625825
513.354186	11448.034407
513.718449	11464.841614
514.082655	11607.491144
514.446803	11562.264433
514.810894	11674.757781
515.174927	11660.332519
515.538904	11650.078812
515.902822	11805.792493
516.266684	11688.356293
516.630488	11782.900613
516.994235	11779.699480
517.357925	11892.102088
517.721558	11948.094183
518.085133	12012.487362
518.448651	12045.559852
518.812112	12001.197698
519.175516	12015.824606
519.538863	12104.127977
519.902152	12108.962444
520.265385	12219.441851
520.628560	12244.597209
520.991678	12188.894979
521.354739	12244.254410
521.717743	12315.642190
522.080690	12283.429217
522.443580	12417.619691
522.806413	12442.427209
523.169189	12419.704208
523.531908	12482.045637
523.894569	12445.177158
524.257174	12456.635701
524.619722	12577.792272
524.982213	12545.349927
525.344647	12535.537321
525.707025	12545.657437
526.069345	12650.142912
526.431608	12631.488122
526.793815	12702.543186
527.155964	12605.717744
527.518057	12630.878143
527.880093	12600.409409
528.242072	12718.563973
528.603995	12632.322433
528.965860	12640.410965
529.327669	12683.603571
529.689421	12622.242646
530.051117	12639.914411
530.412755	12680.669619
530.774337	12684.374867
531.135862	12642.117395
531.497331	12692.405425
531.858743	12653.954024
532.220098	12740.649268
532.581396	12679.177438
532.942638	12593.346752
533.303824	12665.508349
533.664953	12647.798776
534.026025	12596.903286
534.387040	12705.620810
534.747999	12679.263137
535.108902	12721.071947
535.469748	12608.858383
535.830537	12633.807053
536.191270	12660.091629
536.551947	12587.108324
536.912567	12653.754899
537.273131	12697.527238
537.633638	12571.153073
537.994089	12628.692803
538.354483	12537.561344
538.714821	12666.035150
539.075103	12755.717277
539.435328	12679.414372
539.795497	12670.549503
540.155609	12662.387875
540.515665	12760.748348
540.875665	12611.099176
541.235609	12710.974516
541.595496	12684.095083
541.955328	12851.663037
542.315102	12708.169113
542.674821	12645.893219
543.034483	12657.066937
543.394090	12650.087459
543.753640	12628.201290
544.113134	12860.606044
544.472571	12625.274900
544.831953	12921.631732
545.191278	12728.888256
545.550548	12657.999550
545.909761	12770.369390
546.268918	12813.488900
546.628019	12885.015311
546.987064	12765.645829
547.346053	12606.236983
547.704986	12813.960247
548.063863	12699.531096
548.422684	12754.361206
548.781449	12709.207591
549.140158	12801.420377
549.498811	12761.819593
549.857408	12619.399435
550.215949	12826.593379
550.574434	12795.305458
550.932864	12737.793454
551.291237	12936.606479
551.649555	12826.880725
552.007817	12882.605639
552.366022	12798.491467
552.724173	12845.021317
553.082267	12929.216148
553.440305	13026.152495
553.798288	12839.599556
554.156215	12921.475456
554.514086	12967.034884
554.871902	12909.180082
555.229661	12933.352415
555.587365	12890.784912
555.945014	12905.384093
556.302606	12877.219167
556.660143	12943.417078
557.017625	12972.524701
557.375050	12935.749483
557.732421	13032.058207
558.089735	13034.863609
558.446994	13009.022654
558.804197	13121.314356
559.161345	13118.423255
559.518437	12932.407198
559.875474	13029.703988
560.232455	13055.456723
560.589381	13105.984207
560.946251	13040.028271
561.303065	13205.395761
561.659825	13157.192248
562.016528	13077.224425
562.373177	13017.988347
562.729770	13148.949962
563.086307	13027.208617
563.442789	13139.850679
563.799216	13182.203933
564.155587	13123.948359
564.511904	13143.137511
564.868164	13151.294098
565.224370	13212.276936
565.580520	13162.828258
565.936615	13221.610633
566.292654	13169.429649
566.648638	13231.125811
567.004567	13236.408940
567.360441	13231.884504
567.716260	13207.583622
568.072023	13279.898974
568.427732	13273.262295
568.783385	13178.090352
569.138982	13286.006332
569.494525	13284.443574
569.850013	13224.995768
570.205445	13215.417575
570.560823	13231.627405
570.916145	13184.792566
571.271412	13197.869319
571.626625	13149.680929
571.981782	13158.712156
572.336884	13104.635699
572.691931	13189.264069
573.046923	13083.450250
573.401860	13057.233729
573.756743	13051.847256
574.111570	13073.453642
574.466342	13050.670147
574.821059	13107.269702
575.175722	12977.059218
575.530330	12998.716015
575.884882	12922.473605
576.239380	12924.147268
576.593823	12916.401535
576.948211	12912.429106
577.302544	12790.551650
577.656823	12803.535141
578.011047	12865.395140
578.365216	12794.796301
578.719330	12742.867375
579.073389	12711.763456
579.427394	12728.154768
579.781344	12719.368037
580.135239	12650.042089
580.489080	12660.510045
580.842866	12552.324363
581.196597	12638.439873
581.550273	12633.323102
581.903895	12593.482863
582.257463	12700.309955
582.610975	12546.337993
582.964434	12609.828805
583.317837	12521.722038
583.671186	12485.786173
584.024481	12539.139225
584.377721	12428.589242
584.730906	12497.602638
585.084037	12509.643434
585.437113	12437.822115
585.790135	12459.771299
586.143103	12365.602545
586.496016	12383.480997
586.848874	12393.144889
587.201679	12395.095816
587.554428	12273.039399
587.907124	12316.151346
588.259765	12253.106676
588.612352	12329.709530
588.964884	12186.281141
589.317362	12242.094276
589.669786	12231.742266
590.022155	12190.256091
590.374470	12299.563430
590.726731	12176.203874
591.078937	12071.385683
591.431090	12091.749424
591.783188	12023.966069
592.135232	11938.972216
592.487222	12003.229283
592.839157	12016.280830
593.191038	11938.523553
593.542866	11887.925492
593.894639	11745.102042
594.246358	11800.532049
594.598022	11809.202833
594.949633	11716.737989
595.301190	11706.794313
595.652692	11659.029381
596.004141	11754.927250
596.355535	11528.975173
596.706876	11508.797955
597.058162	11472.342851
597.409395	11572.959241
597.760573	11599.450504
598.111698	11483.960190
598.462768	11485.840540
598.813785	11500.958961
599.164748	11366.604649
599.515657	11446.413676
599.866511	11319.953811
600.217312	11451.543050
600.568060	11211.387522
600.918753	11381.191228
601.269392	11381.884386
601.619978	11291.246961
601.970510	11318.227216
602.320988	11360.673732
602.671412	11433.243662
603.021783	11360.852693
603.372100	11286.757813
603.722363	11295.776437
604.072572	11304.880761
604.422728	11323.893473
604.772830	11257.035170
605.122878	11270.674012
605.472872	11239.925494
605.822813	11301.876234
606.172701	11259.616241
606.522534	11296.441870
606.872314	11354.248781
607.222041	11279.128027
607.571714	11359.355470
607.921333	11229.971736
608.270899	11282.664396
608.620411	11348.451454
608.969870	11288.181939
609.319276	11270.898343
609.668627	11284.461568
610.017926	11368.757222
610.367171	11400.985318
610.716362	11396.619679
611.065500	11366.685308
611.414585	11375.882893
611.763616	11442.451329
612.112594	11399.659495
612.461518	11421.792681
612.810389	11476.048099
613.159207	11420.529872
613.507971	11412.874880
613.856682	11513.423214
614.205340	11465.015534
614.553945	11605.971237
614.902496	11484.925571
615.250994	11549.550643
615.599439	11547.607278
615.947830	11577.647514
616.296169	11541.000846
616.644454	11557.772765
616.992686	11569.967316
617.340864	11664.410813
617.688990	11546.876311
618.037063	11688.232785
618.385082	11655.170377
618.733048	11695.214783
619.080961	11680.355982
619.428821	11667.974908
619.776628	11672.005311
620.124382	11624.729370
620.472083	11638.721092
620.819731	11658.374031
621.167326	11584.400139
621.514868	11568.031513
621.862357	11467.805812
622.209793	11450.769233
622.557176	11371.487007
622.904506	11315.580610
623.251783	11237.157901
623.599007	11179.111535
623.946179	11129.652774
624.293297	11114.385640
624.640363	10974.886831
624.987376	10959.496188
625.334336	10890.800384
625.681243	10810.078908
626.028097	10784.490012
626.374899	10745.131203
626.721647	10712.066275
627.068343	10682.194918
627.414987	10617.975659
627.761577	10550.174660
628.108115	10600.291291
628.454600	10470.254728
628.801032	10488.992697
629.147412	10467.288009
629.493739	10441.931005
629.840014	10354.787099
630.186236	10405.349872
630.532405	10305.134254
630.878521	10346.779226
631.224585	10301.723913
631.570597	10229.146422
631.916556	10228.183561
632.262462	10214.978259
632.608316	10190.710144
632.954117	10161.811730
633.299866	10148.450151
633.645562	10129.288726
633.991206	10019.726808
634.336797	9921.507487
634.682336	9909.703626
635.027823	9855.533907
635.373257	9820.858330
635.718639	9756.588660
636.063968	9724.647909
636.409245	9610.518707
636.754470	9590.833001
637.099642	9539.836689
637.444762	9440.140310
637.789829	9446.867729
638.134845	9374.600268
638.479808	9349.603707
