Dividing Wavelength (nm)	Counts (n)	Blue Motor Position (mm): 15.900000	Red Motor Position (mm): 0.000000	
326.493990	2136.418315
326.888308	2136.418315
327.282561	2136.418315
327.676750	2104.235589
328.070874	2102.430856
328.464933	2105.543768
328.858929	2108.981835
329.252859	2120.697477
329.646726	2132.965124
330.040528	2147.841569
330.434265	2165.735145
330.827938	2180.939265
331.221547	2198.701771
331.615091	2218.826057
332.008571	2235.429097
332.401986	2256.624628
332.795338	2274.805550
333.188625	2295.355813
333.581847	2314.363484
333.975006	2330.850578
334.368100	2350.942096
334.761129	2369.644777
335.154095	2385.297560
335.546996	2402.954201
335.939833	2422.917170
336.332606	2438.607762
336.725315	2452.450770
337.117960	2459.271451
337.510540	2467.753193
337.903056	2479.357929
338.295508	2487.675833
338.687896	2494.032727
339.080220	2504.853564
339.472480	2509.740963
339.864676	2517.718589
340.256807	2519.510719
340.648875	2522.245545
341.040879	2524.292253
341.432818	2526.296112
341.824694	2527.616894
342.216506	2530.344159
342.608253	2526.961544
342.999937	2530.732328
343.391557	2527.417769
343.783113	2526.769981
344.174605	2525.897861
344.566033	2524.622449
344.957397	2521.070956
345.348697	2523.503313
345.739934	2520.463497
346.131106	2516.289422
346.522215	2517.630369
346.913260	2512.448062
347.304241	2513.736077
347.695159	2512.392610
348.086012	2509.627537
348.476802	2506.801970
348.867528	2506.539830
349.258191	2503.126969
349.648789	2503.835251
350.039324	2501.123110
350.429796	2500.747544
350.820203	2495.666061
351.210548	2496.313850
351.600828	2497.337204
351.991045	2497.672441
352.381198	2496.076915
352.771288	2497.100270
353.161314	2494.405773
353.551276	2495.968531
353.941175	2495.018273
354.331010	2496.954076
354.720782	2493.941987
355.110490	2493.742861
355.500135	2492.699342
355.889717	2497.344766
356.279235	2495.819817
356.668689	2497.309477
357.058080	2496.729745
357.447408	2493.148005
357.836672	2495.116576
358.225873	2493.296719
358.615010	2493.846205
359.004084	2498.209323
359.393095	2498.191679
359.782043	2498.305105
360.170927	2500.460199
360.559748	2501.849037
360.948505	2499.469612
361.337199	2502.232164
361.725830	2502.489263
362.114398	2502.038080
362.502903	2502.580004
362.891344	2503.303409
363.279722	2502.176712
363.668037	2501.768378
364.056289	2503.910868
364.444478	2502.297699
364.832603	2506.360869
365.220665	2501.508759
365.608665	2504.213338
365.996601	2508.891528
366.384474	2503.563029
366.772284	2504.213338
367.160031	2504.523369
367.547715	2508.722650
367.935336	2507.560664
368.322893	2509.085613
368.710388	2508.647032
369.097820	2509.584687
369.485189	2509.763648
369.872495	2506.630571
370.259738	2510.902949
370.646918	2508.934378
371.034035	2508.221055
371.421090	2511.283556
371.808081	2511.989317
372.195010	2511.084430
372.581875	2510.476971
372.968678	2510.948319
373.355418	2511.482682
373.742096	2512.281704
374.128710	2513.539472
374.515262	2511.835562
374.901751	2510.426560
375.288177	2511.961591
375.674540	2512.392610
376.060841	2510.315654
376.447079	2516.906963
376.833254	2510.529903
377.219367	2508.105108
377.605417	2510.628206
377.991404	2510.643329
378.377329	2511.437311
378.763191	2510.063597
379.148991	2514.525018
379.534727	2514.519977
379.920402	2515.618948
380.306013	2515.213135
380.691563	2513.821777
381.077049	2514.023423
381.462474	2517.413599
381.847835	2515.097189
382.233134	2516.544000
382.618371	2517.481655
383.003545	2515.747498
383.388657	2516.639782
383.773706	2518.283198
384.158693	2515.109792
384.543618	2519.306552
384.928480	2516.317148
385.313280	2517.322858
385.698017	2517.786644
386.082692	2518.073990
386.467305	2518.094155
386.851856	2520.949968
387.236344	2521.509537
387.620770	2521.353261
388.005133	2517.111130
388.389435	2520.949968
388.773674	2520.392921
389.157851	2516.969977
389.541965	2518.608353
389.926018	2517.993332
390.310008	2519.911491
390.693936	2519.503157
391.077802	2519.787983
391.461606	2523.425175
391.845348	2521.559948
392.229027	2520.365195
392.612645	2522.031296
392.996200	2521.191944
393.379694	2523.072294
393.763125	2521.156656
394.146494	2522.439629
394.529801	2523.362161
394.913047	2522.991636
395.296230	2525.176976
395.679351	2521.996008
396.062410	2521.673374
396.445408	2524.677902
396.828343	2525.139167
397.211217	2521.159176
397.594028	2520.818898
397.976778	2520.771007
398.359466	2522.396780
398.742092	2520.614732
399.124656	2524.894671
399.507158	2526.328880
399.889598	2524.574558
400.271977	2525.497089
400.654294	2527.364837
401.036549	2526.744775
401.418742	2521.867458
401.800874	2525.058509
402.182944	2525.504651
402.564952	2525.862573
402.946898	2524.909795
403.328783	2526.066740
403.710606	2525.618077
404.092367	2523.717562
404.474067	2528.423479
404.855705	2524.826616
405.237282	2526.331400
405.618797	2529.121679
406.000250	2524.950124
406.381642	2527.349713
406.762972	2528.035310
407.144240	2528.136133
407.525447	2531.818696
407.906593	2529.378778
408.287677	2525.585309
408.668700	2527.450536
409.049661	2529.169570
409.430560	2530.318953
409.811399	2531.148223
410.192176	2528.171421
410.572891	2530.790301
410.953545	2529.119158
411.334138	2527.667306
411.714669	2530.949097
412.095139	2531.911958
412.475547	2527.828623
412.855894	2531.276772
413.236180	2532.408511
413.616405	2533.867925
413.996568	2530.444982
414.376670	2530.152595
414.756711	2529.202337
415.136691	2531.201155
415.516609	2531.712832
415.896466	2529.124199
416.276262	2533.192411
416.655997	2528.839374
417.035670	2527.178314
417.415283	2531.286854
417.794834	2528.541946
418.174324	2531.846422
418.553753	2535.140817
418.933121	2532.093439
419.312428	2531.922040
419.691674	2532.504293
420.070859	2531.548994
420.449983	2531.385157
420.829045	2531.501103
421.208047	2533.406660
421.586988	2533.540250
421.965867	2534.389685
422.344686	2534.253573
422.723444	2532.088398
423.102141	2533.998995
423.480777	2532.126207
423.859352	2531.775846
424.237866	2533.459592
424.616319	2534.021680
424.994712	2536.380940
425.373044	2534.470343
425.751314	2536.144006
426.129524	2533.754499
426.507673	2534.384643
426.885762	2535.198790
427.263789	2535.339942
427.641756	2532.443799
428.019662	2536.517052
428.397508	2534.974458
428.775292	2536.428831
429.153016	2536.189377
429.530679	2535.440765
429.908282	2535.889428
430.285824	2534.177956
430.663305	2535.009747
431.040726	2534.611495
431.418086	2534.291382
431.795385	2538.321785
432.172624	2538.735159
432.549802	2539.698020
432.926920	2537.157278
433.303977	2536.559901
433.680974	2538.001671
434.057910	2537.545447
434.434786	2539.098122
434.811601	2537.863040
435.188355	2535.526465
435.565050	2540.209697
435.941683	2540.423946
436.318257	2536.544778
436.694770	2532.259797
437.071222	2537.442103
437.447614	2535.569315
437.823946	2534.019160
438.200218	2538.044521
438.576429	2539.410674
438.952580	2539.221631
439.328670	2538.546116
439.704700	2540.597866
440.080670	2536.718698
440.456580	2536.794315
440.832429	2540.436549
441.208218	2540.045859
441.583947	2539.322454
441.959616	2536.368338
442.335224	2540.434028
442.710773	2540.078627
443.086261	2540.406302
443.461689	2538.561239
443.837057	2538.289017
444.212365	2539.551826
444.587612	2540.050900
444.962800	2540.968390
445.337927	2540.547454
445.712995	2542.886549
446.088002	2537.737011
446.462949	2539.720705
446.837837	2540.151723
447.212664	2538.447813
447.587431	2541.066693
447.962139	2541.762372
448.336786	2540.310520
448.711374	2544.267826
449.085901	2541.154913
449.460369	2540.852444
449.834776	2541.490150
450.209124	2542.793288
450.583412	2540.474357
450.957640	2542.430325
451.331808	2542.853782
451.705917	2539.972763
452.079965	2542.924358
452.453954	2542.311858
452.827883	2540.870088
453.201752	2539.922351
453.575562	2543.214224
453.949311	2541.505273
454.323001	2543.942671
454.696632	2541.608617
455.070202	2545.432332
455.443713	2546.180943
455.817164	2541.104502
456.190556	2539.992927
456.563888	2541.404450
456.937160	2539.824048
457.310373	2545.931406
457.683526	2543.783875
458.056619	2542.531148
458.429653	2545.061807
458.802628	2545.641540
459.175542	2544.091385
459.548398	2544.930737
459.921194	2542.967208
460.293930	2546.639688
460.666607	2543.370500
461.039224	2542.299255
461.411782	2545.018958
461.784280	2546.004503
462.156719	2541.774975
462.529099	2545.800336
462.901419	2545.739843
463.273680	2546.730429
463.645882	2545.696993
464.018024	2544.219935
464.390106	2545.636499
464.762130	2546.773279
465.134094	2544.300593
465.505999	2547.804195
465.877845	2546.438042
466.249631	2546.468289
466.621358	2546.511139
466.993026	2550.821326
467.364634	2549.954247
467.736184	2546.725388
468.107674	2548.819988
468.479105	2545.094575
468.850477	2545.497867
469.221790	2549.903836
469.593043	2544.146838
469.964238	2544.741694
470.335373	2548.550286
470.706449	2546.937117
471.077467	2545.195398
471.448425	2549.296377
471.819324	2547.736139
472.190164	2550.004659
472.560945	2548.146993
472.931667	2548.603218
473.302330	2548.746891
473.672934	2545.268495
474.043479	2549.319062
474.413965	2547.395862
474.784393	2542.518545
475.154761	2546.521221
475.525070	2545.573484
475.895321	2546.369987
476.265513	2546.453166
476.635645	2549.770245
477.005719	2549.929041
477.375734	2549.563558
477.745691	2550.541542
478.115588	2549.089689
478.485427	2549.440049
478.855207	2551.547252
479.224928	2551.932900
479.594591	2552.900802
479.964194	2549.016592
480.333739	2552.789896
480.703226	2553.480534
481.072653	2552.593291
481.442022	2551.300235
481.811333	2552.043805
482.180584	2551.635472
482.549777	2551.015410
482.918912	2549.586243
483.287988	2554.322407
483.657005	2550.352498
484.025964	2551.726213
484.394864	2550.140770
484.763706	2553.094886
485.132489	2552.673950
485.501213	2553.546069
485.869879	2551.277550
486.238487	2551.587581
486.607036	2550.765873
486.975527	2552.842828
487.343959	2551.327962
487.712333	2552.197561
488.080648	2553.127653
488.448905	2553.142777
488.817104	2553.409958
489.185244	2553.931718
489.553326	2551.869886
489.921350	2549.966850
490.289315	2553.137736
490.657222	2554.264434
491.025070	2552.142108
491.392861	2552.280740
491.760593	2552.389124
492.128267	2553.462890
492.495883	2553.084804
492.863440	2554.231666
493.230939	2553.455328
493.598380	2555.504558
493.965763	2548.492313
494.333088	2552.878116
494.700354	2551.738816
495.067563	2550.957437
495.434713	2549.772766
495.801805	2554.055226
496.168839	2554.481203
496.535815	2553.137736
496.902733	2554.566903
497.269593	2553.840977
497.636395	2554.818961
498.003139	2555.940617
498.369825	2553.382232
498.736453	2554.574465
499.103023	2556.462377
499.469535	2559.978582
499.835989	2556.076728
500.202385	2553.611604
500.568723	2556.124619
500.935003	2558.362892
501.301226	2559.224929
501.667390	2557.125288
502.033497	2555.993549
502.399546	2558.478838
502.765537	2558.793910
503.131470	2557.432799
503.497345	2558.516647
503.863163	2557.904147
504.228923	2555.376008
504.594625	2560.092008
504.960269	2558.872048
505.325856	2558.824157
505.691385	2558.519167
506.056856	2559.517316
506.422270	2558.647717
506.787625	2556.517829
507.152924	2560.596123
507.518164	2558.191492
507.883347	2555.935576
508.248472	2558.867007
508.613540	2563.761967
508.978550	2560.722152
509.343503	2561.448078
509.708398	2561.473284
510.073236	2561.052347
510.438016	2560.835578
510.802738	2560.250804
511.167403	2561.311967
511.532010	2562.259704
511.896561	2559.734086
512.261053	2566.199365
512.625488	2561.911864
512.989866	2559.882800
513.354186	2560.976730
513.718449	2558.148643
514.082655	2561.324570
514.446803	2562.171483
514.810894	2562.862122
515.174927	2567.066444
515.538904	2569.428224
515.902822	2566.650549
516.266684	2565.019735
516.630488	2566.763975
516.994235	2567.885631
517.357925	2567.308419
517.721558	2566.572411
518.085133	2567.275652
518.448651	2570.955694
518.812112	2571.182546
519.175516	2570.794377
519.538863	2569.332442
519.902152	2573.012485
520.265385	2572.936867
520.628560	2572.253791
520.991678	2572.145406
521.354739	2572.490725
521.717743	2571.555591
522.080690	2574.134142
522.443580	2576.195973
522.806413	2576.448031
523.169189	2579.255954
523.531908	2579.223186
523.894569	2580.266705
524.257174	2579.618917
524.619722	2578.950964
524.982213	2582.704103
525.344647	2584.781058
525.707025	2584.987746
526.069345	2584.287025
526.431608	2587.510843
526.793815	2587.722572
527.155964	2591.183324
527.518057	2593.436720
527.880093	2593.522419
528.242072	2593.023345
528.603995	2595.778336
528.965860	2599.213882
529.327669	2597.451999
529.689421	2599.826382
530.051117	2600.738831
530.412755	2604.053390
530.774337	2604.464244
531.135862	2607.662856
531.497331	2608.497167
531.858743	2606.485746
532.220098	2615.043105
532.581396	2610.914400
532.942638	2616.885647
533.303824	2620.643827
533.664953	2625.506020
534.026025	2629.289406
534.387040	2631.217647
534.747999	2633.400467
535.108902	2639.785088
535.469748	2638.285345
535.830537	2643.830614
536.191270	2647.014103
536.551947	2653.207160
536.912567	2653.532315
537.273131	2658.137409
537.633638	2664.063285
537.994089	2666.384736
538.354483	2673.780109
538.714821	2679.211952
539.075103	2686.730833
539.435328	2691.489682
539.795497	2689.889116
540.155609	2703.228009
540.515665	2709.441231
540.875665	2711.278732
541.235609	2719.470607
541.595496	2723.576627
541.955328	2733.961404
542.315102	2735.509038
542.674821	2745.961870
543.034483	2753.064856
543.394090	2759.598192
543.753640	2764.135230
544.113134	2778.134514
544.472571	2781.023095
544.831953	2796.244859
545.191278	2801.558236
545.550548	2810.496201
545.909761	2822.670588
546.268918	2831.706856
546.628019	2844.153465
546.987064	2849.779393
547.346053	2854.286184
547.704986	2875.509442
548.063863	2883.144269
548.422684	2893.067781
548.781449	2902.424162
549.140158	2919.276740
549.498811	2927.367792
549.857408	2929.190169
550.215949	2952.137501
550.574434	2956.210753
550.932864	2979.117756
551.291237	2993.721979
551.649555	3009.281500
552.007817	3019.908253
552.366022	3033.393339
552.724173	3053.933521
553.082267	3064.020869
553.440305	3095.316353
553.798288	3092.571444
554.156215	3126.279119
554.514086	3138.892086
554.871902	3145.939619
555.229661	3169.670851
555.587365	3184.033098
555.945014	3192.464428
556.302606	3224.337123
556.660143	3230.245356
557.017625	3270.163732
557.375050	3279.976338
557.732421	3310.971873
558.089735	3327.385870
558.446994	3346.113756
558.804197	3373.807335
559.161345	3396.381622
559.518437	3395.380953
559.875474	3437.807304
560.232455	3464.701859
560.589381	3477.037563
560.946251	3516.565250
561.303065	3534.461346
561.659825	3560.493865
562.016528	3570.170360
562.373177	3572.660690
562.729770	3625.096251
563.086307	3633.852736
563.442789	3672.478056
563.799216	3693.819781
564.155587	3719.534707
564.511904	3737.955083
564.868164	3769.598406
565.224370	3787.650778
565.580520	3823.783248
565.936615	3833.570648
566.292654	3858.466386
566.648638	3898.150349
567.004567	3928.109927
567.360441	3953.388793
567.716260	3968.252635
568.072023	4008.566742
568.427732	4037.949107
568.783385	4039.063202
569.138982	4091.002210
569.494525	4120.538331
569.850013	4124.951861
570.205445	4185.929658
570.560823	4186.834545
570.916145	4207.465467
571.271412	4256.203343
571.626625	4273.928039
571.981782	4300.096669
572.336884	4337.557483
572.691931	4352.007951
573.046923	4388.657139
573.401860	4407.553904
573.756743	4427.559723
574.111570	4473.003205
574.466342	4493.220752
574.821059	4538.250859
575.175722	4538.029048
575.530330	4573.480963
575.884882	4603.511116
576.239380	4620.832521
576.593823	4640.954286
576.948211	4681.999361
577.302544	4669.020910
577.656823	4719.651739
578.011047	4747.337756
578.365216	4781.524341
578.719330	4786.535248
579.073389	4830.630220
579.427394	4834.867310
579.781344	4862.001321
580.135239	4884.247933
580.489080	4915.717336
580.842866	4923.284107
581.196597	4955.348367
581.550273	4999.992825
581.903895	5031.411816
582.257463	5076.938477
582.610975	5075.985699
582.964434	5108.745637
583.317837	5124.534531
583.671186	5140.814937
584.024481	5174.343651
584.377721	5176.087891
584.730906	5198.873906
585.084037	5245.134054
585.437113	5245.754116
585.790135	5295.384276
586.143103	5281.445485
586.496016	5296.929389
586.848874	5350.703378
587.201679	5377.073653
587.554428	5368.077714
587.907124	5417.223923
588.259765	5433.784113
588.612352	5476.061750
588.964884	5443.256442
589.317362	5483.467205
589.669786	5514.871073
590.022155	5557.985541
590.374470	5598.859217
590.726731	5596.585656
591.078937	5561.937806
591.431090	5655.206714
591.783188	5611.966217
592.135232	5653.016332
592.487222	5668.132232
592.839157	5729.752776
593.191038	5724.540223
593.542866	5728.361418
593.894639	5702.598601
594.246358	5758.996510
594.598022	5793.346932
594.949633	5771.317090
595.301190	5787.625223
595.652692	5824.939843
596.004141	5927.401295
596.355535	5826.865564
596.706876	5841.371484
597.058162	5833.514846
597.409395	5905.426906
597.760573	5963.657274
598.111698	5935.535197
598.462768	5956.675276
598.813785	5956.425738
599.164748	5976.754191
599.515657	5989.772971
599.866511	5973.429550
600.217312	6058.690585
600.568060	6005.571947
600.918753	6092.405822
601.269392	6099.647440
601.619978	6075.207926
601.970510	6136.460466
602.320988	6151.725080
602.671412	6222.873404
603.021783	6200.074786
603.372100	6207.989398
603.722363	6242.244038
604.072572	6247.622949
604.422728	6277.217043
604.772830	6252.039000
605.122878	6281.781808
605.472872	6298.541124
605.822813	6347.450398
606.172701	6327.333674
606.522534	6404.969964
606.872314	6419.861532
607.222041	6431.935096
607.571714	6488.111193
607.921333	6480.350337
608.270899	6507.746488
608.620411	6588.016780
608.969870	6547.443054
609.319276	6558.342028
609.668627	6596.349808
610.017926	6641.011910
610.367171	6693.628953
610.716362	6699.108688
611.065500	6705.400048
611.414585	6751.952583
611.763616	6759.310147
612.112594	6764.600838
612.461518	6800.138452
612.810389	6860.959973
613.159207	6832.991652
613.507971	6810.329144
613.856682	6926.736948
614.205340	6904.530666
614.553945	6988.198696
614.902496	6931.750376
615.250994	6984.924467
615.599439	6984.972358
615.947830	7017.253386
616.296169	7009.023703
616.644454	7038.106119
616.992686	7053.544653
617.340864	7117.282482
617.688990	7055.911475
618.037063	7140.459186
618.385082	7112.095134
618.733048	7201.527724
619.080961	7164.949112
619.428821	7195.929523
619.776628	7215.259827
620.124382	7192.312495
620.472083	7198.157713
620.819731	7229.869091
621.167326	7167.636047
621.514868	7179.938983
621.862357	7102.123732
622.209793	7135.755790
622.557176	7100.533248
622.904506	7088.278203
623.251783	7043.066615
623.599007	7025.593975
623.946179	7047.192799
624.293297	7023.017946
624.640363	6961.480581
624.987376	6965.483257
625.334336	6929.499501
625.681243	6901.879019
626.028097	6898.642598
626.374899	6885.089456
626.721647	6899.212248
627.068343	6847.852973
627.414987	6832.205232
627.761577	6801.232382
628.108115	6843.820050
628.454600	6761.800477
628.801032	6819.400701
629.147412	6785.322501
629.493739	6789.957842
629.840014	6733.630509
630.186236	6795.422453
630.532405	6700.179933
630.878521	6755.365444
631.224585	6720.561318
631.570597	6662.535117
631.916556	6698.307144
632.262462	6698.367638
632.608316	6669.827146
632.954117	6657.549415
633.299866	6656.364744
633.645562	6659.954046
633.991206	6596.342246
634.336797	6545.787035
634.682336	6514.264700
635.027823	6496.955898
635.373257	6495.995558
635.718639	6441.460356
636.063968	6459.059024
636.409245	6365.268357
636.754470	6368.560230
637.099642	6333.602349
637.444762	6291.748169
637.789829	6304.187216
638.134845	6257.468323
638.479808	6247.237301
638.824719	6255.572849
639.169577	6198.363314
639.514383	6218.906016
639.859137	6157.156923
640.203839	6164.103633
640.548489	6161.051214
640.893086	6142.640920
641.237632	6119.071006
641.582125	6142.961034
641.926566	6115.640500
642.270955	6133.415609
642.615292	6131.429394
642.959576	6154.472508
643.303809	6146.714173
643.647990	6158.286141
643.992118	6146.814996
644.336195	6103.657678
