Dividing Wavelength (nm)	Counts (n)	Blue Motor Position (mm): 37.000000	Red Motor Position (mm): 0.000000	
326.493990	2155.577220
326.888308	2155.577220
327.282561	2155.577220
327.676750	2130.484877
328.070874	2130.799949
328.464933	2136.627523
328.858929	2145.114305
329.252859	2155.481438
329.646726	2172.500373
330.040528	2184.778104
330.434265	2203.374920
330.827938	2222.967365
331.221547	2242.869840
331.615091	2261.696029
332.008571	2282.962137
332.401986	2304.545837
332.795338	2324.092911
333.188625	2340.595128
333.581847	2362.786287
333.975006	2379.732126
334.368100	2399.853891
334.761129	2418.107909
335.154095	2432.223140
335.546996	2459.400001
335.939833	2490.355206
336.332606	2501.695281
336.725315	2516.236490
337.117960	2521.875020
337.510540	2531.571680
337.903056	2539.824048
338.295508	2545.999462
338.687896	2551.650595
339.080220	2563.882955
339.472480	2567.701629
339.864676	2572.130283
340.256807	2575.500294
340.648875	2576.034657
341.040879	2580.090265
341.432818	2582.071438
341.824694	2581.441294
342.216506	2580.818712
342.608253	2579.558423
342.999937	2579.291242
343.391557	2580.859041
343.783113	2575.054152
344.174605	2576.548854
344.566033	2576.032136
344.957397	2572.334450
345.348697	2572.357135
345.739934	2570.018039
346.131106	2568.772874
346.522215	2567.570559
346.913260	2564.432441
347.304241	2562.030331
347.695159	2560.545711
348.086012	2558.814075
348.476802	2559.789538
348.867528	2555.504557
349.258191	2555.617983
349.648789	2555.083621
350.039324	2551.320400
350.429796	2554.072870
350.820203	2551.496840
351.210548	2548.280584
351.600828	2548.532642
351.991045	2550.657488
352.381198	2549.868547
352.771288	2549.447611
353.161314	2546.556509
353.551276	2551.275029
353.941175	2548.583053
354.331010	2548.303269
354.720782	2548.295708
355.110490	2548.643547
355.500135	2550.717982
355.889717	2548.431819
356.279235	2547.499205
356.668689	2550.997766
357.058080	2551.809392
357.447408	2546.392672
357.836672	2550.087838
358.225873	2547.070707
358.615010	2550.395348
359.004084	2553.840977
359.393095	2552.268137
359.782043	2550.954916
360.170927	2556.943807
360.559748	2553.765359
360.948505	2554.468600
361.337199	2556.699311
361.725830	2555.746533
362.114398	2554.297201
362.502903	2558.796431
362.891344	2558.186451
363.279722	2556.631255
363.668037	2558.148643
364.056289	2557.256358
364.444478	2558.420865
364.832603	2560.467573
365.220665	2559.431616
365.608665	2560.260886
365.996601	2561.891699
366.384474	2561.402708
366.772284	2559.489590
367.160031	2560.911195
367.547715	2561.589230
367.935336	2560.699467
368.322893	2562.978068
368.710388	2564.316494
369.097820	2568.609037
369.485189	2562.237018
369.872495	2564.997050
370.259738	2562.358006
370.646918	2562.610064
371.034035	2564.651731
371.421090	2565.463357
371.808081	2566.073337
372.195010	2565.969993
372.581875	2563.731721
372.968678	2563.043603
373.355418	2565.614592
373.742096	2565.768347
374.128710	2566.874880
374.515262	2569.614747
374.901751	2567.641135
375.288177	2568.533420
375.674540	2567.406722
376.060841	2568.639284
376.447079	2568.029304
376.833254	2570.862433
377.219367	2565.937225
377.605417	2566.310271
377.991404	2565.796073
378.377329	2567.837740
378.763191	2564.530743
379.148991	2569.834037
379.534727	2569.256825
379.920402	2570.590210
380.306013	2570.877556
380.691563	2571.822772
381.077049	2573.289748
381.462474	2571.522824
381.847835	2570.607854
382.233134	2571.598441
382.618371	2574.139183
383.003545	2573.350242
383.388657	2573.289748
383.773706	2574.557598
384.158693	2572.440314
384.543618	2573.090623
384.928480	2574.088771
385.313280	2573.017526
385.698017	2574.209759
386.082692	2572.702454
386.467305	2577.289904
386.851856	2577.118505
387.236344	2575.132290
387.620770	2578.540110
388.005133	2576.032136
388.389435	2577.627661
388.773674	2574.996179
389.157851	2575.802763
389.541965	2577.105902
389.926018	2579.901222
390.310008	2578.419122
390.693936	2577.610017
391.077802	2578.444328
391.461606	2578.494740
391.845348	2579.560944
392.229027	2580.304514
392.612645	2578.915676
392.996200	2581.370718
393.379694	2580.465831
393.763125	2582.308372
394.146494	2583.540935
394.529801	2581.705955
394.913047	2583.155286
395.296230	2582.724268
395.679351	2584.085379
396.062410	2582.915832
396.445408	2581.874833
396.828343	2584.150914
397.211217	2583.283836
397.594028	2579.858372
397.976778	2582.913311
398.359466	2583.903898
398.742092	2581.055646
399.124656	2588.849270
399.507158	2586.343816
399.889598	2589.549990
400.271977	2590.704414
400.654294	2591.516040
401.036549	2591.790783
401.418742	2592.478900
401.800874	2596.088367
402.182944	2594.576020
402.564952	2597.386464
402.946898	2597.449478
403.328783	2600.832092
403.710606	2603.292175
404.092367	2605.248143
404.474067	2608.537496
404.855705	2612.242744
405.237282	2613.263578
405.618797	2618.304732
406.000250	2626.531895
406.381642	2632.689664
406.762972	2634.698564
407.144240	2639.691827
407.525447	2648.881850
407.906593	2649.872437
408.287677	2663.957421
408.668700	2668.514624
409.049661	2677.185408
409.430560	2687.512212
409.811399	2695.383974
410.192176	2704.367310
410.572891	2713.756459
410.953545	2730.558625
411.334138	2732.985940
411.714669	2753.316914
412.095139	2752.981677
412.475547	2771.878442
412.855894	2779.820780
413.236180	2801.139820
413.616405	2807.398412
413.996568	2825.337358
414.376670	2835.066785
414.756711	2847.483147
415.136691	2871.133720
415.516609	2887.146946
415.896466	2905.312743
416.276262	2927.776125
416.655997	2949.702624
417.035670	2967.734831
417.415283	3010.894670
417.794834	3035.588762
418.174324	3043.087478
418.553753	3063.408369
418.933121	3102.764657
419.312428	3110.086933
419.691674	3124.532360
420.070859	3161.693225
420.449983	3170.064061
420.829045	3211.154506
421.208047	3220.150445
421.586988	3266.103083
421.965867	3302.762354
422.344686	3322.150632
422.723444	3364.914740
423.102141	3326.796055
423.480777	3406.562232
423.859352	3403.519896
424.237866	3487.014006
424.616319	3498.374247
424.994712	3557.915315
425.373044	3567.032241
425.751314	3633.961120
426.129524	3599.474587
426.507673	3694.825491
426.885762	3691.294163
427.263789	3725.329513
427.641756	3747.273656
428.019662	3788.084317
428.397508	3802.973365
428.775292	3848.137062
429.153016	3869.191441
429.530679	3901.722007
429.908282	3920.621293
430.285824	3915.373452
430.663305	3989.632168
431.040726	3965.754743
431.418086	3971.463850
431.795385	4050.816652
432.172624	4095.796348
432.549802	4075.420004
432.926920	4104.242801
433.303977	4107.774129
433.680974	4154.843383
434.057910	4182.766334
434.434786	4200.682595
434.811601	4202.129406
435.188355	4307.066064
435.565050	4290.508394
435.941683	4295.466369
436.318257	4385.415677
436.694770	4398.729365
437.071222	4460.175989
437.447614	4398.694077
437.823946	4409.842588
438.200218	4428.963685
438.576429	4416.771654
438.952580	4444.445068
439.328670	4456.808498
439.704700	4499.247452
440.080670	4467.853666
440.456580	4527.495557
440.832429	4565.427719
441.208218	4473.136795
441.583947	4526.205022
441.959616	4548.713774
442.335224	4566.713214
442.710773	4595.394858
443.086261	4645.544257
443.461689	4604.453812
443.837057	4617.906131
444.212365	4693.057132
444.587612	4698.693142
444.962800	4666.618801
445.337927	4706.597671
445.712995	4597.386114
446.088002	4786.820073
446.462949	4809.722035
446.837837	4829.495961
447.212664	4818.178570
447.587431	5043.450092
447.962139	5348.122307
448.336786	5683.691754
448.711374	5661.745090
449.085901	5307.089835
449.460369	5242.860494
449.834776	5183.067368
450.209124	5420.619140
450.583412	5429.209266
450.957640	5551.404315
451.331808	5415.373820
451.705917	5266.480820
452.079965	5260.633082
452.453954	5295.868227
452.827883	5259.788688
453.201752	5260.978401
453.575562	5297.380573
453.949311	5431.984422
454.323001	5437.156645
454.696632	5428.201036
455.070202	5584.378502
455.443713	5615.984016
455.817164	5703.521132
456.190556	5779.967710
456.563888	5750.471919
456.937160	5835.869065
457.310373	5673.589281
457.683526	5730.650102
458.056619	5723.025357
458.429653	5707.682605
458.802628	5757.605151
459.175542	5786.619512
459.548398	5924.290903
459.921194	6113.155212
460.293930	6170.757956
460.666607	6427.818993
461.039224	6637.367156
461.411782	6758.415342
461.784280	6679.448188
462.156719	6683.793662
462.529099	6644.306304
462.901419	6500.136866
463.273680	6371.831939
463.645882	6359.176122
464.018024	6368.028388
464.390106	6435.685714
464.762130	6696.194901
465.134094	7088.615960
465.505999	7722.654482
465.877845	8424.282275
466.249631	8773.551057
466.621358	8694.382257
466.993026	8496.910178
467.364634	8284.097868
467.736184	8000.018767
468.107674	7848.045622
468.479105	7763.833148
468.850477	7696.861419
469.221790	7523.183586
469.593043	7306.638302
469.964238	7208.547531
470.335373	7180.894281
470.706449	7335.874474
471.077467	7529.530399
471.448425	8185.160183
471.819324	8775.542313
472.190164	8802.938463
472.560945	8311.856982
472.931667	7845.252823
473.302330	7659.342631
473.672934	7531.990482
474.043479	7616.946527
474.413965	7515.180755
474.784393	7465.515307
475.154761	7618.020293
475.525070	7632.571584
475.895321	7583.080056
476.265513	7684.177876
476.635645	7855.012497
477.005719	7838.623706
477.375734	7925.409690
477.745691	8035.626957
478.115588	8241.820232
478.485427	8476.301941
478.855207	8959.191547
479.224928	9384.160817
479.594591	9769.083160
479.964194	9770.356051
480.333739	9855.705306
480.703226	9860.025575
481.072653	9961.713210
481.442022	10073.067257
481.811333	10221.972860
482.180584	10063.375639
482.549777	10002.097893
482.918912	9940.290827
483.287988	9928.164331
483.657005	9839.634108
484.025964	9753.231252
484.394864	9820.991921
484.763706	9777.585066
485.132489	9690.380666
485.501213	9675.292492
485.869879	9737.613757
486.238487	9675.027832
486.607036	9757.254092
486.975527	9699.421975
487.343959	9758.201829
487.712333	9807.945415
488.080648	9844.735756
488.448905	9942.597155
488.817104	9948.011354
489.185244	10118.135173
489.553326	10337.962248
489.921350	10811.341717
490.289315	11442.090887
490.657222	11733.043602
491.025070	11901.244220
491.392861	11816.391519
491.760593	11659.178095
492.128267	11405.784497
492.495883	11168.225163
492.863440	10934.436612
493.230939	10712.157016
493.598380	10523.459065
493.965763	10503.148257
494.333088	10364.387976
494.700354	10302.356578
495.067563	10271.603019
495.434713	10275.247773
495.801805	10315.120780
496.168839	10280.372106
496.535815	10247.385316
496.902733	10303.959665
497.269593	10256.371173
497.636395	10260.212532
498.003139	10374.591272
498.369825	10300.148553
498.736453	10391.322861
499.103023	10336.301188
499.469535	10344.392240
499.835989	10388.262881
500.202385	10366.795127
500.568723	10379.035049
500.935003	10445.497621
501.301226	10413.264483
501.667390	10572.814482
502.033497	10683.482933
502.399546	10604.051992
502.765537	10510.677220
503.131470	10616.649835
503.497345	10701.167300
503.863163	10476.384771
504.228923	10611.122210
504.594625	10727.671167
504.960269	10636.562393
505.325856	10795.177258
505.691385	10670.315439
506.056856	10732.888761
506.422270	10841.843219
506.787625	10774.291757
507.152924	10828.128760
507.518164	10896.698534
507.883347	10752.367779
508.248472	10828.579943
508.613540	10944.027407
508.978550	11012.423262
509.343503	10998.098823
509.708398	11044.474918
510.073236	11168.457056
510.438016	11194.214832
510.802738	11105.919022
511.167403	11223.607279
511.532010	11287.413163
511.896561	11390.479554
512.261053	11584.931981
512.625488	11497.997283
512.989866	11484.328194
513.354186	11453.680499
513.718449	11477.394087
514.082655	11612.439037
514.446803	11570.461349
514.810894	11680.073678
515.174927	11680.875221
515.538904	11657.958136
515.902822	11828.175216
516.266684	11700.157634
516.630488	11796.514249
516.994235	11791.311778
517.357925	11901.115671
517.721558	11963.643622
518.085133	12028.389682
518.448651	12055.818600
518.812112	12013.646827
519.175516	12030.517049
519.538863	12115.624329
519.902152	12119.168260
520.265385	12223.200031
520.628560	12249.161973
520.991678	12201.596166
521.354739	12252.468970
521.717743	12321.991523
522.080690	12298.514870
522.443580	12427.434817
522.806413	12449.250411
523.169189	12435.062083
523.531908	12498.389058
523.894569	12462.848923
524.257174	12474.849390
524.619722	12586.510948
524.982213	12557.194118
525.344647	12553.725804
525.707025	12561.723594
526.069345	12666.743432
526.431608	12645.517653
526.793815	12721.412225
527.155964	12618.582768
527.518057	12648.111327
527.880093	12608.722272
528.242072	12732.875808
528.603995	12637.212353
528.965860	12653.386895
529.327669	12684.304291
529.689421	12637.940799
530.051117	12650.102583
530.412755	12691.298892
530.774337	12692.415508
531.135862	12652.391267
531.497331	12708.542159
531.858743	12673.947241
532.220098	12757.816917
532.581396	12689.226978
532.942638	12610.506840
533.303824	12683.848067
533.664953	12669.775686
534.026025	12613.314763
534.387040	12725.266187
534.747999	12692.788553
535.108902	12736.089544
535.469748	12610.489196
535.830537	12643.576809
536.191270	12684.813448
536.551947	12610.632869
536.912567	12672.719720
537.273131	12709.454608
537.633638	12584.436513
537.994089	12645.086635
538.354483	12545.952344
538.714821	12678.169207
539.075103	12766.187753
539.435328	12693.179242
539.795497	12678.055781
540.155609	12670.360460
540.515665	12773.217642
540.875665	12632.161116
541.235609	12723.675703
541.595496	12689.252184
541.955328	12871.094165
542.315102	12718.639590
542.674821	12661.482988
543.034483	12672.651664
543.394090	12667.618072
543.753640	12644.816933
544.113134	12877.866955
544.472571	12649.316163
544.831953	12926.335128
545.191278	12744.929207
545.550548	12675.318434
545.909761	12787.806741
546.268918	12820.957369
546.628019	12899.170871
546.987064	12776.711162
547.346053	12625.151392
547.704986	12829.033297
548.063863	12710.563662
548.422684	12764.861930
548.781449	12724.174777
549.140158	12821.469046
549.498811	12775.634875
549.857408	12641.658650
550.215949	12843.372860
550.574434	12815.633911
550.932864	12746.232346
551.291237	12946.595526
551.649555	12841.820184
552.007817	12896.683062
552.366022	12808.515801
552.724173	12864.026467
553.082267	12944.722737
553.440305	13041.530535
553.798288	12862.103267
554.156215	12932.891149
554.514086	12981.681957
554.871902	12928.795212
555.229661	12944.213581
555.587365	12901.699010
555.945014	12914.238880
556.302606	12893.542423
556.660143	12955.223461
557.017625	12987.292761
557.375050	12947.301287
557.732421	13045.994477
558.089735	13043.118498
558.446994	13023.233667
558.804197	13134.847334
559.161345	13130.814411
559.518437	12945.393211
559.875474	13042.556410
560.232455	13073.010020
560.589381	13112.585598
560.946251	13053.601578
561.303065	13227.370151
561.659825	13174.690093
562.016528	13091.977362
562.373177	13028.892362
562.729770	13152.831650
563.086307	13044.182182
563.442789	13152.198985
563.799216	13188.588554
564.155587	13130.620326
564.511904	13148.153459
564.868164	13167.622396
565.224370	13224.458885
565.580520	13177.460207
565.936615	13243.075866
566.292654	13182.685363
566.648638	13251.295467
567.004567	13248.394283
567.360441	13252.160025
567.716260	13218.966547
568.072023	13301.475113
568.427732	13277.912759
568.783385	13185.294160
569.138982	13292.443885
569.494525	13284.516671
569.850013	13238.843817
570.205445	13229.174884
570.560823	13247.718768
570.916145	13201.249412
571.271412	13202.111450
571.626625	13168.088702
571.981782	13172.678673
572.336884	13115.033079
572.691931	13206.300648
573.046923	13094.465171
573.401860	13072.808374
573.756743	13061.964852
574.111570	13088.914861
574.466342	13064.732446
574.821059	13109.712141
575.175722	12986.962565
575.530330	13000.167868
575.884882	12939.484978
576.239380	12937.050101
576.593823	12922.027462
576.948211	12928.651539
577.302544	12806.254844
577.656823	12821.592554
578.011047	12879.091955
578.365216	12816.400166
578.719330	12756.339859
579.073389	12727.106208
579.427394	12737.685069
579.781344	12732.359090
580.135239	12653.263386
580.489080	12678.698528
580.842866	12562.489850
581.196597	12659.698419
581.550273	12644.955565
581.903895	12601.442845
582.257463	12711.420658
582.610975	12564.276939
582.964434	12621.935136
583.317837	12533.747711
583.671186	12497.905107
584.024481	12552.967110
584.377721	12441.050974
584.730906	12511.992612
585.084037	12528.479705
585.437113	12447.299484
585.790135	12473.579019
586.143103	12379.468239
586.496016	12395.854509
586.848874	12409.450501
587.201679	12409.533680
587.554428	12287.263014
587.907124	12334.448214
588.259765	12264.618151
588.612352	12344.976664
588.964884	12193.878160
589.317362	12251.871594
589.669786	12245.799524
590.022155	12203.781507
590.374470	12309.398721
590.726731	12186.964217
591.078937	12075.622773
591.431090	12095.568098
591.783188	12030.834642
592.135232	11951.133999
592.487222	12012.235304
592.839157	12020.805266
593.191038	11953.828496
593.542866	11900.883778
593.894639	11751.539595
594.246358	11815.330356
594.598022	11824.278404
594.949633	11727.145452
595.301190	11716.095242
595.652692	11675.766012
596.004141	11757.672159
596.355535	11538.699559
596.706876	11516.568894
597.058162	11483.251908
597.409395	11584.437948
597.760573	11607.657502
598.111698	11498.874444
598.462768	11501.805875
598.813785	11507.777121
599.164748	11382.859850
599.515657	11456.596807
599.866511	11326.945892
600.217312	11457.229472
600.568060	11227.700696
600.918753	11390.131714
601.269392	11386.779347
601.619978	11287.680344
601.970510	11332.818836
602.320988	11370.236800
602.671412	11442.753798
603.021783	11368.905936
603.372100	11295.032867
603.722363	11314.791670
604.072572	11319.706795
604.422728	11330.041160
604.772830	11270.588312
605.122878	11277.489652
605.472872	11248.941598
605.822813	11313.443161
606.172701	11268.655030
606.522534	11309.868983
606.872314	11354.883966
607.222041	11289.951384
607.571714	11371.224867
607.921333	11244.104611
608.270899	11292.066148
608.620411	11353.721980
608.969870	11295.461365
609.319276	11285.217741
609.668627	11298.168465
610.017926	11377.932122
610.367171	11415.609706
610.716362	11406.520505
611.065500	11381.080322
611.414585	11389.405788
611.763616	11446.411156
612.112594	11415.922257
612.461518	11439.918149
612.810389	11488.429173
613.159207	11429.911459
613.507971	11421.913668
613.856682	11527.291428
614.205340	11480.058337
614.553945	11621.651746
614.902496	11494.236582
615.250994	11561.835935
615.599439	11550.236240
615.947830	11586.353586
616.296169	11551.617516
616.644454	11563.799464
616.992686	11578.232288
617.340864	11680.303050
617.688990	11559.630430
618.037063	11694.486336
618.385082	11662.283446
618.733048	11705.350023
619.080961	11697.533714
619.428821	11672.690908
619.776628	11686.123062
620.124382	11631.484516
620.472083	11651.402115
620.819731	11673.245435
621.167326	11597.020668
621.514868	11577.594582
621.862357	11473.008283
622.209793	11475.201185
622.557176	11392.100285
622.904506	11331.682056
623.251783	11254.363359
623.599007	11190.529748
623.946179	11138.585699
624.293297	11123.187494
624.640363	10979.370937
624.987376	10967.680501
625.334336	10899.816488
625.681243	10820.146093
626.028097	10790.698193
626.374899	10745.446275
626.721647	10722.435928
627.068343	10684.602069
627.414987	10627.584098
627.761577	10558.298480
628.108115	10605.498803
628.454600	10479.205296
628.801032	10500.267237
629.147412	10482.867695
629.493739	10450.763106
629.840014	10374.104800
630.186236	10410.522096
630.532405	10310.740017
630.878521	10348.893990
631.224585	10310.561056
631.570597	10235.069777
631.916556	10236.471218
632.262462	10222.431605
632.608316	10195.708448
632.954117	10173.474439
633.299866	10153.584567
633.645562	10133.583789
633.991206	10026.789465
634.336797	9932.850084
634.682336	9917.552702
635.027823	9866.541267
635.373257	9829.531636
635.718639	9766.512171
636.063968	9728.542201
636.409245	9608.759344
636.754470	9611.050548
637.099642	9547.063183
637.444762	9449.766393
637.789829	9456.771076
638.134845	9379.480105
638.479808	9360.767342
