Dividing Wavelength (nm)	Counts (n)	Blue Motor Position (mm): 31.700000	Red Motor Position (mm): 0.000000	
326.493990	2218.034596
326.888308	2218.034596
327.282561	2218.034596
327.676750	2177.014727
328.070874	2170.854437
328.464933	2175.363749
328.858929	2178.489264
329.252859	2184.899091
329.646726	2191.404700
330.040528	2204.579756
330.434265	2215.234235
330.827938	2235.592934
331.221547	2250.247569
331.615091	2267.805908
332.008571	2289.132509
332.401986	2305.569191
332.795338	2325.756492
333.188625	2345.989163
333.581847	2365.029601
333.975006	2381.252034
334.368100	2402.636608
334.761129	2422.085380
335.154095	2438.280087
335.546996	2464.085753
335.939833	2499.668737
336.332606	2515.490399
336.725315	2527.639580
337.117960	2541.943854
337.510540	2554.682849
337.903056	2564.147616
338.295508	2572.384861
338.687896	2580.639751
339.080220	2587.662078
339.472480	2595.506113
339.864676	2600.958121
340.256807	2606.440376
340.648875	2610.619492
341.040879	2613.273660
341.432818	2617.646861
341.824694	2619.814557
342.216506	2620.175000
342.608253	2620.782459
342.999937	2622.841770
343.391557	2621.163066
343.783113	2622.284722
344.174605	2618.902108
344.566033	2621.556276
344.957397	2620.306070
345.348697	2617.397324
345.739934	2615.516973
346.131106	2613.946654
346.522215	2613.132508
346.913260	2610.362394
347.304241	2610.727877
347.695159	2604.827207
348.086012	2605.119594
348.476802	2601.147164
348.867528	2597.550301
349.258191	2594.545773
349.648789	2594.364292
350.039324	2593.144333
350.429796	2592.433530
350.820203	2592.388160
351.210548	2593.345979
351.600828	2590.691811
351.991045	2590.316245
352.381198	2590.512850
352.771288	2589.981009
353.161314	2588.758529
353.551276	2588.372881
353.941175	2584.561768
354.331010	2588.032603
354.720782	2587.228539
355.110490	2586.666450
355.500135	2585.847263
355.889717	2586.653847
356.279235	2587.646954
356.668689	2587.362129
357.058080	2585.423806
357.447408	2587.868765
357.836672	2588.377922
358.225873	2586.376584
358.615010	2587.432705
359.004084	2587.639393
359.393095	2590.744743
359.782043	2590.280957
360.170927	2590.081832
360.559748	2590.240628
360.948505	2590.850608
361.337199	2593.240115
361.725830	2591.148036
362.114398	2596.090887
362.502903	2593.013263
362.891344	2593.305650
363.279722	2595.730445
363.668037	2593.857656
364.056289	2595.778336
364.444478	2596.360589
364.832603	2596.978130
365.220665	2599.594489
365.608665	2598.886207
365.996601	2597.212544
366.384474	2598.233377
366.772284	2599.344952
367.160031	2598.102307
367.547715	2600.189345
367.935336	2599.660024
368.322893	2597.338573
368.710388	2597.643562
369.097820	2598.059458
369.485189	2595.362440
369.872495	2601.495004
370.259738	2602.767895
370.646918	2602.296547
371.034035	2602.490632
371.421090	2604.088678
371.808081	2601.414346
372.195010	2602.523399
372.581875	2605.230499
372.968678	2605.222937
373.355418	2603.645056
373.742096	2604.295365
374.128710	2605.611106
374.515262	2604.620519
374.901751	2604.048348
375.288177	2605.434666
375.674540	2604.091198
376.060841	2605.888370
376.447079	2609.344081
376.833254	2608.093874
377.219367	2607.662856
377.605417	2604.590272
377.991404	2607.884667
378.377329	2608.580346
378.763191	2611.166458
379.148991	2607.609924
379.534727	2610.412805
379.920402	2609.553288
380.306013	2607.002465
380.691563	2609.429780
381.077049	2609.449945
381.462474	2610.306941
381.847835	2612.575460
382.233134	2612.469596
382.618371	2613.036726
383.003545	2611.174019
383.388657	2612.038577
383.773706	2612.497322
384.158693	2612.396499
384.543618	2613.021602
384.928480	2614.228959
385.313280	2616.051336
385.698017	2613.555965
386.082692	2617.679628
386.467305	2614.914556
386.851856	2614.846500
387.236344	2616.804988
387.620770	2612.983794
388.005133	2612.686366
388.389435	2614.135697
388.773674	2614.904473
389.157851	2620.774897
389.541965	2613.402209
389.926018	2621.735237
390.310008	2617.825822
390.693936	2617.336830
391.077802	2620.222891
391.461606	2619.640637
391.845348	2619.300359
392.229027	2621.042078
392.612645	2618.715586
392.996200	2620.951337
393.379694	2620.953858
393.763125	2623.119033
394.146494	2622.579630
394.529801	2621.432767
394.913047	2623.474435
395.296230	2621.405041
395.679351	2625.541308
396.062410	2627.822430
396.445408	2625.369909
396.828343	2625.183386
397.211217	2627.504837
397.594028	2627.346041
397.976778	2628.873511
398.359466	2630.201855
398.742092	2629.496093
399.124656	2625.616925
399.507158	2630.670682
399.889598	2631.048768
400.271977	2631.671351
400.654294	2630.985754
401.036549	2632.573717
401.418742	2632.906434
401.800874	2632.215796
402.182944	2633.269397
402.564952	2633.806280
402.946898	2632.273769
403.328783	2635.754686
403.710606	2635.550519
404.092367	2639.991775
404.474067	2640.059831
404.855705	2637.509007
405.237282	2637.682927
405.618797	2640.697537
406.000250	2641.252064
406.381642	2643.444966
406.762972	2641.680562
407.144240	2641.002527
407.525447	2641.120994
407.906593	2639.593524
408.287677	2644.659884
408.668700	2643.576036
409.049661	2643.765079
409.430560	2645.257261
409.811399	2645.995790
410.192176	2647.392189
410.572891	2646.469658
410.953545	2649.890081
411.334138	2651.624238
411.714669	2648.450832
412.095139	2651.394865
412.475547	2652.735812
412.855894	2653.063487
413.236180	2654.754794
413.616405	2654.046512
413.996568	2657.073725
414.376670	2659.090187
414.756711	2659.501041
415.136691	2662.999602
415.516609	2667.534119
415.896466	2674.780778
416.276262	2678.642302
416.655997	2683.464166
417.035670	2695.424303
417.415283	2708.488453
417.794834	2719.140411
418.174324	2728.852194
418.553753	2743.751324
418.933121	2767.217896
419.312428	2790.508026
419.691674	2807.940336
420.070859	2850.596060
420.449983	2869.734800
420.829045	2919.329672
421.208047	2950.955350
421.586988	3008.099350
421.965867	3056.441495
422.344686	3116.716051
422.723444	3173.013136
423.102141	3173.804597
423.480777	3312.585042
423.859352	3323.143739
424.237866	3469.357365
424.616319	3528.132178
424.994712	3662.529339
425.373044	3679.906197
425.751314	3842.828727
426.129524	3905.054210
426.507673	4023.682642
426.885762	4147.992455
427.263789	4227.572109
427.641756	4304.976506
428.019662	4437.193368
428.397508	4596.440898
428.775292	4616.683651
429.153016	4847.442468
429.530679	4898.705962
429.908282	5023.308162
430.285824	5030.131363
430.663305	5383.158326
431.040726	5300.296880
431.418086	5394.513525
431.795385	5638.676770
432.172624	5791.312827
432.549802	5866.607500
432.926920	6023.344535
433.303977	6072.765487
433.680974	6282.416993
434.057910	6452.906296
434.434786	6589.836637
434.811601	6642.627600
435.188355	7066.636529
435.565050	7029.813421
435.941683	7104.006603
436.318257	7535.874691
436.694770	7724.295378
437.071222	7904.183912
437.447614	7918.079852
437.823946	7956.062426
438.200218	8186.682612
438.576429	8157.905185
438.952580	8427.223788
439.328670	8593.511289
439.704700	8529.846557
440.080670	8614.442159
440.456580	9150.689859
440.832429	9049.939878
441.208218	8824.345723
441.583947	9186.933234
441.959616	9385.741218
442.335224	9308.722470
442.710773	9519.840952
443.086261	9773.012739
443.461689	9230.604750
443.837057	9850.636426
444.212365	10175.949646
444.587612	9932.850084
444.962800	10214.196880
445.337927	10076.480118
445.712995	9717.323113
446.088002	10786.067893
446.462949	10501.638431
446.837837	10531.063646
447.212664	10596.263409
447.587431	11091.176168
447.962139	11779.417176
448.336786	13940.877422
448.711374	14553.322162
449.085901	12556.044734
449.460369	12214.705687
449.834776	11726.200235
450.209124	12555.028942
450.583412	12984.593223
450.957640	13940.242237
451.331808	13179.360722
451.705917	12182.805265
452.079965	11542.528315
452.453954	12433.872371
452.827883	12081.525964
453.201752	12370.303421
453.575562	11906.779407
453.949311	12320.799290
454.323001	12281.432920
454.696632	12517.827747
455.070202	12804.427426
455.443713	13072.019433
455.817164	13527.059185
456.190556	13540.440928
456.563888	13911.164862
456.937160	14086.896964
457.310373	13433.024022
457.683526	13505.815763
458.056619	13077.995721
458.429653	13200.263867
458.802628	12671.330882
459.175542	13025.134182
459.548398	13965.281648
459.921194	14300.611640
460.293930	14355.794631
460.666607	15247.234468
461.039224	16278.669669
461.411782	16957.541692
461.784280	16889.685241
462.156719	16912.607368
462.529099	16616.837830
462.901419	15538.403953
463.273680	15334.383415
463.645882	15187.159038
464.018024	14933.619246
464.390106	15153.234593
464.762130	15883.133176
465.134094	16617.092409
465.505999	18587.298840
465.877845	21844.998320
466.249631	24667.575646
466.621358	24390.372678
466.993026	22931.520729
467.364634	22392.679356
467.736184	20944.852409
468.107674	20130.224633
468.479105	20260.999726
468.850477	19728.542974
469.221790	19307.155445
469.593043	18640.974526
469.964238	18085.141944
470.335373	17755.495853
470.706449	18161.273449
471.077467	17706.589098
471.448425	19522.392549
471.819324	23510.119161
472.190164	25602.082061
472.560945	22112.885235
472.931667	19705.600683
473.302330	19065.442200
473.672934	18555.363130
474.043479	18915.730013
474.413965	18728.640191
474.784393	18360.366258
475.154761	19023.063740
475.525070	19042.847748
475.895321	18691.295323
476.265513	19266.369989
476.635645	19839.034984
477.005719	19633.081164
477.375734	19833.426700
477.745691	20319.308232
478.115588	20817.611166
478.485427	21341.581135
478.855207	22376.744268
479.224928	24135.232321
479.594591	26352.150301
479.964194	26437.106346
480.333739	26616.115198
480.703226	26178.994228
481.072653	25854.374167
481.442022	26413.990135
481.811333	27318.839442
482.180584	27259.336182
482.549777	26308.035163
482.918912	25943.794154
483.287988	26046.631172
483.657005	25750.024803
484.025964	25476.627906
484.394864	25407.586784
484.763706	25108.991680
485.132489	24519.443861
485.501213	24686.684140
485.869879	24624.435972
486.238487	24417.599950
486.607036	24568.181736
486.975527	24262.115642
487.343959	24582.170938
487.712333	24550.857811
488.080648	24211.875503
488.448905	24685.295302
488.817104	24414.058540
489.185244	25088.461581
489.553326	25066.048611
489.921350	26040.533896
490.289315	28300.823443
490.657222	30110.010380
491.025070	30594.833268
491.392861	30381.915095
491.760593	29549.091273
492.128267	28649.782195
492.495883	27621.412016
492.863440	26741.471050
493.230939	25874.458124
493.598380	25711.238165
493.965763	25305.538707
494.333088	24870.610638
494.700354	24783.572596
495.067563	24673.662839
495.434713	24428.234264
495.801805	24572.290277
496.168839	24392.298399
496.535815	24222.540064
496.902733	24438.099803
497.269593	24104.957671
497.636395	24284.760505
498.003139	24269.931951
498.369825	24021.307285
498.736453	24210.766449
499.103023	24091.311268
499.469535	24108.604946
499.835989	24318.939528
500.202385	24353.317677
500.568723	23845.804555
500.935003	24102.154790
501.301226	23704.264078
501.667390	24532.573546
502.033497	24781.626711
502.399546	24505.293342
502.765537	24087.527882
503.131470	24461.924296
503.497345	24604.324289
503.863163	23813.445388
504.228923	24429.282824
504.594625	24623.591579
504.960269	24147.010977
505.325856	24643.811647
505.691385	24041.134143
506.056856	24649.019159
506.422270	24610.880309
506.787625	24208.074473
507.152924	24613.153870
507.518164	24644.209898
507.883347	24449.273520
508.248472	24137.939420
508.613540	24913.977164
508.978550	24699.954977
509.343503	24686.500138
509.708398	24941.842142
510.073236	25104.603355
510.438016	25320.258876
510.802738	24988.563556
511.167403	25241.085034
511.532010	24931.215389
511.896561	25711.880912
512.261053	25689.583889
512.625488	25522.530133
512.989866	25421.946511
513.354186	25262.978765
513.718449	25367.406267
514.082655	25739.037608
514.446803	25486.357333
514.810894	25942.208711
515.174927	25426.765854
515.538904	25456.916995
515.902822	25949.445287
516.266684	25699.767020
516.630488	25612.555058
516.994235	25585.347951
517.357925	25881.296449
517.721558	26075.577477
518.085133	26162.706260
518.448651	26075.585039
518.812112	25803.569418
519.175516	25994.445147
519.538863	26167.886045
519.902152	25944.487313
520.265385	26242.016212
520.628560	26015.577664
520.991678	26045.829628
521.354739	26105.854647
521.717743	26180.312489
522.080690	25957.972399
522.443580	26299.775233
522.806413	26299.770192
523.169189	26389.328810
523.531908	26428.677537
523.894569	26035.933843
524.257174	26116.839321
524.619722	26297.574769
524.982213	25986.548180
525.344647	26055.503602
525.707025	26184.511771
526.069345	26171.336715
526.431608	26127.309798
526.793815	26309.668497
527.155964	25776.929441
527.518057	25935.998009
527.880093	25856.937594
528.242072	26091.046258
528.603995	25805.338863
528.965860	25598.555774
529.327669	25647.066797
529.689421	25647.641489
530.051117	25471.301927
530.412755	25653.436295
530.774337	25449.844256
531.135862	25317.864328
531.497331	25526.986513
531.858743	25078.568316
532.220098	25554.808641
532.581396	25243.696352
532.942638	25184.891292
533.303824	25268.254333
533.664953	25285.479955
534.026025	24946.492606
534.387040	25195.747417
534.747999	25252.475521
535.108902	25406.379427
535.469748	24901.717078
535.830537	25094.203455
536.191270	25210.243255
536.551947	25071.419960
536.912567	24728.026643
537.273131	25075.722585
537.633638	24772.996255
537.994089	24993.622353
538.354483	24533.710326
538.714821	25046.365426
539.075103	25070.096657
539.435328	24864.853640
539.795497	24418.865280
540.155609	24826.941643
540.515665	25109.147956
540.875665	24353.431103
541.235609	24640.277798
541.595496	24609.604898
541.955328	24960.509534
542.315102	24888.695777
542.674821	24425.428862
543.034483	24307.917046
543.394090	24472.861079
543.753640	24269.006900
544.113134	24896.625512
544.472571	24506.236038
544.831953	24781.104951
545.191278	24406.012858
545.550548	24332.316230
545.909761	24529.687486
546.268918	24761.147023
546.628019	24726.080757
546.987064	24424.097998
547.346053	24185.197717
547.704986	24307.992663
548.063863	24460.777433
548.422684	24479.591019
548.781449	24011.419062
549.140158	24417.141205
549.498811	23987.181194
549.857408	23729.928593
550.215949	24170.422095
550.574434	23839.145191
550.932864	24056.023191
551.291237	24216.215937
551.649555	24077.846346
552.007817	24123.904848
552.366022	24004.807588
552.724173	24043.468197
553.082267	23979.571572
553.440305	24450.705208
553.798288	23715.553742
554.156215	24229.171702
554.514086	24328.668955
554.871902	23704.435478
555.229661	23983.775894
555.587365	23845.852446
555.945014	23703.838101
556.302606	23959.066679
556.660143	23909.802003
557.017625	24158.338449
557.375050	23683.497045
557.732421	24080.989505
558.089735	23894.338263
558.446994	23958.181956
558.804197	23975.629390
559.161345	23928.446710
559.518437	23667.786289
559.875474	23871.312793
560.232455	24055.269538
560.589381	23872.482341
560.946251	23857.084137
561.303065	24181.938611
561.659825	24269.417754
562.016528	23866.402709
562.373177	23612.487352
562.729770	23962.295538
563.086307	23830.771834
563.442789	24009.568958
563.799216	23829.476257
564.155587	23849.408980
564.511904	23823.810001
564.868164	23757.843982
565.224370	23734.422781
565.580520	23652.892200
565.936615	23780.766108
566.292654	23471.876968
566.648638	23743.743875
567.004567	23581.277568
567.360441	23538.523543
567.716260	23257.267487
568.072023	23586.361572
568.427732	23345.270910
568.783385	23125.020378
569.138982	23356.674000
569.494525	23399.992635
569.850013	23141.802379
570.205445	23244.591506
570.560823	23049.108163
570.916145	22812.441113
571.271412	22972.462460
571.626625	22742.656420
571.981782	22866.542776
572.336884	22656.722391
572.691931	22789.818935
573.046923	22532.674719
573.401860	22416.713057
573.756743	22423.576588
574.111570	22321.662101
574.466342	22259.628182
574.821059	22354.749714
575.175722	22050.689999
575.530330	22046.457951
575.884882	22057.369528
576.239380	21958.636010
576.593823	21864.167307
576.948211	21838.522958
577.302544	21679.653515
577.656823	21546.330119
578.011047	21652.625368
578.365216	21526.341944
578.719330	21402.347203
579.073389	21303.838016
579.427394	21447.548709
579.781344	21216.522711
580.135239	21113.484047
580.489080	21065.260369
580.842866	20841.972542
581.196597	21027.822240
581.550273	21020.041219
581.903895	20899.716438
582.257463	21206.715146
582.610975	20745.109291
582.964434	21055.331817
583.317837	20751.839232
583.671186	20846.968325
584.024481	20811.851648
584.377721	20581.743139
584.730906	20644.760083
585.084037	20668.493835
585.437113	20574.816594
585.790135	20777.533993
586.143103	20238.594317
586.496016	20255.348592
586.848874	20505.200780
587.201679	20429.880900
587.554428	20102.833524
587.907124	20434.735531
588.259765	20218.875844
588.612352	20290.389653
588.964884	19857.828406
589.317362	20030.495487
589.669786	20081.383414
590.022155	20116.212746
590.374470	20315.474434
590.726731	20102.357135
591.078937	19870.254850
591.431090	19968.819490
591.783188	19720.593074
592.135232	19686.590492
592.487222	19788.809968
592.839157	19807.593307
593.191038	19681.435912
593.542866	19579.221477
593.894639	19292.667168
594.246358	19512.703452
594.598022	19414.370705
594.949633	19174.915897
595.301190	19136.603128
595.652692	19300.995155
596.004141	19537.064827
596.355535	18866.114977
596.706876	18875.730978
597.058162	18769.171068
597.409395	18993.812445
597.760573	19075.751360
598.111698	18845.428602
598.462768	18789.239901
598.813785	18753.011649
599.164748	18566.579698
599.515657	18608.897664
599.866511	18405.484585
600.217312	18758.713194
600.568060	18286.997305
600.918753	18597.403833
601.269392	18495.441455
601.619978	18278.918856
601.970510	18485.759919
602.320988	18431.869985
602.671412	18634.917579
603.021783	18543.148415
603.372100	18275.271582
603.722363	18416.512109
604.072572	18357.810393
604.422728	18495.869953
604.772830	18253.287110
605.122878	18209.197178
605.472872	18197.816773
605.822813	18185.251697
606.172701	18157.679106
606.522534	18350.142798
606.872314	18371.227424
607.222041	18198.162092
607.571714	18429.067103
607.921333	18253.468591
608.270899	18326.769489
608.620411	18510.413682
608.969870	18278.576058
609.319276	18280.310215
609.668627	18308.843146
610.017926	18439.323331
610.367171	18556.061330
610.716362	18597.794522
611.065500	18415.950021
611.414585	18555.189211
611.763616	18534.613741
612.112594	18470.785172
612.461518	18444.394731
612.810389	18645.680443
613.159207	18494.213934
613.507971	18407.107837
613.856682	18683.869704
614.205340	18613.822871
614.553945	18759.345859
614.902496	18501.435387
615.250994	18727.432835
615.599439	18675.526594
615.947830	18662.974121
616.296169	18711.606132
616.644454	18673.091717
616.992686	18652.601947
617.340864	18853.290282
617.688990	18619.552142
618.037063	18794.908679
618.385082	18644.558786
618.733048	18924.524306
619.080961	18797.646025
619.428821	18840.213528
619.776628	18709.473724
620.124382	18642.227252
620.472083	18687.431279
620.819731	18708.455411
621.167326	18391.911279
621.514868	18437.810984
621.862357	18211.034679
622.209793	18215.788487
622.557176	18045.299184
622.904506	17870.655971
623.251783	17777.286240
623.599007	17543.593471
623.946179	17485.330336
624.293297	17431.074917
624.640363	17184.867484
624.987376	17203.544959
625.334336	16992.643247
625.681243	16839.001480
626.028097	16852.564705
626.374899	16775.762726
626.721647	16649.968293
627.068343	16475.405739
627.414987	16407.735810
627.761577	16385.590021
628.108115	16431.111640
628.454600	16142.566077
628.801032	16241.062661
629.147412	16168.328893
629.493739	16195.039447
629.840014	15998.711710
630.186236	16101.049654
630.532405	15862.686256
630.878521	16066.064046
631.224585	15957.651512
631.570597	15785.783454
631.916556	15806.195086
632.262462	15789.158507
632.608316	15711.577670
632.954117	15647.764224
633.299866	15641.135106
633.645562	15563.110648
633.991206	15321.094934
634.336797	15190.811354
634.682336	15163.952086
635.027823	15051.012596
635.373257	14923.826805
635.718639	14823.112113
636.063968	14781.777172
636.409245	14526.178069
