Dividing Wavelength (nm)	Counts (n)	Blue Motor Position (mm): 41.400000	Red Motor Position (mm): 0.000000	
326.493990	2130.636111
326.888308	2130.636111
327.282561	2130.636111
327.676750	2097.092274
328.070874	2095.869794
328.464933	2099.222161
328.858929	2104.971597
329.252859	2115.469800
329.646726	2126.746861
330.040528	2140.378141
330.434265	2155.458753
330.827938	2174.748728
331.221547	2193.416121
331.615091	2211.917155
332.008571	2230.849209
332.401986	2252.616911
332.795338	2267.163160
333.188625	2287.799124
333.581847	2307.023564
333.975006	2326.041317
334.368100	2342.435149
334.761129	2363.532378
335.154095	2381.614997
335.546996	2400.163922
335.939833	2427.461770
336.332606	2439.852927
336.725315	2453.249793
337.117960	2464.925105
337.510540	2472.484315
337.903056	2480.716520
338.295508	2490.380412
338.687896	2496.119765
339.080220	2506.393637
339.472480	2513.378155
339.864676	2515.329082
340.256807	2521.638086
340.648875	2524.350227
341.040879	2526.669158
341.432818	2529.030938
341.824694	2526.122192
342.216506	2530.974303
342.608253	2531.170908
342.999937	2530.896165
343.391557	2527.475742
343.783113	2527.896678
344.174605	2529.194776
344.566033	2524.067922
344.957397	2525.847449
345.348697	2525.227388
345.739934	2520.811337
346.131106	2518.162210
346.522215	2519.127591
346.913260	2515.200533
347.304241	2516.007117
347.695159	2512.589215
348.086012	2511.618793
348.476802	2506.877588
348.867528	2505.004799
349.258191	2505.173677
349.648789	2505.098060
350.039324	2502.804335
350.429796	2503.520179
350.820203	2500.835765
351.210548	2498.902482
351.600828	2501.284427
351.991045	2498.582369
352.381198	2495.202275
352.771288	2496.754951
353.161314	2497.987513
353.551276	2497.324601
353.941175	2496.505413
354.331010	2499.202431
354.720782	2496.381905
355.110490	2497.599344
355.500135	2498.289982
355.889717	2495.277893
356.279235	2497.463233
356.668689	2500.918944
357.058080	2496.611278
357.447408	2493.896616
357.836672	2494.320073
358.225873	2497.432986
358.615010	2493.347131
359.004084	2502.227123
359.393095	2499.804849
359.782043	2501.133193
360.170927	2501.765858
360.559748	2504.949346
360.948505	2504.178050
361.337199	2503.444562
361.725830	2505.448420
362.114398	2508.337002
362.502903	2503.923471
362.891344	2506.764162
363.279722	2504.213338
363.668037	2505.650067
364.056289	2504.450272
364.444478	2510.408916
364.832603	2507.837927
365.220665	2510.678617
365.608665	2506.796929
365.996601	2508.989831
366.384474	2510.802126
366.772284	2511.901097
367.160031	2508.876405
367.547715	2511.737260
367.935336	2510.103926
368.322893	2514.025944
368.710388	2514.651047
369.097820	2516.813702
369.485189	2516.090296
369.872495	2514.532580
370.259738	2516.912004
370.646918	2515.092148
371.034035	2512.899246
371.421090	2516.700276
371.808081	2514.401510
372.195010	2519.339320
372.581875	2517.864782
372.968678	2520.400483
373.355418	2517.990811
373.742096	2517.983249
374.128710	2518.331089
374.515262	2518.472241
374.901751	2521.970802
375.288177	2522.646317
375.674540	2521.985926
376.060841	2522.101872
376.447079	2519.470390
376.833254	2521.249917
377.219367	2519.114988
377.605417	2516.256654
377.991404	2517.458969
378.377329	2520.423168
378.763191	2518.028620
379.148991	2523.818385
379.534727	2523.662109
379.920402	2522.900895
380.306013	2525.169414
380.691563	2525.741585
381.077049	2527.695032
381.462474	2528.405835
381.847835	2523.856194
382.233134	2529.613191
382.618371	2529.840043
383.003545	2530.823068
383.388657	2530.936494
383.773706	2536.683410
384.158693	2538.982176
384.543618	2544.436704
384.928480	2552.633620
385.313280	2557.296688
385.698017	2563.711556
386.082692	2574.923082
386.467305	2585.270050
386.851856	2599.004674
387.236344	2608.744183
387.620770	2626.484004
388.005133	2642.570326
388.389435	2658.843170
388.773674	2670.803308
389.157851	2695.789787
389.541965	2714.419371
389.926018	2724.859600
390.310008	2756.402100
390.693936	2783.833539
391.077802	2811.539720
391.461606	2831.227947
391.845348	2875.048176
392.229027	2897.975344
392.612645	2926.946855
392.996200	2978.812767
393.379694	3018.416071
393.763125	3072.411870
394.146494	3092.795776
394.529801	3147.366266
394.913047	3200.230326
395.296230	3218.534755
395.679351	3276.654218
396.062410	3325.097186
396.445408	3346.443952
396.828343	3398.997981
397.211217	3444.098664
397.594028	3434.608692
397.976778	3506.916482
398.359466	3558.394224
398.742092	3608.354579
399.124656	3593.145418
399.507158	3677.720856
399.889598	3722.564440
400.271977	3800.793066
400.654294	3809.095846
401.036549	3846.806197
401.418742	3849.387268
401.800874	3958.457673
402.182944	4001.494003
402.564952	4080.619954
402.946898	4098.949589
403.328783	4113.707567
403.710606	4066.691246
404.092367	4251.963732
404.474067	4245.944594
404.855705	4272.393008
405.237282	4224.738981
405.618797	4340.761137
406.000250	4386.207138
406.381642	4476.148885
406.762972	4457.113488
407.144240	4478.341787
407.525447	4492.666225
407.906593	4559.731216
408.287677	4608.650572
408.668700	4549.205286
409.049661	4608.121251
409.430560	4656.758304
409.811399	4591.283797
410.192176	4754.012244
410.572891	4704.298905
410.953545	4810.047189
411.334138	4690.471020
411.714669	4764.059263
412.095139	4662.613604
412.475547	4806.079801
412.855894	4790.490033
413.236180	4802.629131
413.616405	4756.603397
413.996568	4844.596737
414.376670	4788.183705
414.756711	4745.396912
415.136691	4775.386736
415.516609	4854.830279
415.896466	4893.863934
416.276262	4926.064304
416.655997	4911.535698
417.035670	5094.441363
417.415283	5183.773130
417.794834	5126.903873
418.174324	5080.570628
418.553753	4989.018233
418.933121	5175.119989
419.312428	5241.829578
419.691674	5180.866904
420.070859	5307.132685
420.449983	5215.345876
420.829045	5332.643444
421.208047	5240.435699
421.586988	5313.918078
421.965867	5325.613555
422.344686	5453.192556
422.723444	5309.774249
423.102141	5134.087517
423.480777	5429.236993
423.859352	5198.077404
424.237866	5454.916630
424.616319	5450.724911
424.994712	5560.299431
425.373044	5434.257982
425.751314	5576.947842
426.129524	5384.673193
426.507673	5570.185134
426.885762	5653.457433
427.263789	5590.803453
427.641756	5472.905988
428.019662	5593.223207
428.397508	5596.875523
428.775292	5545.720414
429.153016	5645.121886
429.530679	5572.781328
429.908282	5652.487011
430.285824	5529.608886
430.663305	5803.688859
431.040726	5538.932500
431.418086	5539.161873
431.795385	5640.970495
432.172624	5657.994472
432.549802	5650.034490
432.926920	5664.026212
433.303977	5668.333878
433.680974	5709.187389
434.057910	5725.699689
434.434786	5732.464917
434.811601	5699.531059
435.188355	5933.922028
435.565050	5808.868645
435.941683	5789.649246
436.318257	6003.820146
436.694770	5987.058310
437.071222	6024.824114
437.447614	5951.540860
437.823946	5865.828642
438.200218	6022.051479
438.576429	5883.510489
438.952580	5984.870449
439.328670	6029.943406
439.704700	5938.988387
440.080670	5928.049083
440.456580	6197.665115
440.832429	6074.960909
441.208218	5920.636067
441.583947	6082.373926
441.959616	6082.636066
442.335224	6011.066805
442.710773	6148.314739
443.086261	6175.027813
443.461689	5963.087623
443.837057	6114.264265
444.212365	6271.878461
444.587612	6165.212687
444.962800	6319.076264
445.337927	6291.516276
445.712995	5908.007976
446.088002	6487.637325
446.462949	6317.160625
446.837837	6245.702270
447.212664	6419.067550
447.587431	6560.459313
447.962139	7106.559947
448.336786	8031.064713
448.711374	7768.965042
449.085901	6840.223187
449.460369	6768.069152
449.834776	6699.108688
450.209124	7088.101762
450.583412	7243.742346
450.957640	7382.646299
451.331808	7149.871021
451.705917	6705.357198
452.079965	6629.523121
452.453954	6840.200502
452.827883	6717.317335
453.201752	6812.065822
453.575562	6612.110975
453.949311	6817.273334
454.323001	6703.368463
454.696632	6771.575274
455.070202	6914.867552
455.443713	7067.319606
455.817164	7173.564444
456.190556	7251.311639
456.563888	7330.893814
456.937160	7371.255812
457.310373	7028.026332
457.683526	7054.898203
458.056619	6943.511388
458.429653	6925.264932
458.802628	6869.534976
459.175542	6975.573126
459.548398	7329.953639
459.921194	7491.487332
460.293930	7488.422310
460.666607	8022.414093
461.039224	8330.852050
461.411782	8460.339127
461.784280	8474.479564
462.156719	8361.575362
462.529099	8237.895693
462.901419	7831.082140
463.273680	7722.954431
463.645882	7740.550578
464.018024	7602.259126
464.390106	7776.294880
464.762130	8157.486769
465.134094	8630.765416
465.505999	9648.357608
465.877845	10865.110664
466.249631	11514.073523
466.621358	11131.021448
466.993026	10501.217495
467.364634	10245.570501
467.736184	9882.713288
468.107674	9551.680880
468.479105	9576.818593
468.850477	9347.380558
469.221790	9120.700034
469.593043	8791.759705
469.964238	8653.427923
470.335373	8667.147423
470.706449	8723.416782
471.077467	8710.554278
471.448425	10016.432414
471.819324	11084.242060
472.190164	11105.218302
472.560945	9855.112971
472.931667	9071.377385
473.302330	8935.500645
473.672934	8585.790762
474.043479	8939.755379
474.413965	8882.276143
474.784393	8765.538143
475.154761	8918.171679
475.525070	9006.013784
475.895321	8835.209410
476.265513	9016.602728
476.635645	9182.983490
477.005719	9184.606742
477.375734	9299.696284
477.745691	9532.393425
478.115588	9665.063991
478.485427	9903.976875
478.855207	10442.125089
479.224928	11261.317630
479.594591	11893.135524
479.964194	11699.003210
480.333739	11638.642955
480.703226	11550.717670
481.072653	11639.275619
481.442022	11885.004143
481.811333	12068.416443
482.180584	11881.503062
482.549777	11578.295302
482.918912	11407.934549
483.287988	11428.762076
483.657005	11439.625762
484.025964	11115.837492
484.394864	11249.231464
484.763706	11222.344470
485.132489	10984.966618
485.501213	10941.539598
485.869879	11019.450631
486.238487	10862.456497
486.607036	10973.954217
486.975527	10752.685372
487.343959	10946.706781
487.712333	10997.004893
488.080648	10925.196177
488.448905	10969.560852
488.817104	10906.624566
489.185244	11174.332521
489.553326	11330.275574
489.921350	11861.832479
490.289315	12926.708174
490.657222	13266.532355
491.025070	13167.458558
491.392861	13053.614181
491.760593	12665.427691
492.128267	12317.330976
492.495883	11991.281748
492.863440	11652.816159
493.230939	11316.656897
493.598380	11251.048800
493.965763	11119.900662
494.333088	11022.583708
494.700354	10938.219998
495.067563	11009.680874
495.434713	10832.771663
495.801805	10959.007196
496.168839	10878.671368
496.535815	10825.895529
496.902733	10820.894704
497.269593	10754.845506
497.636395	10855.419046
498.003139	10841.359268
498.369825	10713.813035
498.736453	10869.211643
499.103023	10796.944182
499.469535	10821.703809
499.835989	10811.603858
500.202385	10778.957345
500.568723	10626.974118
500.935003	10853.019457
501.301226	10655.260033
501.667390	10915.081102
502.033497	11012.728252
502.399546	10863.613442
502.765537	10769.497620
503.131470	10848.351348
503.497345	11025.172340
503.863163	10643.380554
504.228923	10942.696543
504.594625	11012.007367
504.960269	10761.169634
505.325856	10977.364558
505.691385	10764.312793
506.056856	10929.309759
506.422270	10947.190731
506.787625	10843.229536
507.152924	10963.287136
507.518164	10933.783783
507.883347	10853.354694
508.248472	10776.575400
508.613540	11013.005515
508.978550	10896.683411
509.343503	10868.856242
509.708398	10990.133800
510.073236	11106.276944
510.438016	11105.044382
510.802738	11053.813656
511.167403	11109.286513
511.532010	11014.598520
511.896561	11236.210164
512.261053	11309.395115
512.625488	11174.123313
512.989866	11156.645632
513.354186	11148.587348
513.718449	11045.987264
514.082655	11239.814589
514.446803	11136.773404
514.810894	11264.430543
515.174927	11129.919955
515.538904	11149.880404
515.902822	11304.260699
516.266684	11183.378871
516.630488	11133.302570
516.994235	11189.345077
517.357925	11246.524364
517.721558	11335.271357
518.085133	11353.124604
518.448651	11364.071469
518.812112	11245.806000
519.175516	11258.706313
519.538863	11382.640559
519.902152	11295.196705
520.265385	11458.053700
520.628560	11369.316790
520.991678	11346.618995
521.354739	11404.572099
521.717743	11344.718480
522.080690	11323.797691
522.443580	11459.261057
522.806413	11414.966958
523.169189	11437.876482
523.531908	11501.820998
523.894569	11324.931951
524.257174	11333.247334
524.619722	11442.504261
524.982213	11382.902699
525.344647	11447.502565
525.707025	11403.881461
526.069345	11487.667959
526.431608	11401.615463
526.793815	11518.663493
527.155964	11308.419651
527.518057	11362.788496
527.880093	11302.778600
528.242072	11375.056143
528.603995	11276.355392
528.965860	11200.906963
529.327669	11249.803635
529.689421	11212.975486
530.051117	11172.270689
530.412755	11271.281471
530.774337	11164.295583
531.135862	11143.710032
531.497331	11171.300267
531.858743	11024.756445
532.220098	11186.527072
532.581396	11057.047556
532.942638	11038.380163
533.303824	11003.379432
533.664953	11020.070692
534.026025	10933.879565
534.387040	11035.173989
534.747999	11043.171780
535.108902	11086.011505
535.469748	10853.246309
535.830537	10960.368308
536.191270	10930.474265
536.551947	10959.007196
536.912567	10955.828748
537.273131	10888.196628
537.633638	10860.472803
537.994089	10849.800680
538.354483	10801.889554
538.714821	10949.000506
539.075103	10949.272728
539.435328	10913.599003
539.795497	10745.879814
540.155609	10899.108206
540.515665	10990.915179
540.875665	10723.827287
541.235609	10793.375045
541.595496	10789.954622
541.955328	10943.964393
542.315102	10826.926445
542.674821	10776.497262
543.034483	10774.513568
543.394090	10785.737697
543.753640	10709.495286
544.113134	10930.010479
544.472571	10785.757862
544.831953	10924.808008
545.191278	10731.565458
545.550548	10757.529921
545.909761	10897.489996
546.268918	10874.431758
546.628019	10959.977618
546.987064	10821.139200
547.346053	10742.408980
547.704986	10846.342449
548.063863	10829.789820
548.422684	10819.198356
548.781449	10737.095604
549.140158	10842.559063
549.498811	10717.256143
549.857408	10579.632643
550.215949	10802.423916
550.574434	10661.110292
550.932864	10752.788716
551.291237	10816.493777
551.649555	10763.917063
552.007817	10770.846129
552.366022	10728.487833
552.724173	10729.929603
553.082267	10716.953673
553.440305	10851.902841
553.798288	10651.685855
554.156215	10805.804010
554.514086	10780.245360
554.871902	10629.703903
555.229661	10676.589155
555.587365	10654.612244
555.945014	10538.466580
556.302606	10666.574902
556.660143	10552.803622
557.017625	10707.824144
557.375050	10607.101890
557.732421	10746.850236
558.089735	10655.307924
558.446994	10658.977884
558.804197	10696.811743
559.161345	10700.181755
559.518437	10547.598631
559.875474	10631.985025
560.232455	10664.220684
560.589381	10612.506007
560.946251	10616.380134
561.303065	10713.336646
561.659825	10656.802626
562.016528	10588.338715
562.373177	10460.905908
562.729770	10578.631974
563.086307	10493.312965
563.442789	10587.554816
563.799216	10463.245003
564.155587	10514.604279
564.511904	10465.180806
564.868164	10454.899373
565.224370	10476.714966
565.580520	10396.021217
565.936615	10406.456405
566.292654	10278.048134
566.648638	10403.111600
567.004567	10363.047029
567.360441	10343.691519
567.716260	10260.953582
568.072023	10355.974291
568.427732	10294.285691
568.783385	10210.168998
569.138982	10285.516604
569.494525	10294.782245
569.850013	10166.532770
570.205445	10252.376058
570.560823	10154.585236
570.916145	10061.573427
571.271412	10139.020673
571.626625	10087.313558
571.981782	10061.127284
572.336884	10034.789776
572.691931	10038.522751
573.046923	9981.489657
573.401860	9942.143451
573.756743	9870.284323
574.111570	9921.015975
574.466342	9900.702646
574.821059	9928.678529
575.175722	9824.435029
575.530330	9829.874434
575.884882	9823.656171
576.239380	9749.684800
576.593823	9734.437830
576.948211	9748.293441
577.302544	9629.145770
577.656823	9643.591197
578.011047	9644.488522
578.365216	9618.508936
578.719330	9538.052120
579.073389	9554.917300
579.427394	9501.508796
579.781344	9479.080702
580.135239	9420.036188
580.489080	9440.717522
580.842866	9336.718518
581.196597	9339.407973
581.550273	9389.794306
581.903895	9355.973205
582.257463	9414.886649
582.610975	9291.005335
582.964434	9324.776024
583.317837	9242.849713
583.671186	9227.217095
584.024481	9221.021517
584.377721	9143.415474
584.730906	9115.825239
585.084037	9150.687338
585.437113	9086.221063
585.790135	9109.039846
586.143103	9010.709619
586.496016	8977.566553
586.848874	9035.749030
587.201679	9024.890385
587.554428	8909.190863
587.907124	8953.830280
588.259765	8922.565044
588.612352	8927.717103
588.964884	8807.354514
589.317362	8820.539652
589.669786	8818.084610
590.022155	8858.358388
590.374470	8883.594404
590.726731	8821.119385
591.078937	8674.825100
591.431090	8785.917008
591.783188	8659.389087
592.135232	8650.985484
592.487222	8651.282912
592.839157	8707.948002
593.191038	8639.098443
593.542866	8579.706089
593.894639	8486.469948
594.246358	8535.598513
594.598022	8554.391935
594.949633	8446.362528
595.301190	8427.717821
595.652692	8452.492572
596.004141	8563.992812
596.355535	8339.570725
596.706876	8322.738313
597.058162	8256.217767
597.409395	8334.027977
597.760573	8392.767501
598.111698	8303.153430
598.462768	8289.587685
598.813785	8254.551666
599.164748	8221.441367
599.515657	8216.576654
599.866511	8122.211295
600.217312	8248.083865
600.568060	8105.578008
600.918753	8209.806384
601.269392	8183.761263
601.619978	8095.019311
601.970510	8162.570773
602.320988	8151.119792
602.671412	8205.642391
603.021783	8145.471179
603.372100	8116.159390
603.722363	8120.557797
604.072572	8095.475536
604.422728	8100.952749
604.772830	8038.409674
605.122878	8040.763893
605.472872	8040.915127
605.822813	8072.689520
606.172701	8013.778596
606.522534	8090.504958
606.872314	8085.441119
607.222041	8059.035555
607.571714	8117.981767
607.921333	8067.434117
608.270899	8078.633041
608.620411	8163.468098
608.969870	8073.939726
609.319276	8062.183756
609.668627	8080.037002
610.017926	8114.957075
610.367171	8163.226123
610.716362	8141.710478
611.065500	8133.286710
611.414585	8155.281264
611.763616	8145.710634
612.112594	8130.274621
612.461518	8142.292731
612.810389	8204.351856
613.159207	8144.057135
613.507971	8085.920028
613.856682	8215.381900
614.205340	8164.153695
614.553945	8243.166220
614.902496	8143.094275
615.250994	8200.729787
615.599439	8178.818412
615.947830	8192.578241
616.296169	8164.012543
616.644454	8175.614758
616.992686	8175.057711
617.340864	8233.777071
617.688990	8138.647977
618.037063	8233.966114
618.385082	8175.854213
618.733048	8261.473170
619.080961	8207.633647
619.428821	8222.578147
619.776628	8222.865493
620.124382	8176.179367
620.472083	8153.438722
620.819731	8183.788989
621.167326	8074.912669
621.514868	8088.576717
621.862357	7973.116649
622.209793	7993.225812
622.557176	7925.301305
622.904506	7897.111173
623.251783	7831.939136
623.599007	7780.375694
623.946179	7788.055892
624.293297	7744.959067
624.640363	7663.297416
624.987376	7647.773183
625.334336	7588.816889
625.681243	7543.938017
626.028097	7530.168105
626.374899	7508.856627
626.721647	7504.536358
627.068343	7437.665453
627.414987	7409.208139
627.761577	7359.648556
628.108115	7399.738332
628.454600	7290.252032
628.801032	7343.317738
629.147412	7302.179402
629.493739	7290.499048
629.840014	7223.847433
630.186236	7285.962010
630.532405	7167.910790
630.878521	7212.227573
631.224585	7176.301790
631.570597	7102.622806
631.916556	7135.702858
632.262462	7128.546940
632.608316	7087.693429
632.954117	7065.729122
633.299866	7055.578758
633.645562	7054.197482
633.991206	6967.633309
634.336797	6912.495689
634.682336	6867.243771
635.027823	6835.547517
635.373257	6825.107287
635.718639	6757.200424
636.063968	6773.037209
636.409245	6661.983110
636.754470	6663.490415
637.099642	6620.592717
637.444762	6565.150107
637.789829	6577.465645
638.134845	6519.131934
638.479808	6502.417988
638.824719	6512.596078
639.169577	6435.143790
639.514383	6456.815710
639.859137	6379.802003
640.203839	6395.230454
640.548489	6375.665736
