Dividing Wavelength (nm)	Counts (n)	Blue Motor Position (mm): 46.900000	Red Motor Position (mm): 0.000000	
326.493990	2132.521503
326.888308	2132.521503
327.282561	2132.521503
327.676750	2099.615371
328.070874	2095.985740
328.464933	2100.056472
328.858929	2106.075610
329.252859	2112.583739
329.646726	2126.532612
330.040528	2140.511732
330.434265	2155.594864
330.827938	2172.812925
331.221547	2192.249094
331.615091	2210.545962
332.008571	2229.808210
332.401986	2249.700603
332.795338	2264.516555
333.188625	2289.747530
333.581847	2308.412402
333.975006	2325.378405
334.368100	2343.392968
334.761129	2361.271420
335.154095	2375.709285
335.546996	2399.758109
335.939833	2426.942532
336.332606	2439.976435
336.725315	2451.979422
337.117960	2462.389405
337.510540	2468.257308
337.903056	2480.366159
338.295508	2488.248003
338.687896	2494.846874
339.080220	2505.050169
339.472480	2513.612569
339.864676	2518.197498
340.256807	2519.903929
340.648875	2524.821575
341.040879	2525.832326
341.432818	2527.896678
341.824694	2532.227030
342.216506	2530.858356
342.608253	2528.153777
342.999937	2529.688809
343.391557	2528.635208
343.783113	2528.773839
344.174605	2529.691329
344.566033	2527.417769
344.957397	2524.541791
345.348697	2521.247397
345.739934	2521.875020
346.131106	2518.293280
346.522215	2518.575585
346.913260	2516.052487
347.304241	2513.179030
347.695159	2510.038391
348.086012	2511.777589
348.476802	2508.906652
348.867528	2509.383041
349.258191	2508.304234
349.648789	2505.430776
350.039324	2505.501353
350.429796	2504.934223
350.820203	2504.939264
351.210548	2499.514982
351.600828	2501.342401
351.991045	2500.654283
352.381198	2499.368789
352.771288	2499.653614
353.161314	2497.964828
353.551276	2497.642194
353.941175	2497.997595
354.331010	2498.358037
354.720782	2497.042296
355.110490	2498.496669
355.500135	2495.305619
355.889717	2496.023983
356.279235	2499.814931
356.668689	2497.488438
357.058080	2499.900631
357.447408	2496.707060
357.836672	2496.949035
358.225873	2498.554643
358.615010	2498.713439
359.004084	2501.750734
359.393095	2501.075219
359.782043	2503.631084
360.170927	2502.522031
360.559748	2506.749038
360.948505	2505.766013
361.337199	2505.650067
361.725830	2505.929851
362.114398	2509.383041
362.502903	2506.943123
362.891344	2508.130314
363.279722	2507.984121
363.668037	2510.378669
364.056289	2508.465551
364.444478	2508.977228
364.832603	2512.634585
365.220665	2509.067969
365.608665	2511.588546
365.996601	2512.745491
366.384474	2514.537621
366.772284	2515.117353
367.160031	2515.077024
367.547715	2515.412261
367.935336	2513.710872
368.322893	2514.383866
368.710388	2516.659947
369.097820	2519.530884
369.485189	2515.250944
369.872495	2518.557941
370.259738	2518.452077
370.646918	2518.275636
371.034035	2521.496934
371.421090	2524.446009
371.808081	2526.331400
372.195010	2530.293747
372.581875	2532.965559
372.968678	2539.077958
373.355418	2543.662887
373.742096	2550.846531
374.128710	2557.306770
374.515262	2566.552246
374.901751	2578.237641
375.288177	2589.706266
375.674540	2599.690271
376.060841	2610.649739
376.447079	2625.700104
376.833254	2643.492857
377.219367	2650.822694
377.605417	2678.841427
377.991404	2690.015145
378.377329	2707.560881
378.763191	2723.700135
379.148991	2754.768766
379.534727	2777.983280
379.920402	2801.606127
380.306013	2818.302428
380.691563	2860.290198
381.077049	2885.259033
381.462474	2908.899524
381.847835	2945.026953
382.233134	2971.775316
382.618371	2982.361739
383.003545	3046.956564
383.388657	3063.713359
383.773706	3099.049327
384.158693	3124.045888
384.543618	3156.687359
384.928480	3197.866025
385.313280	3247.344950
385.698017	3256.908018
386.082692	3312.055721
386.467305	3327.088442
386.851856	3365.131509
387.236344	3394.352558
387.620770	3429.396138
388.005133	3465.059781
388.389435	3498.223012
388.773674	3518.543903
389.157851	3567.871593
389.541965	3587.068307
389.926018	3554.499933
390.310008	3635.695277
390.693936	3658.849297
391.077802	3703.929815
391.461606	3698.092159
391.845348	3756.383021
392.229027	3762.611367
392.612645	3777.351700
392.996200	3856.764997
393.379694	3901.621184
393.763125	3966.715083
394.146494	3933.478756
394.529801	3997.461080
394.913047	4044.152247
395.296230	4016.403216
395.679351	4070.278027
396.062410	4091.488682
396.445408	4076.213986
396.828343	4111.164305
397.211217	4132.717758
397.594028	4052.505439
397.976778	4119.479688
398.359466	4150.359276
398.742092	4177.528575
399.124656	4100.398921
399.507158	4177.316847
399.889598	4203.351886
400.271977	4270.379067
400.654294	4237.636773
401.036549	4248.520624
401.418742	4218.631623
401.800874	4321.589628
402.182944	4337.265096
402.564952	4401.030651
402.946898	4388.876429
403.328783	4386.418867
403.710606	4300.081546
404.092367	4495.688397
404.474067	4458.739260
404.855705	4467.372236
405.237282	4390.227459
405.618797	4504.722145
406.000250	4538.621384
406.381642	4618.379999
406.762972	4582.628136
407.144240	4589.670628
407.525447	4585.302468
407.906593	4648.611799
408.287677	4690.564281
408.668700	4624.741936
409.049661	4671.544008
409.430560	4712.969690
409.811399	4645.322446
410.192176	4800.995797
410.572891	4743.140995
410.953545	4839.910985
411.334138	4724.128284
411.714669	4791.306700
412.095139	4687.774003
412.475547	4827.187112
412.855894	4813.500380
413.236180	4819.484229
413.616405	4773.584523
413.996568	4857.431515
414.376670	4802.256086
414.756711	4756.696658
415.136691	4788.153458
415.516609	4869.767218
415.896466	4904.465480
416.276262	4937.880768
416.655997	4917.554836
417.035670	5099.563175
417.415283	5188.340415
417.794834	5132.870079
418.174324	5086.995579
418.553753	4994.906301
418.933121	5177.748951
419.312428	5250.482718
419.691674	5186.908727
420.070859	5309.244928
420.449983	5224.319130
420.829045	5337.782900
421.208047	5249.784519
421.586988	5317.237678
421.965867	5330.662270
422.344686	5462.359894
422.723444	5318.011495
423.102141	5133.774966
423.480777	5433.524494
423.859352	5204.129309
424.237866	5455.080468
424.616319	5452.517041
424.994712	5559.145007
425.373044	5436.899547
425.751314	5583.067802
426.129524	5383.632194
426.507673	5577.845167
426.885762	5660.136962
427.263789	5592.865285
427.641756	5476.424713
428.019662	5595.257312
428.397508	5605.054795
428.775292	5548.314088
429.153016	5653.349049
429.530679	5581.222740
429.908282	5659.748793
430.285824	5530.702817
430.663305	5812.435261
431.040726	5541.344693
431.418086	5539.159352
431.795385	5647.922247
432.172624	5659.181664
432.549802	5652.693699
432.926920	5667.872613
433.303977	5674.174055
433.680974	5711.902051
434.057910	5731.620524
434.434786	5736.601184
434.811601	5703.500968
435.188355	5941.362771
435.565050	5813.927443
435.941683	5796.623682
436.318257	6010.416496
436.694770	5998.438715
437.071222	6029.272932
437.447614	5958.101922
437.823946	5873.859200
438.200218	6023.891500
438.576429	5897.131687
438.952580	5991.003013
439.328670	6037.903388
439.704700	5943.563234
440.080670	5926.481285
440.456580	6201.965219
440.832429	6083.364513
441.208218	5931.333395
441.583947	6085.171767
441.959616	6091.407674
442.335224	6015.515623
442.710773	6153.774309
443.086261	6175.723492
443.461689	5973.888295
443.837057	6121.367251
444.212365	6280.851715
444.587612	6173.517988
444.962800	6325.327295
445.337927	6304.714017
445.712995	5913.049130
446.088002	6495.403222
446.462949	6320.273538
446.837837	6254.375575
447.212664	6426.122645
447.587431	6573.389873
447.962139	7109.078004
448.336786	8035.911782
448.711374	7772.786237
449.085901	6850.035793
449.460369	6771.345902
449.834776	6705.153031
450.209124	7099.651046
450.583412	7245.564723
450.957640	7388.221816
451.331808	7163.159502
451.705917	6709.138063
452.079965	6633.551003
452.453954	6845.886923
452.827883	6723.825465
453.201752	6816.083622
453.575562	6616.174145
453.949311	6819.599826
454.323001	6708.820471
454.696632	6782.935514
455.070202	6921.181597
455.443713	7077.255720
455.817164	7177.171389
456.190556	7260.184070
456.563888	7333.525296
456.937160	7380.067749
457.310373	7031.938268
457.683526	7058.258132
458.056619	6951.914991
458.429653	6935.707682
458.802628	6874.084617
459.175542	6983.301215
459.548398	7336.532345
459.921194	7494.045717
460.293930	7497.587128
460.666607	8033.847430
461.039224	8333.659973
461.411782	8466.489335
461.784280	8478.129359
462.156719	8370.213379
462.529099	8243.614882
462.901419	7836.342584
463.273680	7731.070689
463.645882	7744.137359
464.018024	7614.816640
464.390106	7785.058926
464.762130	8165.063623
465.134094	8631.156105
465.505999	9658.172734
465.877845	10883.987265
466.249631	11529.963239
466.621358	11146.646504
466.993026	10512.035811
467.364634	10257.754970
467.736184	9893.332479
468.107674	9569.027490
468.479105	9596.257282
468.850477	9357.412454
469.221790	9137.061099
469.593043	8803.535840
469.964238	8665.496445
470.335373	8678.527828
470.706449	8733.799038
471.077467	8716.394455
471.448425	10024.515905
471.819324	11098.095151
472.190164	11120.001485
472.560945	9873.581238
472.931667	9082.183098
473.302330	8946.311399
473.672934	8596.838450
474.043479	8952.890105
474.413965	8890.843584
474.784393	8781.697562
475.154761	8927.797762
475.525070	9015.092903
475.895321	8848.326492
476.265513	9023.060446
476.635645	9194.240387
477.005719	9197.857415
477.375734	9309.549219
477.745691	9541.306185
478.115588	9678.846506
478.485427	9921.963712
478.855207	10455.678231
479.224928	11274.326328
479.594591	11902.068449
479.964194	11714.855118
480.333739	11651.815490
480.703226	11569.808519
481.072653	11661.912921
481.442022	11898.312789
481.811333	12080.056468
482.180584	11886.619833
482.549777	11597.703744
482.918912	11418.238667
483.287988	11447.046341
483.657005	11459.687034
484.025964	11136.488579
484.394864	11275.669795
484.763706	11244.661658
485.132489	10994.900211
485.501213	10963.844183
485.869879	11033.853207
486.238487	10878.227747
486.607036	10989.115487
486.975527	10765.507547
487.343959	10960.481733
487.712333	11001.224339
488.080648	10931.996694
488.448905	10984.893521
488.817104	10922.625189
489.185244	11183.648573
489.553326	11341.819816
489.921350	11879.128678
490.289315	12941.667798
490.657222	13279.437708
491.025070	13188.248277
491.392861	13065.763362
491.760593	12681.239270
492.128267	12329.770023
492.495883	11999.108140
492.863440	11662.608600
493.230939	11337.612973
493.598380	11265.884916
493.965763	11130.850048
494.333088	11029.661488
494.700354	10959.634820
495.067563	11016.176401
495.434713	10843.045534
495.801805	10972.378857
496.168839	10894.372042
496.535815	10837.006232
496.902733	10837.979174
497.269593	10771.708166
497.636395	10868.004287
498.003139	10856.351660
498.369825	10722.325023
498.736453	10884.249405
499.103023	10804.722683
499.469535	10838.760553
499.835989	10826.951650
500.202385	10786.224168
500.568723	10641.061623
500.935003	10862.098575
501.301226	10670.935501
501.667390	10927.520149
502.033497	11023.352484
502.399546	10878.242870
502.765537	10794.269850
503.131470	10864.777948
503.497345	11042.256811
503.863163	10651.519497
504.228923	10955.949736
504.594625	11024.443893
504.960269	10774.324525
505.325856	10993.912145
505.691385	10781.273755
506.056856	10938.237642
506.422270	10962.215890
506.787625	10853.546258
507.152924	10963.856786
507.518164	10944.465988
507.883347	10868.253824
508.248472	10785.536051
508.613540	11028.184430
508.978550	10909.036758
509.343503	10883.561287
509.708398	11004.077632
510.073236	11118.111052
510.438016	11118.864705
510.802738	11069.942827
511.167403	11125.398040
511.532010	11013.726400
511.896561	11250.458985
512.261053	11316.364510
512.625488	11190.870026
512.989866	11172.802531
513.354186	11161.565799
513.718449	11065.599873
514.082655	11256.831003
514.446803	11150.621454
514.810894	11275.747933
515.174927	11141.126440
515.538904	11163.705768
515.902822	11319.076651
516.266684	11203.067098
516.630488	11137.365740
516.994235	11201.131295
517.357925	11261.766293
517.721558	11347.234015
518.085133	11360.172137
518.448651	11370.062881
518.812112	11261.345357
519.175516	11268.019844
519.538863	11389.821683
519.902152	11306.635083
520.265385	11466.359001
520.628560	11383.058975
520.991678	11365.732529
521.354739	11420.683627
521.717743	11357.833041
522.080690	11338.797644
522.443580	11470.308745
522.806413	11423.917527
523.169189	11460.281890
523.531908	11517.950170
523.894569	11338.215391
524.257174	11345.509941
524.619722	11460.130656
524.982213	11406.631411
525.344647	11459.883639
525.707025	11406.870865
526.069345	11500.633806
526.431608	11420.897876
526.793815	11529.358301
527.155964	11311.643469
527.518057	11374.171421
527.880093	11314.174128
528.242072	11386.030735
528.603995	11295.105964
528.965860	11216.612678
529.327669	11262.182188
529.689421	11217.570497
530.051117	11181.672441
530.412755	11289.175047
530.774337	11179.529950
531.135862	11160.260140
531.497331	11182.738645
531.858743	11038.596933
532.220098	11199.729854
532.581396	11071.308980
532.942638	11051.814838
533.303824	11011.800680
533.664953	11029.328772
534.026025	10947.999837
534.387040	11048.785105
534.747999	11048.356607
535.108902	11105.246028
535.469748	10859.225117
535.830537	10969.296191
536.191270	10944.193765
536.551947	10964.756632
536.912567	10969.888527
537.273131	10894.661908
537.633638	10880.597089
537.994089	10864.271312
538.354483	10811.291306
538.714821	10961.454676
539.075103	10962.278905
539.435328	10929.929821
539.795497	10761.454459
540.155609	10916.590928
540.515665	11004.662406
540.875665	10739.981664
541.235609	10809.035390
541.595496	10791.560230
541.955328	10951.843716
542.315102	10844.593168
542.674821	10793.097782
543.034483	10785.309199
543.394090	10798.562393
543.753640	10718.939888
544.113134	10945.633015
544.472571	10793.266660
544.831953	10946.933633
545.191278	10747.374516
545.550548	10777.848291
545.909761	10913.543550
546.268918	10887.052287
546.628019	10972.764505
546.987064	10833.285860
547.346053	10757.106464
547.704986	10855.608089
548.063863	10845.825730
548.422684	10835.892137
548.781449	10750.515155
549.140158	10847.723725
549.498811	10730.884902
549.857408	10587.136400
550.215949	10817.824641
550.574434	10664.278657
550.932864	10770.994843
551.291237	10831.518936
551.649555	10779.733683
552.007817	10790.756166
552.366022	10748.261759
552.724173	10743.190359
553.082267	10727.046063
553.440305	10866.123936
553.798288	10657.762966
554.156215	10814.613426
554.514086	10795.283122
554.871902	10644.998764
555.229661	10682.184835
555.587365	10652.275670
555.945014	10549.882273
556.302606	10679.046717
556.660143	10571.269368
557.017625	10723.050949
557.375050	10624.302307
557.732421	10756.486402
558.089735	10669.123206
558.446994	10674.423979
558.804197	10707.609895
559.161345	10712.540143
559.518437	10553.521986
559.875474	10644.734103
560.232455	10679.838178
560.589381	10629.988728
560.946251	10630.003852
561.303065	10734.683412
561.659825	10664.369398
562.016528	10597.248955
562.373177	10480.077416
562.729770	10586.660011
563.086307	10508.922898
563.442789	10600.558472
563.799216	10474.454009
564.155587	10525.795640
564.511904	10481.264608
564.868164	10477.140944
565.224370	10488.158386
565.580520	10405.067567
565.936615	10411.719370
566.292654	10288.584146
566.648638	10420.264126
567.004567	10375.639832
567.360441	10359.666936
567.716260	10272.180231
568.072023	10362.353871
568.427732	10313.840327
568.783385	10222.219876
569.138982	10295.278798
569.494525	10311.937291
569.850013	10182.498104
570.205445	10260.545248
570.560823	10159.417182
570.916145	10084.843393
571.271412	10150.738835
571.626625	10096.816133
571.981782	10071.086084
572.336884	10041.938132
572.691931	10055.332478
573.046923	9990.256223
573.401860	9954.111150
573.756743	9892.823322
574.111570	9933.039127
574.466342	9917.041025
574.821059	9945.218555
575.175722	9834.809724
575.530330	9843.619140
575.884882	9842.875570
576.239380	9762.086038
576.593823	9746.125745
576.948211	9761.143343
577.302544	9638.139189
577.656823	9653.645778
578.011047	9655.881530
578.365216	9632.944280
578.719330	9560.187827
579.073389	9564.308970
579.427394	9512.511114
579.781344	9487.113781
580.135239	9438.186863
580.489080	9443.911093
580.842866	9351.320220
581.196597	9360.525367
581.550273	9395.841170
581.903895	9364.492755
582.257463	9429.017004
582.610975	9312.097523
582.964434	9334.475204
583.317837	9262.174976
583.671186	9238.163960
584.024481	9234.299916
584.377721	9152.625662
584.730906	9126.877968
585.084037	9156.741764
585.437113	9093.913863
585.790135	9114.086041
586.143103	9013.545268
586.496016	8988.790682
586.848874	9051.563130
587.201679	9034.781129
587.554428	8920.868696
587.907124	8966.294533
588.259765	8944.317623
588.612352	8937.693547
588.964884	8817.978746
589.317362	8833.238319
589.669786	8826.667175
590.022155	8884.794199
590.374470	8899.138802
590.726731	8834.982558
591.078937	8683.851286
591.431090	8794.378584
591.783188	8669.385695
592.135232	8665.340169
592.487222	8663.477463
592.839157	8709.445224
593.191038	8647.794433
593.542866	8594.569931
593.894639	8495.959921
594.246358	8550.406903
594.598022	8561.429386
594.949633	8461.972461
595.301190	8441.238196
595.652692	8460.747461
596.004141	8574.291890
596.355535	8352.483641
596.706876	8336.989655
597.058162	8267.182277
597.409395	8351.644289
597.760573	8408.846262
598.111698	8314.080131
598.462768	8305.076630
598.813785	8269.833924
599.164748	8233.489725
599.515657	8223.982109
599.866511	8135.691340
600.217312	8258.264476
600.568060	8121.654247
600.918753	8223.823313
601.269392	8190.145884
601.619978	8108.622865
601.970510	8168.647884
602.320988	8166.694437
602.671412	8220.730565
603.021783	8156.176069
603.372100	8135.872822
603.722363	8133.737893
604.072572	8111.856765
604.422728	8119.904967
604.772830	8046.626755
605.122878	8054.480872
605.472872	8050.783186
605.822813	8079.502640
606.172701	8021.960389
606.522534	8096.529137
606.872314	8099.568952
607.222041	8064.800114
607.571714	8124.623487
607.921333	8078.501971
608.270899	8092.264321
608.620411	8179.153648
608.969870	8081.980367
609.319276	8074.552227
609.668627	8094.484949
610.017926	8123.925287
610.367171	8172.191815
610.716362	8146.620562
611.065500	8146.842373
611.414585	8167.876587
611.763616	8157.587592
612.112594	8139.086557
612.461518	8150.310687
612.810389	8214.103968
613.159207	8156.332345
613.507971	8098.928726
613.856682	8222.434475
614.205340	8178.568874
614.553945	8249.971778
614.902496	8149.917477
615.250994	8216.112868
615.599439	8193.089918
615.947830	8202.194242
616.296169	8176.867485
616.644454	8192.500103
616.992686	8187.138836
617.340864	8248.812312
617.688990	8151.886047
618.037063	8247.451201
618.385082	8189.485493
618.733048	8276.364738
619.080961	8216.511119
619.428821	8232.247081
619.776628	8239.022391
620.124382	8185.127416
620.472083	8163.095053
620.819731	8196.371709
621.167326	8087.480266
621.514868	8100.259591
621.862357	7985.742219
622.209793	8006.224427
622.557176	7936.908562
622.904506	7913.061384
623.251783	7845.237700
623.599007	7795.080740
623.946179	7800.131976
624.293297	7760.684947
624.640363	7679.953389
624.987376	7659.375399
625.334336	7607.103674
625.681243	7548.326341
626.028097	7543.660753
626.374899	7522.119903
626.721647	7514.467431
627.068343	7441.164013
627.414987	7417.838594
627.761577	7367.336315
628.108115	7408.038591
628.454600	7299.910882
628.801032	7353.218564
629.147412	7308.692572
629.493739	7300.457848
629.840014	7243.364260
630.186236	7295.741848
630.532405	7181.171545
630.878521	7230.070737
631.224585	7185.217071
631.570597	7111.165041
631.916556	7144.507233
632.262462	7141.578323
632.608316	7099.242712
632.954117	7078.498364
633.299866	7065.819862
633.645562	7060.135962
633.991206	6975.051367
634.336797	6923.709736
634.682336	6882.455453
635.027823	6843.205029
635.373257	6835.340829
635.718639	6765.581342
636.063968	6782.232273
636.409245	6676.451222
636.754470	6670.646333
637.099642	6628.736701
637.444762	6570.662608
637.789829	6585.092911
638.134845	6529.950250
638.479808	6512.449884
638.824719	6513.914339
639.169577	6441.026817
639.514383	6464.145548
639.859137	6391.716770
640.203839	6403.939048
640.548489	6390.000257
