Dividing Wavelength (nm)	Counts (n)	Blue Motor Position (mm): 23.600000	Red Motor Position (mm): 0.000000	
326.493990	2133.534775
326.888308	2133.534775
327.282561	2133.534775
327.676750	2100.099322
328.070874	2099.328025
328.464933	2103.323140
328.858929	2107.814808
329.252859	2118.791920
329.646726	2130.258025
330.040528	2143.329737
330.434265	2159.889927
330.827938	2176.369459
331.221547	2196.392922
331.615091	2214.949409
332.008571	2234.415825
332.401986	2253.446181
332.795338	2271.256577
333.188625	2292.341203
333.581847	2313.183854
333.975006	2327.825885
334.368100	2343.463544
334.761129	2364.782584
335.154095	2381.249513
335.546996	2403.501166
335.939833	2426.027562
336.332606	2438.217072
336.725315	2453.464042
337.117960	2460.693057
337.510540	2470.505663
337.903056	2481.921355
338.295508	2487.270020
338.687896	2498.340393
339.080220	2504.069665
339.472480	2512.989987
339.864676	2514.456962
340.256807	2520.365195
340.648875	2523.710000
341.040879	2525.887779
341.432818	2527.652183
341.824694	2531.644776
342.216506	2532.993285
342.608253	2531.135620
342.999937	2531.692667
343.391557	2529.608150
343.783113	2525.943231
344.174605	2526.119672
344.566033	2523.919208
344.957397	2525.479445
345.348697	2521.086080
345.739934	2520.851666
346.131106	2517.179185
346.522215	2518.953672
346.913260	2514.562827
347.304241	2512.574091
347.695159	2511.454955
348.086012	2509.738442
348.476802	2507.474964
348.867528	2507.658966
349.258191	2507.084275
349.648789	2504.573780
350.039324	2501.665034
350.429796	2502.499345
350.820203	2501.034890
351.210548	2499.877945
351.600828	2499.023470
351.991045	2499.003305
352.381198	2496.863335
352.771288	2497.561535
353.161314	2497.566576
353.551276	2496.671772
353.941175	2495.464415
354.331010	2498.166474
354.720782	2495.035917
355.110490	2494.257059
355.500135	2494.430979
355.889717	2495.782008
356.279235	2495.328304
356.668689	2498.194200
357.058080	2495.555156
357.447408	2496.475167
357.836672	2493.906699
358.225873	2495.287975
358.615010	2493.455515
359.004084	2498.287461
359.393095	2498.562204
359.782043	2499.693943
360.170927	2498.201762
360.559748	2499.847698
360.948505	2501.158398
361.337199	2501.168481
361.725830	2502.474140
362.114398	2505.594614
362.502903	2503.361383
362.891344	2504.339367
363.279722	2501.725528
363.668037	2507.008657
364.056289	2504.576301
364.444478	2504.485560
364.832603	2505.944974
365.220665	2508.147958
365.608665	2507.474964
365.996601	2508.490757
366.384474	2508.258864
366.772284	2509.476302
367.160031	2507.217865
367.547715	2510.923113
367.935336	2510.355984
368.322893	2509.191477
368.710388	2507.414470
369.097820	2514.179699
369.485189	2508.949502
369.872495	2509.065448
370.259738	2508.054697
370.646918	2508.089985
371.034035	2509.778772
371.421090	2510.570233
371.808081	2512.216169
372.195010	2512.644668
372.581875	2511.497805
372.968678	2512.397651
373.355418	2512.344719
373.742096	2514.494771
374.128710	2513.085768
374.515262	2512.818587
374.901751	2513.181550
375.288177	2513.569719
375.674540	2512.019564
376.060841	2513.511746
376.447079	2513.461334
376.833254	2514.393948
377.219367	2508.684841
377.605417	2513.662981
377.991404	2508.659635
378.377329	2510.875223
378.763191	2510.640809
379.148991	2517.211953
379.534727	2517.741274
379.920402	2514.502333
380.306013	2516.521315
380.691563	2516.783455
381.077049	2517.844618
381.462474	2513.352950
381.847835	2518.245389
382.233134	2515.482837
382.618371	2517.262364
383.003545	2517.461490
383.388657	2517.958044
383.773706	2518.600791
384.158693	2518.709176
384.543618	2519.046933
384.928480	2515.891171
385.313280	2519.251100
385.698017	2516.969978
386.082692	2519.130112
386.467305	2517.716068
386.851856	2519.591378
387.236344	2520.201357
387.620770	2521.552386
388.005133	2519.467869
388.389435	2521.822088
388.773674	2521.499454
389.157851	2519.301511
389.541965	2522.331245
389.926018	2522.106913
390.310008	2522.447191
390.693936	2523.251255
391.077802	2520.115657
391.461606	2521.365864
391.845348	2522.900895
392.229027	2525.146729
392.612645	2523.064732
392.996200	2522.588343
393.379694	2523.629342
393.763125	2522.192613
394.146494	2525.562624
394.529801	2522.288395
394.913047	2525.277799
395.296230	2523.969620
395.679351	2524.582120
396.062410	2522.618590
396.445408	2525.358458
396.828343	2524.738396
397.211217	2521.844773
397.594028	2523.606657
397.976778	2523.107582
398.359466	2524.335103
398.742092	2521.998528
399.124656	2525.242511
399.507158	2523.344517
399.889598	2526.855680
400.271977	2526.119672
400.654294	2529.640918
401.036549	2527.236287
401.418742	2526.636390
401.800874	2528.572193
402.182944	2530.346679
402.564952	2526.696884
402.946898	2527.195958
403.328783	2527.120341
403.710606	2528.995650
404.092367	2531.163346
404.474067	2528.690660
404.855705	2529.683767
405.237282	2526.878365
405.618797	2530.732328
406.000250	2529.487162
406.381642	2527.959693
406.762972	2529.116638
407.144240	2528.970444
407.525447	2532.476567
407.906593	2531.967410
408.287677	2529.633356
408.668700	2528.365506
409.049661	2532.615198
409.430560	2533.121834
409.811399	2534.387164
410.192176	2530.321473
410.572891	2533.023532
410.953545	2531.128058
411.334138	2529.081350
411.714669	2531.213758
412.095139	2534.646783
412.475547	2531.793490
412.855894	2529.905578
413.236180	2532.174098
413.616405	2534.324150
413.996568	2531.364992
414.376670	2533.910775
414.756711	2531.760723
415.136691	2534.366999
415.516609	2536.333049
415.896466	2535.322298
416.276262	2535.072761
416.655997	2532.017822
417.035670	2531.881711
417.415283	2533.585621
417.794834	2531.304498
418.174324	2533.177287
418.553753	2534.571166
418.933121	2536.328008
419.312428	2537.527803
419.691674	2537.192566
420.070859	2533.416742
420.449983	2536.441434
420.829045	2535.977648
421.208047	2535.405477
421.586988	2537.432021
421.965867	2536.728780
422.344686	2537.149716
422.723444	2539.035108
423.102141	2539.226672
423.480777	2539.251877
423.859352	2538.561239
424.237866	2539.443441
424.616319	2538.180632
424.994712	2541.018802
425.373044	2537.502597
425.751314	2539.430838
426.129524	2537.447144
426.507673	2539.229192
426.885762	2537.900848
427.263789	2539.488812
427.641756	2539.385468
428.019662	2537.001002
428.397508	2538.445293
428.775292	2539.962680
429.153016	2541.321271
429.530679	2540.628113
429.908282	2540.774306
430.285824	2539.491332
430.663305	2538.730118
431.040726	2543.604914
431.418086	2540.234903
431.795385	2546.281767
432.172624	2540.328164
432.549802	2542.959646
432.926920	2541.757331
433.303977	2541.560726
433.680974	2544.829914
434.057910	2541.134748
434.434786	2540.023174
434.811601	2541.197763
435.188355	2542.856302
435.565050	2543.650284
435.941683	2543.141128
436.318257	2542.251364
436.694770	2537.353883
437.071222	2541.031405
437.447614	2539.370345
437.823946	2542.163144
438.200218	2545.888557
438.576429	2545.444935
438.952580	2545.079451
439.328670	2545.462579
439.704700	2541.878319
440.080670	2545.641540
440.456580	2543.872095
440.832429	2544.600542
441.208218	2545.170192
441.583947	2546.354863
441.959616	2544.497198
442.335224	2544.676159
442.710773	2547.854607
443.086261	2543.824204
443.461689	2548.290666
443.837057	2545.291180
444.212365	2549.031716
444.587612	2547.905018
444.962800	2546.180943
445.337927	2546.380069
445.712995	2549.082127
446.088002	2546.276725
446.462949	2547.983156
446.837837	2549.019113
447.212664	2548.406613
447.587431	2547.468958
447.962139	2549.974412
448.336786	2553.624207
448.711374	2549.883671
449.085901	2550.057591
449.460369	2551.360729
449.834776	2552.253013
450.209124	2549.666901
450.583412	2552.386604
450.957640	2550.019782
451.331808	2552.374001
451.705917	2548.202446
452.079965	2551.320400
452.453954	2551.141439
452.827883	2552.898281
453.201752	2553.851059
453.575562	2553.591440
453.949311	2556.376677
454.323001	2554.166131
454.696632	2553.520863
455.070202	2554.430792
455.443713	2554.995401
455.817164	2554.045143
456.190556	2552.837787
456.563888	2554.957592
456.937160	2554.851728
457.310373	2560.081925
457.683526	2560.931360
458.056619	2560.371792
458.429653	2561.669889
458.802628	2562.814231
459.175542	2566.370765
459.548398	2569.823955
459.921194	2567.898234
460.293930	2575.147413
460.666607	2582.036150
461.039224	2588.861872
461.411782	2591.929415
461.784280	2594.334045
462.156719	2597.827565
462.529099	2599.619695
462.901419	2599.118100
463.273680	2605.913575
463.645882	2608.567743
464.018024	2608.756786
464.390106	2620.023765
464.762130	2633.445837
465.134094	2652.932417
465.505999	2682.539114
465.877845	2720.211657
466.249631	2739.509193
466.621358	2738.516086
466.993026	2734.248749
467.364634	2738.566498
467.736184	2738.311919
468.107674	2744.129411
468.479105	2758.685743
468.850477	2763.104314
469.221790	2771.487753
469.593043	2771.535644
469.964238	2780.944957
470.335373	2796.875004
470.706449	2813.203301
471.077467	2831.061588
471.448425	2917.325813
471.819324	2990.402379
472.190164	3010.718229
472.560945	2961.556897
472.931667	2941.931685
473.302330	2956.757718
473.672934	2955.346195
474.043479	3001.071981
474.413965	3019.731812
474.784393	3039.412477
475.154761	3076.522931
475.525070	3107.689865
475.895321	3119.034981
476.265513	3160.057371
476.635645	3207.570246
477.005719	3247.637337
477.375734	3286.635703
477.745691	3351.822863
478.115588	3404.704567
478.485427	3473.571770
478.855207	3590.377825
479.224928	3766.672016
479.594591	3901.033889
479.964194	3924.490378
480.333739	3945.630457
480.703226	3996.762880
481.072653	4069.017738
481.442022	4190.660781
481.811333	4283.528917
482.180584	4305.924243
482.549777	4322.623065
482.918912	4349.154658
483.287988	4420.910442
483.657005	4483.919823
484.025964	4484.335719
484.394864	4577.420624
484.763706	4640.563597
485.132489	4639.552846
485.501213	4704.984502
485.869879	4781.852016
486.238487	4829.148121
486.607036	4912.901851
486.975527	4938.352116
487.343959	5053.910486
487.712333	5147.983458
488.080648	5194.162948
488.448905	5292.709944
488.817104	5346.443602
489.185244	5504.882027
489.553326	5652.050952
489.921350	5929.400113
490.289315	6395.527882
490.657222	6604.723164
491.025070	6672.133473
491.392861	6716.775411
491.760593	6672.012486
492.128267	6626.876515
492.495883	6579.398928
492.863440	6530.209869
493.230939	6471.490509
493.598380	6522.822058
493.965763	6559.826648
494.333088	6581.405307
494.700354	6637.309183
495.067563	6732.609676
495.434713	6745.943528
495.801805	6877.724330
496.168839	6925.862308
496.535815	6983.021431
496.902733	7046.313118
497.269593	7105.644978
497.636395	7218.793676
498.003139	7309.665515
498.369825	7297.821324
498.736453	7476.595763
499.103023	7500.722725
499.469535	7599.751152
499.835989	7673.175557
500.202385	7727.546922
500.568723	7703.669497
500.935003	7903.591576
501.301226	7881.221456
501.667390	8095.740196
502.033497	8241.263184
502.399546	8210.862506
502.765537	8224.120741
503.131470	8338.998554
503.497345	8533.705560
503.863163	8324.994229
504.228923	8617.287891
504.594625	8729.884582
504.960269	8606.945964
505.325856	8830.468205
505.691385	8743.974608
506.056856	8921.161083
506.422270	8997.433741
506.787625	8971.829720
507.152924	9123.175241
507.518164	9164.595882
507.883347	9163.874997
508.248472	9148.149117
508.613540	9390.041323
508.978550	9358.004790
509.343503	9387.964367
509.708398	9538.871308
510.073236	9676.605713
510.438016	9736.837419
510.802738	9737.323891
511.167403	9827.590791
511.532010	9789.429257
511.896561	10022.791830
512.261053	10130.498602
512.625488	10064.167100
512.989866	10090.222304
513.354186	10119.879412
513.718449	10077.795860
514.082655	10282.033167
514.446803	10227.898736
514.810894	10372.037927
515.174927	10290.401482
515.538904	10342.015336
515.902822	10518.480926
516.266684	10440.043093
516.630488	10419.873436
516.994235	10504.584985
517.357925	10591.219735
517.721558	10697.197392
518.085133	10745.531975
518.448651	10773.409555
518.812112	10702.089831
519.175516	10739.903526
519.538863	10874.900585
519.902152	10813.121245
520.265385	10987.789664
520.628560	10923.706516
520.991678	10923.479664
521.354739	11006.817499
521.717743	10954.278594
522.080690	10960.285128
522.443580	11108.275761
522.806413	11082.255846
523.169189	11124.097423
523.531908	11192.727691
523.894569	11034.755574
524.257174	11050.683099
524.619722	11179.436689
524.982213	11131.197888
525.344647	11204.264372
525.707025	11161.966570
526.069345	11264.579257
526.431608	11192.866323
526.793815	11313.521299
527.155964	11120.072061
527.518057	11173.679691
527.880093	11134.663681
528.242072	11209.355937
528.603995	11115.686257
528.965860	11054.900024
529.327669	11106.682757
529.689421	11059.381610
530.051117	11035.826819
530.412755	11145.512244
530.774337	11040.764629
531.135862	11025.593277
531.497331	11053.478419
531.858743	10915.184446
532.220098	11075.858622
532.581396	10955.014602
532.942638	10948.428335
533.303824	10909.997098
533.664953	10927.419326
534.026025	10847.088539
534.387040	10937.942735
534.747999	10948.466143
535.108902	11009.126347
535.469748	10774.372416
535.830537	10881.822089
536.191270	10850.685403
536.551947	10879.384692
536.912567	10877.355627
537.273131	10804.221088
537.633638	10783.532192
537.994089	10779.486666
538.354483	10734.217105
538.714821	10878.063909
539.075103	10889.189736
539.435328	10854.241937
539.795497	10675.646459
540.155609	10840.794659
540.515665	10924.513101
540.875665	10666.141363
541.235609	10732.477907
541.595496	10731.331044
541.955328	10882.331246
542.315102	10766.425037
542.674821	10728.104706
543.034483	10725.992462
543.394090	10729.712834
543.753640	10658.803964
544.113134	10880.309743
544.472571	10732.525798
544.831953	10874.807324
545.191278	10689.066010
545.550548	10717.150278
545.909761	10849.561225
546.268918	10827.528862
546.628019	10904.454350
546.987064	10770.372260
547.346053	10694.570950
547.704986	10792.994438
548.063863	10786.955136
548.422684	10772.217323
548.781449	10696.912566
549.140158	10796.550972
549.498811	10674.537405
549.857408	10535.169666
550.215949	10757.640826
550.574434	10604.349420
550.932864	10705.180059
551.291237	10771.279668
551.649555	10713.026615
552.007817	10727.961033
552.366022	10692.620024
552.724173	10686.973932
553.082267	10666.847125
553.440305	10805.158742
553.798288	10609.461150
554.156215	10758.197874
554.514086	10743.848229
554.871902	10590.554303
555.229661	10626.301124
555.587365	10603.442012
555.945014	10504.285037
556.302606	10620.886925
556.660143	10518.062510
557.017625	10673.682929
557.375050	10567.470859
557.732421	10700.128822
558.089735	10615.729825
558.446994	10623.566298
558.804197	10654.743314
559.161345	10653.851030
559.518437	10508.446509
559.875474	10593.878943
560.232455	10623.518408
560.589381	10572.181817
560.946251	10568.350540
561.303065	10673.453557
561.659825	10613.604978
562.016528	10543.376664
562.373177	10427.863665
562.729770	10535.550273
563.086307	10457.747625
563.442789	10550.736749
563.799216	10421.859651
564.155587	10475.295882
564.511904	10422.794785
564.868164	10416.914279
565.224370	10432.950189
565.580520	10358.265495
565.936615	10360.206339
566.292654	10234.784952
566.648638	10366.900992
567.004567	10320.229989
567.360441	10302.066712
567.716260	10218.058404
568.072023	10310.223299
568.427732	10259.428633
568.783385	10168.183748
569.138982	10248.360779
569.494525	10253.656512
569.850013	10135.416248
570.205445	10211.971210
570.560823	10111.407753
570.916145	10028.483293
571.271412	10100.768398
571.626625	10053.671418
571.981782	10021.188743
572.336884	9998.127985
572.691931	10006.161063
573.046923	9948.510428
573.401860	9902.623325
573.756743	9835.457512
574.111570	9883.063648
574.466342	9859.755873
574.821059	9893.818950
575.175722	9790.588722
575.530330	9794.097365
575.884882	9787.541345
576.239380	9720.751097
576.593823	9697.140853
576.948211	9709.723573
577.302544	9596.854659
577.656823	9613.435014
578.011047	9612.252864
578.365216	9582.131969
578.719330	9506.779322
579.073389	9517.965643
579.427394	9466.702149
579.781344	9441.319940
580.135239	9392.519050
580.489080	9399.243949
580.842866	9304.654259
581.196597	9300.056727
581.550273	9341.661369
581.903895	9320.445673
582.257463	9385.814315
582.610975	9263.210933
582.964434	9285.598697
583.317837	9208.325371
583.671186	9188.364922
584.024481	9185.579684
584.377721	9109.314588
584.730906	9086.737781
585.084037	9113.629816
585.437113	9052.226042
585.790135	9074.707067
586.143103	8971.759144
586.496016	8945.598076
586.848874	9005.302982
587.201679	8992.942072
587.554428	8876.206593
587.907124	8923.570754
588.259765	8898.349862
588.612352	8897.389522
588.964884	8777.397457
589.317362	8787.605794
589.669786	8791.149725
590.022155	8836.923402
590.374470	8850.900001
590.726731	8793.403121
591.078937	8646.037591
591.431090	8756.116227
591.783188	8625.351216
592.135232	8625.941031
592.487222	8621.464487
592.839157	8675.177981
593.191038	8607.354297
593.542866	8554.018889
593.894639	8452.036347
594.246358	8507.151282
594.598022	8523.560238
594.949633	8420.133405
595.301190	8398.940394
595.652692	8429.227647
596.004141	8534.668420
596.355535	8311.194070
596.706876	8293.328221
597.058162	8229.532419
597.409395	8300.060682
597.760573	8359.241308
598.111698	8273.982793
598.462768	8261.614322
598.813785	8224.423210
599.164748	8199.008233
599.515657	8184.061212
599.866511	8094.447140
600.217312	8215.707055
600.568060	8078.635561
600.918753	8184.419133
601.269392	8154.358733
601.619978	8068.134838
601.970510	8134.073130
602.320988	8127.978375
602.671412	8177.439656
603.021783	8115.947661
603.372100	8091.064526
603.722363	8092.957479
604.072572	8072.278666
604.422728	8077.108092
604.772830	8012.258688
605.122878	8020.180862
605.472872	8012.364553
605.822813	8039.942185
606.172701	7986.032086
606.522534	8059.789207
606.872314	8056.209988
607.222041	8032.398098
607.571714	8084.155625
607.921333	8044.564923
608.270899	8042.787916
608.620411	8141.173595
608.969870	8048.270171
609.319276	8041.754480
609.668627	8057.437509
610.017926	8090.673837
610.367171	8137.443141
610.716362	8112.570088
611.065500	8106.803008
611.414585	8134.383161
611.763616	8121.170297
612.112594	8101.882842
612.461518	8119.237014
612.810389	8175.715581
613.159207	8120.164587
613.507971	8068.822955
613.856682	8186.158332
614.205340	8135.991289
614.553945	8219.137560
614.902496	8115.277188
615.250994	8168.481526
615.599439	8150.537538
615.947830	8167.697626
616.296169	8140.674521
616.644454	8149.282291
616.992686	8150.542580
617.340864	8203.930919
617.688990	8107.297041
618.037063	8198.385650
618.385082	8153.549628
618.733048	8236.733708
619.080961	8176.257505
619.428821	8196.049075
619.776628	8191.552366
620.124382	8148.442939
620.472083	8126.546687
620.819731	8160.582037
621.167326	8048.834780
621.514868	8061.367089
621.862357	7947.986498
622.209793	7961.315308
622.557176	7899.167964
622.904506	7872.175105
623.251783	7811.182185
623.599007	7762.784587
623.946179	7765.710977
624.293297	7722.946869
624.640363	7635.034187
624.987376	7620.445088
625.334336	7571.835762
625.681243	7515.142946
626.028097	7506.721698
626.374899	7488.175293
626.721647	7476.966288
627.068343	7411.244765
627.414987	7382.227884
627.761577	7341.737336
628.108115	7377.496761
628.454600	7271.831656
628.801032	7318.111968
629.147412	7278.591843
629.493739	7274.022037
629.840014	7199.715429
630.186236	7264.539627
630.532405	7145.480176
630.878521	7199.203752
631.224585	7157.389902
631.570597	7081.500372
631.916556	7112.689990
632.262462	7104.409895
632.608316	7066.860861
632.954117	7048.069960
633.299866	7036.329112
633.645562	7024.731938
633.991206	6944.978364
634.336797	6890.148254
634.682336	6846.817016
635.027823	6814.432644
635.373257	6802.028885
635.718639	6741.351036
636.063968	6748.764053
636.409245	6645.901829
636.754470	6639.575181
637.099642	6605.431446
637.444762	6549.356172
637.789829	6557.268262
638.134845	6501.659294
638.479808	6486.959290
638.824719	6488.363251
639.169577	6417.940852
639.514383	6441.362053
639.859137	6364.691144
640.203839	6377.684718
640.548489	6359.307192
640.893086	6334.013203
641.237632	6308.066384
641.582125	6331.180074
641.926566	6302.241331
