Dividing Wavelength (nm)	Counts (n)	Blue Motor Position (mm): 10.300000	Red Motor Position (mm): 0.000000	
326.493990	2162.160967
326.888308	2162.160967
327.282561	2162.160967
327.676750	2119.487600
328.070874	2116.193206
328.464933	2115.898298
328.858929	2119.240583
329.252859	2126.704011
329.646726	2135.246247
330.040528	2147.602115
330.434265	2159.519402
330.827938	2177.097906
331.221547	2195.939218
331.615091	2212.920345
332.008571	2230.151009
332.401986	2250.784452
332.795338	2267.531165
333.188625	2286.012035
333.581847	2302.012657
333.975006	2322.204999
334.368100	2341.873060
334.761129	2356.326048
335.154095	2373.551671
335.546996	2393.053375
335.939833	2417.540780
336.332606	2430.481422
336.725315	2448.097734
337.117960	2457.741461
337.510540	2470.961887
337.903056	2479.224338
338.295508	2489.145329
338.687896	2498.405928
339.080220	2507.205263
339.472480	2511.865809
339.864676	2520.014834
340.256807	2522.482479
340.648875	2527.947090
341.040879	2530.046731
341.432818	2531.717873
341.824694	2535.765920
342.216506	2536.345652
342.608253	2536.998482
342.999937	2536.290200
343.391557	2536.804397
343.783113	2536.292720
344.174605	2534.785415
344.566033	2536.355735
344.957397	2535.690302
345.348697	2533.184849
345.739934	2531.700229
346.131106	2529.041020
346.522215	2530.051772
346.913260	2526.845598
347.304241	2524.171266
347.695159	2522.963909
348.086012	2519.125071
348.476802	2519.661954
348.867528	2515.790347
349.258191	2514.119205
349.648789	2509.652743
350.039324	2507.268277
350.429796	2512.682476
350.820203	2509.599811
351.210548	2512.624503
351.600828	2508.841117
351.991045	2508.251302
352.381198	2505.292145
352.771288	2503.878101
353.161314	2504.178050
353.551276	2505.340036
353.941175	2504.437669
354.331010	2504.054541
354.720782	2503.764675
355.110490	2502.890035
355.500135	2501.672596
355.889717	2503.210148
356.279235	2502.448934
356.668689	2501.629746
357.058080	2502.486743
357.447408	2507.454800
357.836672	2501.002123
358.225873	2505.274501
358.615010	2505.082937
359.004084	2507.122083
359.393095	2505.985303
359.782043	2503.530261
360.170927	2504.808194
360.559748	2504.911537
360.948505	2509.751045
361.337199	2505.224089
361.725830	2509.748525
362.114398	2510.260202
362.502903	2511.069307
362.891344	2511.727177
363.279722	2509.927486
363.668037	2509.158710
364.056289	2511.157527
364.444478	2512.259019
364.832603	2511.026457
365.220665	2513.027795
365.608665	2514.918228
365.996601	2511.936385
366.384474	2512.932013
366.772284	2514.900584
367.160031	2514.555265
367.547715	2515.167765
367.935336	2516.160872
368.322893	2511.528052
368.710388	2512.299348
369.097820	2511.386900
369.485189	2511.684328
369.872495	2514.802281
370.259738	2516.334792
370.646918	2515.621469
371.034035	2515.205574
371.421090	2520.997859
371.808081	2518.389062
372.195010	2521.292767
372.581875	2518.958713
372.968678	2520.655061
373.355418	2518.406706
373.742096	2518.736902
374.128710	2519.414937
374.515262	2521.249917
374.901751	2519.815709
375.288177	2521.007942
375.674540	2518.270595
376.060841	2519.903929
376.447079	2518.918383
376.833254	2521.421316
377.219367	2521.086080
377.605417	2520.687828
377.991404	2519.165400
378.377329	2520.690349
378.763191	2521.643127
379.148991	2522.537932
379.534727	2520.143384
379.920402	2522.573220
380.306013	2522.789990
380.691563	2525.897861
381.077049	2523.296626
381.462474	2524.274609
381.847835	2522.071625
382.233134	2525.784435
382.618371	2524.211595
383.003545	2522.235463
383.388657	2522.633714
383.773706	2526.817872
384.158693	2524.473735
384.543618	2527.364837
384.928480	2525.343334
385.313280	2524.821575
385.698017	2526.507841
386.082692	2525.789476
386.467305	2524.612367
386.851856	2526.795186
387.236344	2526.613705
387.620770	2525.033303
388.005133	2520.735719
388.389435	2525.071112
388.773674	2520.728158
389.157851	2526.764939
389.541965	2526.170083
389.926018	2529.724097
390.310008	2526.152439
390.693936	2528.100845
391.077802	2528.988088
391.461606	2524.662778
391.845348	2528.718387
392.229027	2530.039169
392.612645	2527.609333
392.996200	2528.327697
393.379694	2530.530681
393.763125	2530.099663
394.146494	2528.804086
394.529801	2529.209899
394.913047	2531.160826
395.296230	2530.412214
395.679351	2530.691998
396.062410	2530.142512
396.445408	2530.628984
396.828343	2530.800383
397.211217	2530.765095
397.594028	2531.974972
397.976778	2532.191742
398.359466	2532.027904
398.742092	2532.219468
399.124656	2532.065713
399.507158	2531.339787
399.889598	2536.146527
400.271977	2533.615867
400.654294	2531.478418
401.036549	2531.629653
401.418742	2534.830786
401.800874	2534.498069
402.182944	2534.112421
402.564952	2532.078316
402.946898	2533.956145
403.328783	2531.856505
403.710606	2535.624767
404.092367	2535.070240
404.474067	2535.942360
404.855705	2536.522093
405.237282	2533.686444
405.618797	2535.813811
406.000250	2536.759027
406.381642	2532.847092
406.762972	2534.578728
407.144240	2530.455064
407.525447	2534.460261
407.906593	2533.217616
408.287677	2536.653163
408.668700	2536.524613
409.049661	2539.186343
409.430560	2537.621064
409.811399	2536.023018
410.192176	2535.680220
410.572891	2539.796322
410.953545	2536.920344
411.334138	2537.936136
411.714669	2538.127700
412.095139	2536.927906
412.475547	2535.004705
412.855894	2537.109387
413.236180	2535.413039
413.616405	2539.065355
413.996568	2536.569984
414.376670	2539.440921
414.756711	2539.982845
415.136691	2539.244316
415.516609	2539.508976
415.896466	2541.134748
416.276262	2536.446475
416.655997	2539.514018
417.035670	2538.954449
417.415283	2541.467465
417.794834	2536.764068
418.174324	2542.780685
418.553753	2538.994779
418.933121	2540.492001
419.312428	2542.833617
419.691674	2542.185829
420.070859	2540.827238
420.449983	2543.022661
420.829045	2541.832948
421.208047	2543.236910
421.586988	2541.969059
421.965867	2541.333874
422.344686	2540.887732
422.723444	2542.717671
423.102141	2540.978473
423.480777	2541.832948
423.859352	2540.088709
424.237866	2543.365459
424.616319	2541.996786
424.994712	2541.341436
425.373044	2541.943854
425.751314	2539.592155
426.129524	2538.586445
426.507673	2539.783719
426.885762	2535.365148
427.263789	2542.664739
427.641756	2542.942002
428.019662	2544.663556
428.397508	2540.910417
428.775292	2544.504760
429.153016	2543.665408
429.530679	2542.672300
429.908282	2543.105840
430.285824	2541.376724
430.663305	2542.853782
431.040726	2544.146838
431.418086	2544.025850
431.795385	2546.148176
432.172624	2543.859492
432.549802	2543.103319
432.926920	2544.323278
433.303977	2544.771941
433.680974	2546.059956
434.057910	2541.880839
434.434786	2544.958464
434.811601	2545.946530
435.188355	2545.084492
435.565050	2543.488967
435.941683	2544.887888
436.318257	2544.035933
436.694770	2547.506767
437.071222	2547.416026
437.447614	2547.713454
437.823946	2547.312682
438.200218	2543.320089
438.576429	2544.981149
438.952580	2545.555840
439.328670	2548.527601
439.704700	2543.436035
440.080670	2548.578012
440.456580	2547.542055
440.832429	2545.913762
441.208218	2547.204298
441.583947	2547.789072
441.959616	2545.714637
442.335224	2546.017106
442.710773	2545.187836
443.086261	2550.206305
443.461689	2547.751263
443.837057	2545.941489
444.212365	2548.484751
444.587612	2543.267157
444.962800	2546.352343
445.337927	2547.378218
445.712995	2542.029553
446.088002	2546.274205
446.462949	2547.363094
446.837837	2547.179092
447.212664	2545.381921
447.587431	2548.056253
447.962139	2550.095399
448.336786	2549.162786
448.711374	2547.968032
449.085901	2548.976263
449.460369	2544.973587
449.834776	2549.276212
450.209124	2549.903836
450.583412	2548.870399
450.957640	2550.476007
451.331808	2545.328988
451.705917	2551.025492
452.079965	2548.169679
452.453954	2547.519370
452.827883	2549.742519
453.201752	2548.199926
453.575562	2550.644885
453.949311	2549.505584
454.323001	2549.787889
454.696632	2552.058929
455.070202	2549.238403
455.443713	2550.506253
455.817164	2550.110523
456.190556	2552.137067
456.563888	2553.107489
456.937160	2550.140770
457.310373	2548.862837
457.683526	2551.917777
458.056619	2552.903322
458.429653	2551.080945
458.802628	2549.467776
459.175542	2548.630944
459.548398	2550.130688
459.921194	2549.187992
460.293930	2551.844680
460.666607	2552.822664
461.039224	2550.685214
461.411782	2548.842673
461.784280	2551.025492
462.156719	2550.596994
462.529099	2552.910884
462.901419	2551.305276
463.273680	2553.384752
463.645882	2547.458876
464.018024	2549.243444
464.390106	2547.244627
464.762130	2550.702858
465.134094	2553.122612
465.505999	2551.779145
465.877845	2554.100596
466.249631	2552.779814
466.621358	2551.625390
466.993026	2552.905843
467.364634	2559.618139
467.736184	2552.293342
468.107674	2552.016079
468.479105	2553.714948
468.850477	2551.146480
469.221790	2552.371480
469.593043	2555.096224
469.964238	2553.417520
470.335373	2553.659495
470.706449	2552.603373
471.077467	2551.002807
471.448425	2552.144628
471.819324	2554.178734
472.190164	2554.594629
472.560945	2553.969526
472.931667	2552.358877
473.302330	2553.604043
473.672934	2553.467931
474.043479	2552.542880
474.413965	2553.072201
474.784393	2555.423899
475.154761	2554.297201
475.525070	2550.962478
475.895321	2553.866182
476.265513	2555.348282
476.635645	2554.917263
477.005719	2555.706204
477.375734	2555.842315
477.745691	2553.934238
478.115588	2557.833571
478.485427	2556.301060
478.855207	2558.625032
479.224928	2556.167469
479.594591	2557.904147
479.964194	2556.290977
480.333739	2557.798283
480.703226	2556.908519
481.072653	2559.091338
481.442022	2555.328117
481.811333	2553.462890
482.180584	2551.834597
482.549777	2557.057233
482.918912	2551.201933
483.287988	2557.044630
483.657005	2557.561348
484.025964	2558.839281
484.394864	2558.448591
484.763706	2559.129147
485.132489	2558.718293
485.501213	2558.123437
485.869879	2559.983623
486.238487	2558.481359
486.607036	2557.836091
486.975527	2558.151163
487.343959	2558.478838
487.712333	2557.916750
488.080648	2556.827860
488.448905	2560.434806
488.817104	2558.105793
489.185244	2559.482028
489.553326	2558.128478
489.921350	2561.785835
490.289315	2557.611760
490.657222	2563.809858
491.025070	2560.520506
491.392861	2563.106617
491.760593	2564.334138
492.128267	2558.556976
492.495883	2561.352296
492.863440	2563.446895
493.230939	2560.487738
493.598380	2561.337172
493.965763	2559.093859
494.333088	2563.497307
494.700354	2560.422203
495.067563	2561.301884
495.434713	2560.661658
495.801805	2559.751730
496.168839	2562.819272
496.535815	2560.185269
496.902733	2561.236349
497.269593	2562.743654
497.636395	2560.898592
498.003139	2561.344734
498.369825	2562.589899
498.736453	2558.819116
499.103023	2562.156360
499.469535	2564.626525
499.835989	2562.806669
500.202385	2560.081925
500.568723	2556.056564
500.935003	2559.247614
501.301226	2556.515309
501.667390	2560.704508
502.033497	2563.958573
502.399546	2562.005125
502.765537	2561.135526
503.131470	2561.833726
503.497345	2565.420507
503.863163	2564.364385
504.228923	2563.588048
504.594625	2564.709704
504.960269	2560.248283
505.325856	2561.944632
505.691385	2560.560835
506.056856	2563.146947
506.422270	2562.405897
506.787625	2562.355486
507.152924	2563.890517
507.518164	2562.358006
507.883347	2563.411607
508.248472	2562.748696
508.613540	2560.815413
508.978550	2563.240208
509.343503	2561.543860
509.708398	2563.522513
510.073236	2562.814231
510.438016	2562.640311
510.802738	2561.306926
511.167403	2560.797769
511.532010	2564.175342
511.896561	2561.957234
512.261053	2564.182904
512.625488	2566.390929
512.989866	2563.056206
513.354186	2563.129303
513.718449	2564.349262
514.082655	2563.164591
514.446803	2563.121741
514.810894	2567.197514
515.174927	2566.519479
515.538904	2569.040056
515.902822	2563.252811
516.266684	2563.434293
516.630488	2568.346897
516.994235	2566.799263
517.357925	2566.582493
517.721558	2566.068295
518.085133	2568.546022
518.448651	2564.467729
518.812112	2562.370609
519.175516	2565.866649
519.538863	2561.755588
519.902152	2568.074675
520.265385	2568.046948
520.628560	2568.929150
520.991678	2568.029304
521.354739	2567.968810
521.717743	2569.702967
522.080690	2571.520303
522.443580	2571.918554
522.806413	2571.704305
523.169189	2572.024419
523.531908	2575.157496
523.894569	2572.498287
524.257174	2574.890315
524.619722	2570.325550
524.982213	2574.182032
525.344647	2574.560119
525.707025	2575.162537
526.069345	2575.633885
526.431608	2578.063721
526.793815	2576.006930
527.155964	2577.231931
527.518057	2577.461303
527.880093	2580.100347
528.242072	2579.697055
528.603995	2579.049267
528.965860	2580.128073
529.327669	2580.211252
529.689421	2580.191088
530.051117	2581.491706
530.412755	2584.143352
530.774337	2582.482292
531.135862	2584.554207
531.497331	2585.605287
531.858743	2586.558065
532.220098	2586.290884
532.581396	2587.667119
532.942638	2588.839187
533.303824	2586.482448
533.664953	2589.794486
534.026025	2590.356575
534.387040	2588.874475
534.747999	2589.759198
535.108902	2592.085690
535.469748	2588.690473
535.830537	2594.061823
536.191270	2595.478387
536.551947	2589.771801
536.912567	2592.249528
537.273131	2593.411514
537.633638	2593.000660
537.994089	2596.161463
538.354483	2599.849067
538.714821	2598.273707
539.075103	2600.481732
539.435328	2601.628595
539.795497	2600.869901
540.155609	2605.215376
540.515665	2601.220261
540.875665	2600.592637
541.235609	2603.645056
541.595496	2601.300920
541.955328	2600.600199
542.315102	2604.741507
542.674821	2605.303596
543.034483	2605.006168
543.394090	2604.635643
543.753640	2606.304265
544.113134	2608.671087
544.472571	2608.608072
544.831953	2609.631426
545.191278	2610.485902
545.550548	2607.448607
545.909761	2610.112857
546.268918	2614.039915
546.628019	2610.768207
546.987064	2612.593104
547.346053	2610.506067
547.704986	2610.213680
548.063863	2613.404730
548.422684	2611.111005
548.781449	2614.932200
549.140158	2614.546551
549.498811	2615.895060
549.857408	2612.046139
550.215949	2615.459000
550.574434	2614.710389
550.932864	2618.143415
551.291237	2615.239710
551.649555	2617.540997
552.007817	2619.126440
552.366022	2616.913373
552.724173	2616.535287
553.082267	2617.367077
553.440305	2619.438991
553.798288	2617.500667
554.156215	2618.652571
554.514086	2617.359515
554.871902	2614.160903
555.229661	2616.747015
555.587365	2615.769031
555.945014	2621.762963
556.302606	2618.879423
556.660143	2618.622324
557.017625	2622.229270
557.375050	2619.822119
557.732421	2620.202726
558.089735	2621.389918
558.446994	2618.168620
558.804197	2620.414454
559.161345	2623.610546
559.518437	2621.084928
559.875474	2620.628703
560.232455	2621.329424
560.589381	2620.575771
560.946251	2620.512757
561.303065	2622.917387
561.659825	2624.860752
562.016528	2622.468725
562.373177	2620.152314
562.729770	2619.643158
563.086307	2622.912346
563.442789	2623.665999
563.799216	2621.213477
564.155587	2622.519136
564.511904	2624.913684
564.868164	2621.846142
565.224370	2622.776235
565.580520	2620.177520
565.936615	2622.259517
566.292654	2622.821605
566.648638	2625.876545
567.004567	2619.849845
567.360441	2619.260030
567.716260	2621.689866
568.072023	2623.958386
568.427732	2622.625000
568.783385	2619.449073
569.138982	2623.003087
569.494525	2622.297325
569.850013	2625.105248
570.205445	2616.825153
570.560823	2619.222222
570.916145	2620.301028
571.271412	2620.603498
571.626625	2622.864455
571.981782	2621.102572
572.336884	2617.480503
572.691931	2614.526387
573.046923	2615.990842
573.401860	2615.499329
573.756743	2624.752367
574.111570	2621.379835
574.466342	2620.464866
574.821059	2619.328086
575.175722	2620.374125
575.530330	2622.027624
575.884882	2622.251955
576.239380	2623.056019
576.593823	2623.514764
576.948211	2621.664661
577.302544	2622.070473
577.656823	2618.965123
578.011047	2618.105606
578.365216	2619.832201
578.719330	2621.480658
579.073389	2620.676594
579.427394	2623.746657
579.781344	2621.858745
580.135239	2622.078035
580.489080	2620.860597
580.842866	2620.507716
581.196597	2625.281688
581.550273	2621.432767
581.903895	2623.023252
582.257463	2623.658437
582.610975	2624.107100
582.964434	2622.526698
583.317837	2623.048457
583.671186	2626.431072
584.024481	2628.387039
584.377721	2625.246400
584.730906	2623.756739
585.084037	2626.327728
585.437113	2627.446864
585.790135	2629.395270
586.143103	2628.210599
586.496016	2625.926956
586.848874	2629.042389
587.201679	2629.634725
587.554428	2627.580455
587.907124	2631.729324
588.259765	2630.274951
588.612352	2633.806280
588.964884	2628.243366
589.317362	2631.207565
589.669786	2632.072123
590.022155	2629.874180
590.374470	2633.193779
590.726731	2634.691002
591.078937	2629.319653
591.431090	2637.385499
591.783188	2637.534213
592.135232	2637.153606
592.487222	2638.870119
592.839157	2640.533699
593.191038	2639.475057
593.542866	2641.310037
593.894639	2639.399440
594.246358	2645.378248
594.598022	2642.804739
594.949633	2643.835655
595.301190	2642.693834
595.652692	2643.762558
596.004141	2646.474699
596.355535	2647.911428
596.706876	2646.638537
597.058162	2648.012251
597.409395	2650.381593
597.760573	2652.607263
598.111698	2650.653816
598.462768	2651.044505
598.813785	2653.532315
599.164748	2653.464259
599.515657	2654.671615
599.866511	2656.557007
600.217312	2657.537511
600.568060	2656.647748
600.918753	2662.992040
601.269392	2662.102276
601.619978	2662.061947
601.970510	2666.664520
602.320988	2667.897082
602.671412	2668.529747
603.021783	2670.326919
603.372100	2671.730880
603.722363	2670.820952
604.072572	2677.044256
604.422728	2677.258505
604.772830	2676.076355
605.122878	2676.056190
605.472872	2679.721109
605.822813	2683.098682
606.172701	2685.087417
606.522534	2688.207891
606.872314	2692.003880
607.222041	2692.971782
607.571714	2696.215764
607.921333	2696.508151
608.270899	2698.943028
608.620411	2703.391847
608.969870	2704.480736
609.319276	2714.595811
609.668627	2718.999259
610.017926	2725.290619
610.367171	2730.203223
610.716362	2733.522823
611.065500	2735.327556
611.414585	2737.364182
611.763616	2740.217476
612.112594	2741.079513
612.461518	2743.337950
612.810389	2749.541090
613.159207	2751.222314
613.507971	2754.002511
613.856682	2762.741351
614.205340	2765.695467
614.553945	2776.473454
614.902496	2773.592435
615.250994	2782.164917
615.599439	2784.332613
615.947830	2790.341668
616.296169	2796.254942
616.644454	2802.092598
616.992686	2806.128042
617.340864	2814.738332
617.688990	2821.402738
618.037063	2836.097701
618.385082	2841.199349
618.733048	2852.451204
619.080961	2855.443129
619.428821	2869.303782
619.776628	2878.398023
620.124382	2881.100082
620.472083	2891.336144
620.819731	2901.864594
621.167326	2897.022566
621.514868	2902.784605
621.862357	2905.141344
622.209793	2909.575039
622.557176	2908.889442
622.904506	2907.873650
623.251783	2912.410688
623.599007	2915.190884
623.946179	2922.503078
624.293297	2923.062646
624.640363	2929.870724
624.987376	2930.606733
625.334336	2931.403235
625.681243	2936.673762
626.028097	2941.230965
626.374899	2959.424489
626.721647	2958.161680
627.068343	2962.665951
627.414987	2973.459061
627.761577	2983.468272
628.108115	2995.642659
628.454600	2995.040241
628.801032	3004.883094
629.147412	3013.642098
629.493739	3024.157945
629.840014	3035.112373
630.186236	3045.235010
630.532405	3051.365053
630.878521	3069.939184
631.224585	3078.587283
631.570597	3091.538008
631.916556	3099.019080
632.262462	3111.717747
632.608316	3130.412866
632.954117	3138.524082
633.299866	3152.619148
633.645562	3161.068122
633.991206	3161.133657
634.336797	3159.560817
634.682336	3174.979186
635.027823	3177.020853
635.373257	3182.611493
635.718639	3182.326668
636.063968	3189.437215
636.409245	3188.837318
636.754470	3200.610933
637.099642	3206.597303
637.444762	3202.587065
637.789829	3221.312431
638.134845	3222.608008
638.479808	3233.449009
638.824719	3242.540730
639.169577	3246.079620
639.514383	3258.755601
639.859137	3263.234667
640.203839	3283.714354
640.548489	3283.185033
640.893086	3302.880821
641.237632	3291.334058
641.582125	3328.835202
641.926566	3332.232939
642.270955	3340.860874
642.615292	3352.163141
642.959576	3367.286603
643.303809	3390.233935
643.647990	3395.201992
643.992118	3424.506219
644.336195	3409.836462
