Dividing Wavelength (nm)	Counts (n)	Blue Motor Position (mm): 5.300000	Red Motor Position (mm): 0.000000	
326.493990	2142.661784
326.888308	2142.661784
327.282561	2142.661784
327.676750	2109.614500
328.070874	2107.892946
328.464933	2111.361260
328.858929	2116.379728
329.252859	2125.116048
329.646726	2140.171454
330.040528	2151.476241
330.434265	2168.994251
330.827938	2184.430264
331.221547	2204.597400
331.615091	2222.117930
332.008571	2243.918400
332.401986	2265.116452
332.795338	2279.118257
333.188625	2298.743469
333.581847	2319.540749
333.975006	2337.434324
334.368100	2356.129443
334.761129	2375.535365
335.154095	2389.985833
335.546996	2406.200704
335.939833	2421.553538
336.332606	2435.026022
336.725315	2445.831735
337.117960	2458.535443
337.510540	2465.043572
337.903056	2480.280460
338.295508	2485.792962
338.687896	2491.297902
339.080220	2501.344921
339.472480	2508.188288
339.864676	2511.580984
340.256807	2517.385873
340.648875	2519.651871
341.040879	2523.500792
341.432818	2523.057171
341.824694	2526.316277
342.216506	2526.888448
342.608253	2525.860052
342.999937	2527.193438
343.391557	2525.842408
343.783113	2523.725124
344.174605	2524.042716
344.566033	2522.933663
344.957397	2517.605163
345.348697	2518.699093
345.739934	2516.528877
346.131106	2517.877385
346.522215	2514.958557
346.913260	2511.044101
347.304241	2510.303052
347.695159	2505.420694
348.086012	2509.347753
348.476802	2502.597648
348.867528	2506.270128
349.258191	2497.680002
349.648789	2502.098574
350.039324	2499.424242
350.429796	2498.562204
350.820203	2496.510455
351.210548	2496.197903
351.600828	2493.238746
351.991045	2492.439723
352.381198	2492.848056
352.771288	2494.302429
353.161314	2490.627428
353.551276	2493.132882
353.941175	2492.719507
354.331010	2492.711945
354.720782	2492.482573
355.110490	2491.736482
355.500135	2491.126502
355.889717	2494.521719
356.279235	2491.565083
356.668689	2493.911740
357.058080	2490.725731
357.447408	2488.462252
357.836672	2491.224805
358.225873	2492.512820
358.615010	2489.503251
359.004084	2495.976092
359.393095	2497.586741
359.782043	2498.829385
360.170927	2497.397698
360.559748	2498.962976
360.948505	2497.803511
361.337199	2502.559839
361.725830	2498.897441
362.114398	2499.951042
362.502903	2502.514469
362.891344	2498.821824
363.279722	2501.072699
363.668037	2501.813748
364.056289	2502.204438
364.444478	2501.735611
364.832603	2501.939777
365.220665	2504.674603
365.608665	2505.766013
365.996601	2503.328615
366.384474	2504.369613
366.772284	2506.534789
367.160031	2504.846003
367.547715	2504.871208
367.935336	2505.496311
368.322893	2507.490088
368.710388	2505.907165
369.097820	2508.563853
369.485189	2504.150323
369.872495	2509.390603
370.259738	2505.801301
370.646918	2507.399347
371.034035	2508.407578
371.421090	2506.834738
371.808081	2507.129645
372.195010	2510.343381
372.581875	2507.207783
372.968678	2507.149810
373.355418	2508.962105
373.742096	2510.620644
374.128710	2507.331291
374.515262	2511.540655
374.901751	2508.641991
375.288177	2510.240037
375.674540	2510.408916
376.060841	2508.349604
376.447079	2511.729698
376.833254	2512.750532
377.219367	2504.190653
377.605417	2510.698782
377.991404	2507.442197
378.377329	2508.815911
378.763191	2509.209121
379.148991	2514.409071
379.534727	2510.761797
379.920402	2511.951509
380.306013	2513.234482
380.691563	2514.663650
381.077049	2513.277332
381.462474	2515.132477
381.847835	2515.142559
382.233134	2515.601304
382.618371	2517.234638
383.003545	2513.017713
383.388657	2515.089627
383.773706	2512.732888
384.158693	2514.393948
384.543618	2516.775893
384.928480	2515.508043
385.313280	2515.608866
385.698017	2514.991325
386.082692	2517.045595
386.467305	2517.955523
386.851856	2517.705986
387.236344	2517.524504
387.620770	2517.204391
388.005133	2516.251613
388.389435	2517.617766
388.773674	2517.547190
389.157851	2516.317148
389.541965	2516.947292
389.926018	2516.244051
390.310008	2518.963754
390.693936	2517.975688
391.077802	2520.425688
391.461606	2520.004752
391.845348	2519.218332
392.229027	2520.168590
392.612645	2516.448218
392.996200	2519.445184
393.379694	2518.028620
393.763125	2520.370236
394.146494	2519.140194
394.529801	2522.059022
394.913047	2520.841584
395.296230	2521.244876
395.679351	2520.551717
396.062410	2522.916018
396.445408	2521.854856
396.828343	2521.648168
397.211217	2514.961078
397.594028	2519.583816
397.976778	2517.330420
398.359466	2520.367715
398.742092	2517.194309
399.124656	2524.453570
399.507158	2523.120185
399.889598	2521.955679
400.271977	2522.132119
400.654294	2521.721265
401.036549	2521.204547
401.418742	2523.909126
401.800874	2519.540966
402.182944	2521.998528
402.564952	2524.577079
402.946898	2525.212264
403.328783	2521.769156
403.710606	2523.901564
404.092367	2523.722603
404.474067	2525.086235
404.855705	2525.975999
405.237282	2526.845598
405.618797	2525.371060
406.000250	2525.388704
406.381642	2525.570186
406.762972	2524.657737
407.144240	2529.797193
407.525447	2526.918695
407.906593	2527.185876
408.287677	2525.000536
408.668700	2527.742923
409.049661	2526.064219
409.430560	2526.137316
409.811399	2532.385826
410.192176	2527.480783
410.572891	2528.065557
410.953545	2527.571524
411.334138	2527.271575
411.714669	2528.529343
412.095139	2524.624970
412.475547	2529.325846
412.855894	2526.217974
413.236180	2528.781401
413.616405	2532.037986
413.996568	2528.670496
414.376670	2530.591175
414.756711	2529.298119
415.136691	2527.606812
415.516609	2531.004550
415.896466	2532.753830
416.276262	2530.394570
416.655997	2523.190761
417.035670	2526.855680
417.415283	2525.585309
417.794834	2528.690660
418.174324	2529.051103
418.553753	2528.219312
418.933121	2533.822555
419.312428	2529.948428
419.691674	2528.005063
420.070859	2528.325177
420.449983	2528.322656
420.829045	2531.654859
421.208047	2530.021525
421.586988	2529.724097
421.965867	2532.297606
422.344686	2532.320291
422.723444	2532.589993
423.102141	2529.088911
423.480777	2531.763243
423.859352	2532.615198
424.237866	2529.734179
424.616319	2530.881042
424.994712	2532.514375
425.373044	2534.193080
425.751314	2533.351207
426.129524	2532.559746
426.507673	2536.030580
426.885762	2533.595703
427.263789	2534.364479
427.641756	2531.289375
428.019662	2534.966897
428.397508	2534.740045
428.775292	2536.761548
429.153016	2534.077133
429.530679	2537.946219
429.908282	2534.107380
430.285824	2534.629139
430.663305	2534.671989
431.040726	2536.312885
431.418086	2534.472864
431.795385	2535.239119
432.172624	2533.416742
432.549802	2533.895652
432.926920	2534.435055
433.303977	2535.453368
433.680974	2535.536547
434.057910	2536.970755
434.434786	2537.404295
434.811601	2531.387677
435.188355	2536.811959
435.565050	2536.149047
435.941683	2532.214427
436.318257	2537.414377
436.694770	2532.995806
437.071222	2532.395908
437.447614	2535.153419
437.823946	2535.317257
438.200218	2536.680889
438.576429	2536.484284
438.952580	2538.137782
439.328670	2536.544778
439.704700	2535.191228
440.080670	2539.201466
440.456580	2538.072248
440.832429	2537.275745
441.208218	2536.741383
441.583947	2536.703574
441.959616	2535.218954
442.335224	2538.140303
442.710773	2535.544109
443.086261	2538.387320
443.461689	2539.100643
443.837057	2537.984027
444.212365	2538.735159
444.587612	2541.202804
444.962800	2538.162988
445.337927	2537.918492
445.712995	2539.221631
446.088002	2537.956301
446.462949	2541.230530
446.837837	2538.493184
447.212664	2539.967721
447.587431	2537.570653
447.962139	2541.727084
448.336786	2540.963349
448.711374	2536.960673
449.085901	2540.507125
449.460369	2538.725077
449.834776	2540.965870
450.209124	2542.077444
450.583412	2538.878832
450.957640	2539.768596
451.331808	2539.277083
451.705917	2543.365459
452.079965	2541.311189
452.453954	2541.734646
452.827883	2541.054090
453.201752	2539.876981
453.575562	2542.097609
453.949311	2537.656352
454.323001	2539.380427
454.696632	2539.551826
455.070202	2541.732125
455.443713	2539.269522
455.817164	2538.442772
456.190556	2537.467309
456.563888	2542.720191
456.937160	2537.066537
457.310373	2539.461085
457.683526	2539.955118
458.056619	2536.529654
458.429653	2539.332536
458.802628	2538.646939
459.175542	2541.994265
459.548398	2538.188194
459.921194	2538.866229
460.293930	2542.319420
460.666607	2541.248174
461.039224	2541.454862
461.411782	2542.160623
461.784280	2542.742877
462.156719	2541.497712
462.529099	2541.590973
462.901419	2541.381765
463.273680	2544.408978
463.645882	2541.270860
464.018024	2540.978473
464.390106	2544.240099
464.762130	2541.984183
465.134094	2539.511497
465.505999	2543.688093
465.877845	2544.061138
466.249631	2545.951571
466.621358	2542.523586
466.993026	2544.434184
467.364634	2544.371169
467.736184	2544.335881
468.107674	2542.216076
468.479105	2543.612476
468.850477	2542.894111
469.221790	2544.529966
469.593043	2541.696837
469.964238	2542.316899
470.335373	2541.913607
470.706449	2544.517363
471.077467	2542.122815
471.448425	2546.067517
471.819324	2543.778834
472.190164	2543.357897
472.560945	2544.308155
472.931667	2543.143648
473.302330	2543.791437
473.672934	2545.250851
474.043479	2545.102137
474.413965	2544.393854
474.784393	2541.265818
475.154761	2541.936292
475.525070	2541.364121
475.895321	2543.057949
476.265513	2539.587114
476.635645	2543.985521
477.005719	2544.235058
477.375734	2543.786395
477.745691	2542.747918
478.115588	2545.492826
478.485427	2547.274874
478.855207	2542.205994
479.224928	2544.010727
479.594591	2544.708927
479.964194	2544.424101
480.333739	2547.058104
480.703226	2544.497198
481.072653	2546.291849
481.442022	2546.367466
481.811333	2543.786395
482.180584	2547.237065
482.549777	2545.528114
482.918912	2543.990562
483.287988	2545.530635
483.657005	2543.715819
484.025964	2543.022661
484.394864	2546.690100
484.763706	2545.550799
485.132489	2544.499719
485.501213	2548.051212
485.869879	2547.443753
486.238487	2541.727084
486.607036	2547.300080
486.975527	2546.294369
487.343959	2543.710778
487.712333	2547.350491
488.080648	2544.603062
488.448905	2545.916283
488.817104	2547.365615
489.185244	2545.603731
489.553326	2545.969215
489.921350	2547.385779
490.289315	2544.731612
490.657222	2544.706406
491.025070	2546.697662
491.392861	2548.895605
491.760593	2545.366797
492.128267	2546.523742
492.495883	2546.533824
492.863440	2544.214893
493.230939	2546.750594
493.598380	2547.799154
493.965763	2543.617517
494.333088	2544.658515
494.700354	2542.006868
495.067563	2545.137425
495.434713	2542.074924
495.801805	2549.608928
496.168839	2546.848896
496.535815	2547.912580
496.902733	2545.717157
497.269593	2548.779658
497.636395	2547.710934
498.003139	2550.299566
498.369825	2543.756148
498.736453	2547.605069
499.103023	2546.415357
499.469535	2546.070038
499.835989	2546.185985
500.202385	2548.184802
500.568723	2547.302600
500.935003	2548.628424
501.301226	2546.357384
501.667390	2546.932075
502.033497	2549.687066
502.399546	2549.220759
502.765537	2548.509957
503.131470	2548.996428
503.497345	2547.937786
503.863163	2549.190512
504.228923	2548.961140
504.594625	2547.274874
504.960269	2550.188661
505.325856	2548.141952
505.691385	2547.143804
506.056856	2549.981973
506.422270	2550.554144
506.787625	2547.647919
507.152924	2547.605069
507.518164	2547.027857
507.883347	2546.299411
508.248472	2547.466438
508.613540	2547.917621
508.978550	2547.342929
509.343503	2551.234700
509.708398	2548.870399
510.073236	2546.367466
510.438016	2548.348640
510.802738	2546.841335
511.167403	2549.644216
511.532010	2543.657846
511.896561	2551.453990
512.261053	2551.297715
512.625488	2543.844369
512.989866	2544.048535
513.354186	2548.265461
513.718449	2544.063659
514.082655	2545.334030
514.446803	2548.366284
514.810894	2548.746891
515.174927	2549.525749
515.538904	2547.388300
515.902822	2548.804864
516.266684	2548.083979
516.630488	2549.671943
516.994235	2549.442570
517.357925	2547.544576
517.721558	2549.366953
518.085133	2548.371325
518.448651	2546.758156
518.812112	2547.852086
519.175516	2547.778989
519.538863	2551.118754
519.902152	2549.094730
520.265385	2550.082797
520.628560	2548.202446
520.991678	2546.992569
521.354739	2547.902498
521.717743	2547.524411
522.080690	2550.108002
522.443580	2548.167158
522.806413	2551.821995
523.169189	2548.880481
523.531908	2549.498023
523.894569	2547.448794
524.257174	2550.178578
524.619722	2548.656150
524.982213	2548.930893
525.344647	2547.259750
525.707025	2550.337375
526.069345	2548.572971
526.431608	2550.012220
526.793815	2548.875440
527.155964	2548.547765
527.518057	2550.980122
527.880093	2548.683876
528.242072	2548.595656
528.603995	2551.708569
528.965860	2547.612631
529.327669	2555.000442
529.689421	2550.029864
530.051117	2547.436191
530.412755	2551.547252
530.774337	2550.508774
531.135862	2553.281409
531.497331	2549.170348
531.858743	2545.896118
532.220098	2547.594987
532.581396	2545.389482
532.942638	2547.607590
533.303824	2547.416026
533.664953	2550.604556
534.026025	2550.556665
534.387040	2549.568599
534.747999	2549.402241
535.108902	2548.928372
535.469748	2551.650595
535.830537	2551.378373
536.191270	2550.418033
536.551947	2550.901984
536.912567	2548.048691
537.273131	2550.095399
537.633638	2549.639175
537.994089	2548.671273
538.354483	2552.341233
538.714821	2549.447611
539.075103	2550.034906
539.435328	2548.915769
539.795497	2553.077242
540.155609	2548.726726
540.515665	2551.842159
540.875665	2548.572971
541.235609	2550.523897
541.595496	2550.423074
541.955328	2549.034237
542.315102	2550.022303
542.674821	2551.179247
543.034483	2551.978270
543.394090	2553.420040
543.753640	2550.844011
544.113134	2550.473486
544.472571	2550.907025
544.831953	2549.460214
545.191278	2554.398024
545.550548	2552.444577
545.909761	2549.671942
546.268918	2549.092210
546.628019	2552.144628
546.987064	2550.090358
547.346053	2552.837787
547.704986	2550.924669
548.063863	2551.189330
548.422684	2549.177909
548.781449	2550.191181
549.140158	2551.849721
549.498811	2552.580688
549.857408	2548.850234
550.215949	2548.325954
550.574434	2547.930224
550.932864	2546.518701
551.291237	2547.602549
551.649555	2550.392827
552.007817	2550.619679
552.366022	2548.638506
552.724173	2548.235214
553.082267	2550.912066
553.440305	2547.526932
553.798288	2552.850390
554.156215	2549.888712
554.514086	2551.839639
554.871902	2551.423743
555.229661	2550.314690
555.587365	2550.370142
555.945014	2551.257385
556.302606	2551.484237
556.660143	2551.527087
557.017625	2551.509443
557.375050	2549.654298
557.732421	2551.917777
558.089735	2552.613456
558.446994	2551.602704
558.804197	2552.137067
559.161345	2551.038095
559.518437	2553.452808
559.875474	2551.411141
560.232455	2551.486758
560.589381	2552.089176
560.946251	2554.302242
561.303065	2549.636654
561.659825	2550.105482
562.016528	2550.440718
562.373177	2551.955585
562.729770	2546.795964
563.086307	2550.962478
563.442789	2549.142621
563.799216	2552.472303
564.155587	2550.924669
564.511904	2551.224618
564.868164	2549.971891
565.224370	2549.971891
565.580520	2549.999618
565.936615	2550.687735
566.292654	2548.835111
566.648638	2550.564227
567.004567	2551.416182
567.360441	2553.409958
567.716260	2549.714792
568.072023	2551.307797
568.427732	2545.371838
568.783385	2547.968033
569.138982	2546.039791
569.494525	2546.178423
569.850013	2547.204298
570.205445	2549.407282
570.560823	2547.993238
570.916145	2550.947354
571.271412	2551.640513
571.626625	2551.847200
571.981782	2552.177396
572.336884	2550.627241
572.691931	2551.393497
573.046923	2551.393497
573.401860	2551.751418
573.756743	2551.665719
574.111570	2549.757642
574.466342	2550.228990
574.821059	2550.332334
575.175722	2550.932231
575.530330	2551.154042
575.884882	2551.774104
576.239380	2551.567416
576.593823	2553.941800
576.948211	2550.102961
577.302544	2548.036088
577.656823	2554.098076
578.011047	2551.675801
578.365216	2550.723023
578.719330	2554.082952
579.073389	2550.213867
579.427394	2551.128836
579.781344	2550.929710
580.135239	2549.487940
580.489080	2553.067160
580.842866	2550.176058
581.196597	2554.665205
581.550273	2550.037426
581.903895	2550.382745
582.257463	2551.635472
582.610975	2549.424926
582.964434	2548.212528
583.317837	2550.024823
583.671186	2550.294525
584.024481	2551.418702
584.377721	2552.164793
584.730906	2552.132026
585.084037	2554.854249
585.437113	2550.944834
585.790135	2550.501212
586.143103	2553.052036
586.496016	2549.921480
586.848874	2547.118598
587.201679	2548.305790
587.554428	2546.768238
587.907124	2549.397200
588.259765	2546.869061
588.612352	2553.014227
588.964884	2551.292673
589.317362	2551.948023
589.669786	2548.696479
590.022155	2552.502550
590.374470	2552.610935
590.726731	2552.283260
591.078937	2553.407437
591.431090	2550.483568
591.783188	2550.561706
592.135232	2550.937272
592.487222	2551.108671
592.839157	2552.011038
593.191038	2550.717982
593.542866	2550.579350
593.894639	2549.097251
594.246358	2551.736295
594.598022	2553.480534
594.949633	2547.826880
595.301190	2551.390976
595.652692	2553.485575
596.004141	2550.254196
596.355535	2549.397200
596.706876	2551.106151
597.058162	2551.567416
597.409395	2550.589432
597.760573	2551.055739
598.111698	2552.212684
598.462768	2550.917107
598.813785	2549.762683
599.164748	2553.767880
599.515657	2553.946841
599.866511	2550.435677
600.217312	2551.247303
600.568060	2552.535318
600.918753	2551.668239
601.269392	2551.191850
601.619978	2551.786707
601.970510	2551.514484
602.320988	2554.118240
602.671412	2548.570450
603.021783	2551.315359
603.372100	2551.847200
603.722363	2549.591284
604.072572	2551.925338
604.422728	2551.232180
604.772830	2548.124308
605.122878	2548.154555
605.472872	2546.947199
605.822813	2547.763866
606.172701	2550.929710
606.522534	2552.671429
606.872314	2553.462890
607.222041	2552.189999
607.571714	2551.154042
607.921333	2549.261088
608.270899	2549.160265
608.620411	2552.363919
608.969870	2552.885678
609.319276	2555.232335
609.668627	2555.600339
610.017926	2557.969682
610.367171	2556.248128
610.716362	2557.334496
611.065500	2555.030689
611.414585	2555.928014
611.763616	2556.293498
612.112594	2555.144115
612.461518	2553.596481
612.810389	2553.092365
613.159207	2553.112530
613.507971	2551.370811
613.856682	2550.614638
614.205340	2552.545400
614.553945	2551.814433
614.902496	2551.816953
615.250994	2552.295863
615.599439	2550.685214
615.947830	2552.532797
616.296169	2548.424257
616.644454	2554.140925
616.992686	2549.918959
617.340864	2553.500699
617.688990	2550.826367
618.037063	2553.740154
618.385082	2551.227138
618.733048	2550.844011
619.080961	2553.145297
619.428821	2551.511964
619.776628	2552.474824
620.124382	2554.556821
620.472083	2550.113043
620.819731	2553.268806
621.167326	2552.782334
621.514868	2552.414330
621.862357	2552.837787
622.209793	2554.382901
622.557176	2551.093548
622.904506	2551.068342
623.251783	2548.988866
623.599007	2551.136398
623.946179	2546.851417
624.293297	2548.567930
624.640363	2552.550441
624.987376	2551.660678
625.334336	2551.799309
625.681243	2551.025492
626.028097	2550.390307
626.374899	2550.816284
626.721647	2550.355019
627.068343	2551.905174
627.414987	2551.093548
627.761577	2550.894422
628.108115	2551.295194
628.454600	2549.561037
628.801032	2549.790410
629.147412	2548.804864
629.493739	2550.286963
629.840014	2552.716799
630.186236	2553.878785
630.532405	2551.464073
630.878521	2550.995245
631.224585	2550.554144
631.570597	2551.002807
631.916556	2551.229659
632.262462	2550.826367
632.608316	2551.408620
632.954117	2551.050698
633.299866	2553.412479
633.645562	2550.153373
633.991206	2553.228477
634.336797	2550.415513
634.682336	2553.518343
635.027823	2552.149670
635.373257	2553.888868
635.718639	2548.212528
636.063968	2551.776624
636.409245	2551.474155
636.754470	2550.082797
637.099642	2550.692776
637.444762	2551.028013
637.789829	2550.412992
638.134845	2551.849721
638.479808	2548.673794
638.824719	2551.028013
639.169577	2548.814946
639.514383	2551.133877
639.859137	2549.538352
640.203839	2550.266799
640.548489	2550.367622
640.893086	2547.572302
641.237632	2546.846376
641.582125	2547.466438
641.926566	2547.100954
642.270955	2549.167827
642.615292	2548.499874
642.959576	2552.069011
643.303809	2550.110523
643.647990	2553.359547
643.992118	2550.027344
644.336195	2550.980122
