Dividing Wavelength (nm)	Counts (n)	Blue Motor Position (mm): 2.000000	Red Motor Position (mm): 0.000000	
326.493990	2102.733325
326.888308	2102.733325
327.282561	2102.733325
327.676750	2079.899418
328.070874	2080.975705
328.464933	2085.026272
328.858929	2099.814497
329.252859	2110.027874
329.646726	2123.457508
330.040528	2139.833697
330.434265	2161.039310
330.827938	2180.304080
331.221547	2201.267718
331.615091	2216.968392
332.008571	2240.127452
332.401986	2261.733838
332.795338	2279.294697
333.188625	2300.646504
333.581847	2318.381283
333.975006	2336.163954
334.368100	2357.450226
334.761129	2372.558564
335.154095	2387.626573
335.546996	2403.198697
335.939833	2417.886099
336.332606	2432.102152
336.725315	2444.427774
337.117960	2449.912549
337.510540	2458.769856
337.903056	2467.528861
338.295508	2473.500108
338.687896	2480.134266
339.080220	2486.231542
339.472480	2496.452481
339.864676	2496.472646
340.256807	2499.421721
340.648875	2500.397184
341.040879	2502.098574
341.432818	2502.864829
341.824694	2501.778460
342.216506	2506.738956
342.608253	2501.813748
342.999937	2501.980107
343.391557	2496.681854
343.783113	2502.169150
344.174605	2496.213027
344.566033	2494.824189
344.957397	2496.654127
345.348697	2495.827378
345.739934	2491.484424
346.131106	2490.345123
346.522215	2488.573158
346.913260	2486.559217
347.304241	2483.947899
347.695159	2482.420430
348.086012	2481.417240
348.476802	2480.963536
348.867528	2481.374390
349.258191	2478.768114
349.648789	2476.436580
350.039324	2476.461786
350.429796	2476.890284
350.820203	2474.347022
351.210548	2474.039511
351.600828	2472.595221
351.991045	2473.225365
352.381198	2473.560602
352.771288	2469.298306
353.161314	2471.302165
353.551276	2472.459110
353.941175	2471.423153
354.331010	2474.226034
354.720782	2472.305354
355.110490	2473.114460
355.500135	2475.166209
355.889717	2472.186887
356.279235	2475.592187
356.668689	2473.850468
357.058080	2474.536065
357.447408	2474.246199
357.836672	2471.574387
358.225873	2475.377938
358.615010	2472.391054
359.004084	2477.699389
359.393095	2475.788792
359.782043	2478.384986
360.170927	2476.592856
360.559748	2479.307517
360.948505	2479.531848
361.337199	2481.613845
361.725830	2478.420274
362.114398	2483.295070
362.502903	2483.239617
362.891344	2479.168885
363.279722	2479.998155
363.668037	2480.900522
364.056289	2484.862869
364.444478	2483.179123
364.832603	2482.312045
365.220665	2483.443784
365.608665	2482.738022
365.996601	2483.484113
366.384474	2483.824391
366.772284	2485.167858
367.160031	2483.610142
367.547715	2483.741212
367.935336	2485.639206
368.322893	2485.954278
368.710388	2483.017806
369.097820	2489.442757
369.485189	2484.731799
369.872495	2487.164155
370.259738	2483.161479
370.646918	2488.961327
371.034035	2487.035606
371.421090	2487.086018
371.808081	2486.231542
372.195010	2487.199443
372.581875	2488.048878
372.968678	2487.532160
373.355418	2488.459732
373.742096	2488.421923
374.128710	2489.031903
374.515262	2488.149701
374.901751	2490.917294
375.288177	2488.802530
375.674540	2491.907881
376.060841	2488.492499
376.447079	2489.031903
376.833254	2491.786893
377.219367	2484.424288
377.605417	2489.510812
377.991404	2486.748260
378.377329	2487.171717
378.763191	2486.962509
379.148991	2493.909219
379.534727	2491.542397
379.920402	2493.170690
380.306013	2493.069867
380.691563	2493.367295
381.077049	2492.512820
381.462474	2494.614981
381.847835	2493.662203
382.233134	2494.801503
382.618371	2494.315032
383.003545	2492.797645
383.388657	2494.226812
383.773706	2495.827378
384.158693	2494.189003
384.543618	2495.779487
384.928480	2494.501555
385.313280	2495.280413
385.698017	2495.406442
386.082692	2495.018273
386.467305	2496.664210
386.851856	2495.729076
387.236344	2497.768223
387.620770	2498.292502
388.005133	2496.404590
388.389435	2494.027686
388.773674	2498.040445
389.157851	2494.665392
389.541965	2499.436844
389.926018	2497.561535
390.310008	2497.359889
390.693936	2498.063130
391.077802	2496.941473
391.461606	2498.075733
391.845348	2498.652945
392.229027	2499.116731
392.612645	2499.938439
392.996200	2498.925167
393.379694	2499.893069
393.763125	2499.759478
394.146494	2500.558501
394.529801	2502.012874
394.913047	2499.562873
395.296230	2497.942142
395.679351	2500.485404
396.062410	2499.736793
396.445408	2498.889879
396.828343	2501.279386
397.211217	2498.254694
397.594028	2500.135044
397.976778	2497.906854
398.359466	2501.813748
398.742092	2496.916268
399.124656	2503.323574
399.507158	2500.407267
399.889598	2503.033708
400.271977	2502.176712
400.654294	2503.983965
401.036549	2502.179232
401.418742	2505.004799
401.800874	2503.326095
402.182944	2504.583863
402.564952	2505.498832
402.946898	2504.830879
403.328783	2506.743997
403.710606	2506.723832
404.092367	2506.189470
404.474067	2507.472444
404.855705	2502.186794
405.237282	2505.975221
405.618797	2505.317350
406.000250	2506.270128
406.381642	2503.043790
406.762972	2505.624861
407.144240	2505.602176
407.525447	2509.060407
407.906593	2507.379182
408.287677	2507.507732
408.668700	2506.529748
409.049661	2505.370282
409.430560	2504.578821
409.811399	2505.408091
410.192176	2506.297855
410.572891	2504.853564
410.953545	2506.083606
411.334138	2506.963287
411.714669	2507.769872
412.095139	2505.150992
412.475547	2505.284583
412.855894	2507.618637
413.236180	2507.696775
413.616405	2508.793226
413.996568	2508.838596
414.376670	2510.277846
414.756711	2508.319358
415.136691	2507.651405
415.516609	2507.764831
415.896466	2510.547548
416.276262	2509.325068
416.655997	2509.073010
417.035670	2504.772906
417.415283	2508.374810
417.794834	2507.127125
418.174324	2508.636950
418.553753	2510.101405
418.933121	2510.184584
419.312428	2511.664163
419.691674	2511.477640
420.070859	2510.371107
420.449983	2510.106447
420.829045	2512.541324
421.208047	2510.197187
421.586988	2509.930006
421.965867	2510.958402
422.344686	2511.618793
422.723444	2512.012003
423.102141	2512.178361
423.480777	2512.241375
423.859352	2511.591066
424.237866	2511.699451
424.616319	2510.761797
424.994712	2511.505367
425.373044	2513.879750
425.751314	2512.417816
426.129524	2512.939575
426.507673	2512.569050
426.885762	2512.826149
427.263789	2512.886643
427.641756	2511.611231
428.019662	2513.751201
428.397508	2513.433608
428.775292	2513.226921
429.153016	2512.561488
429.530679	2511.938906
429.908282	2512.742970
430.285824	2513.584843
430.663305	2513.902435
431.040726	2514.290604
431.418086	2512.264060
431.795385	2513.602487
432.172624	2514.162055
432.549802	2512.909328
432.926920	2514.938392
433.303977	2515.157683
433.680974	2512.543844
434.057910	2514.459483
434.434786	2511.948988
434.811601	2517.708507
435.188355	2515.092148
435.565050	2514.691376
435.941683	2515.313958
436.318257	2514.000738
436.694770	2513.325223
437.071222	2514.630882
437.447614	2511.447393
437.823946	2516.415451
438.200218	2513.942765
438.576429	2515.666839
438.952580	2516.375121
439.328670	2515.087107
439.704700	2515.712210
440.080670	2517.232118
440.456580	2516.193640
440.832429	2515.485358
441.208218	2515.601304
441.583947	2519.228414
441.959616	2514.005779
442.335224	2516.181037
442.710773	2517.252282
443.086261	2517.857221
443.461689	2516.843949
443.837057	2517.799247
444.212365	2518.308404
444.587612	2517.438805
444.962800	2513.100892
445.337927	2519.475431
445.712995	2516.980060
446.088002	2521.766635
446.462949	2517.232117
446.837837	2519.815709
447.212664	2516.851510
447.587431	2522.321162
447.962139	2517.889988
448.336786	2518.620955
448.711374	2517.700945
449.085901	2517.990811
449.460369	2516.985101
449.834776	2519.790503
450.209124	2520.327386
450.583412	2521.428878
450.957640	2517.763959
451.331808	2517.824453
451.705917	2518.038702
452.079965	2517.776562
452.453954	2521.345699
452.827883	2521.413755
453.201752	2515.863444
453.575562	2518.048784
453.949311	2521.423837
454.323001	2520.440812
454.696632	2521.161697
455.070202	2521.023065
455.443713	2517.038033
455.817164	2517.413599
456.190556	2518.903260
456.563888	2518.494927
456.937160	2517.590039
457.310373	2520.576923
457.683526	2519.132632
458.056619	2516.879237
458.429653	2519.414937
458.802628	2521.491893
459.175542	2519.558610
459.548398	2520.377798
459.921194	2521.209588
460.293930	2519.828312
460.666607	2517.912673
461.039224	2522.968951
461.411782	2520.004752
461.784280	2521.030627
462.156719	2523.208405
462.529099	2521.484331
462.901419	2522.853004
463.273680	2522.923580
463.645882	2523.652027
464.018024	2524.763601
464.390106	2521.572551
464.762130	2523.626821
465.134094	2522.043899
465.505999	2522.800072
465.877845	2524.178828
466.249631	2521.418796
466.621358	2520.902078
466.993026	2527.594209
467.364634	2525.494569
467.736184	2521.907788
468.107674	2524.141019
468.479105	2521.179341
468.850477	2521.801923
469.221790	2524.831657
469.593043	2525.527336
469.964238	2522.973992
470.335373	2522.560617
470.706449	2526.210413
471.077467	2521.985926
471.448425	2526.482635
471.819324	2522.669002
472.190164	2527.221164
472.560945	2523.561286
472.931667	2523.319311
473.302330	2521.738909
473.672934	2523.175638
474.043479	2522.157325
474.413965	2522.033817
474.784393	2519.062056
475.154761	2520.846625
475.525070	2516.889319
475.895321	2520.559279
476.265513	2519.795544
476.635645	2525.396266
477.005719	2525.229908
477.375734	2524.226718
477.745691	2524.682943
478.115588	2521.512057
478.485427	2524.360309
478.855207	2525.857532
479.224928	2523.601615
479.594591	2526.061698
479.964194	2522.540453
480.333739	2525.166894
480.703226	2521.965761
481.072653	2524.998015
481.442022	2523.140350
481.811333	2524.798889
482.180584	2526.023890
482.549777	2525.338293
482.918912	2525.487007
483.287988	2523.178158
483.657005	2524.693025
484.025964	2524.171266
484.394864	2524.163704
484.763706	2525.161852
485.132489	2524.657737
485.501213	2525.093797
485.869879	2526.754857
486.238487	2523.498272
486.607036	2524.299815
486.975527	2525.003056
487.343959	2525.388704
487.712333	2525.000536
488.080648	2520.299660
488.448905	2526.664116
488.817104	2526.255783
489.185244	2526.291071
489.553326	2525.895340
489.921350	2523.163035
490.289315	2526.054137
490.657222	2524.750998
491.025070	2525.953314
491.392861	2526.764939
491.760593	2525.476925
492.128267	2527.246370
492.495883	2526.901051
492.863440	2527.886596
493.230939	2525.852491
493.598380	2525.993643
493.965763	2520.612211
494.333088	2523.289064
494.700354	2523.261337
495.067563	2524.214116
495.434713	2522.537932
495.801805	2525.512213
496.168839	2525.033303
496.535815	2526.157480
496.902733	2527.760567
497.269593	2524.995494
497.636395	2525.867614
498.003139	2527.753006
498.369825	2527.937008
498.736453	2526.999353
499.103023	2529.955990
499.469535	2526.792666
499.835989	2525.900382
500.202385	2526.457429
500.568723	2526.696884
500.935003	2526.742254
501.301226	2528.937677
501.667390	2527.039682
502.033497	2529.620753
502.399546	2528.131092
502.765537	2527.412728
503.131470	2528.756195
503.497345	2525.366019
503.863163	2528.781401
504.228923	2526.684281
504.594625	2525.557583
504.960269	2527.054806
505.325856	2526.190248
505.691385	2526.462470
506.056856	2528.912471
506.422270	2525.434075
506.787625	2529.603109
507.152924	2525.905423
507.518164	2529.141843
507.883347	2526.187727
508.248472	2529.328366
508.613540	2528.738551
508.978550	2528.148736
509.343503	2527.821061
509.708398	2526.717048
510.073236	2528.431041
510.438016	2526.081863
510.802738	2527.931967
511.167403	2530.787780
511.532010	2526.810310
511.896561	2527.616894
512.261053	2529.797193
512.625488	2525.784435
512.989866	2522.933663
513.354186	2526.127233
513.718449	2522.515247
514.082655	2525.373581
514.446803	2527.609333
514.810894	2527.881555
515.174927	2528.519261
515.538904	2527.596730
515.902822	2526.906092
516.266684	2526.021369
516.630488	2523.662109
516.994235	2526.923736
517.357925	2526.374250
517.721558	2531.279293
518.085133	2527.851308
518.448651	2529.484642
518.812112	2528.783922
519.175516	2526.467511
519.538863	2529.391381
519.902152	2530.818027
520.265385	2527.374919
520.628560	2529.618233
520.991678	2529.605630
521.354739	2529.081350
521.717743	2531.135620
522.080690	2529.640918
522.443580	2529.282996
522.806413	2527.621936
523.169189	2527.488345
523.531908	2528.569673
523.894569	2528.357944
524.257174	2529.799714
524.619722	2528.912471
524.982213	2528.962883
525.344647	2528.178983
525.707025	2527.256452
526.069345	2526.192768
526.431608	2529.378778
526.793815	2527.982378
527.155964	2529.532533
527.518057	2528.307532
527.880093	2529.260311
528.242072	2529.620753
528.603995	2530.150074
528.965860	2527.959693
529.327669	2527.450536
529.689421	2528.466329
530.051117	2529.424148
530.412755	2528.794004
530.774337	2527.800897
531.135862	2531.123017
531.497331	2526.855680
531.858743	2526.485155
532.220098	2528.226874
532.581396	2525.325690
532.942638	2524.604805
533.303824	2529.971113
533.664953	2528.751154
534.026025	2526.981709
534.387040	2531.506145
534.747999	2526.273427
535.108902	2531.206196
535.469748	2531.226361
535.830537	2530.863397
536.191270	2527.662265
536.551947	2529.366175
536.912567	2528.743592
537.273131	2530.571011
537.633638	2529.958510
537.994089	2530.076978
538.354483	2528.972965
538.714821	2529.131761
539.075103	2529.898017
539.435328	2529.593027
539.795497	2530.800383
540.155609	2528.877183
540.515665	2530.303829
540.875665	2528.355423
541.235609	2529.172090
541.595496	2532.264838
541.955328	2529.814838
542.315102	2529.880373
542.674821	2530.223171
543.034483	2529.177132
543.394090	2527.329549
543.753640	2532.587472
544.113134	2529.746782
544.472571	2528.108407
544.831953	2528.297450
545.191278	2529.217461
545.550548	2531.039838
545.909761	2529.295599
546.268918	2527.780732
546.628019	2533.457071
546.987064	2529.532533
547.346053	2528.970444
547.704986	2530.215609
548.063863	2531.649817
548.422684	2530.230733
548.781449	2529.182173
549.140158	2529.426669
549.498811	2530.442461
549.857408	2529.598068
550.215949	2526.280989
550.574434	2524.937521
550.932864	2526.986750
551.291237	2526.142357
551.649555	2527.332069
552.007817	2529.560259
552.366022	2527.027079
552.724173	2529.731658
553.082267	2530.881042
553.440305	2531.700229
553.798288	2529.187214
554.156215	2529.731658
554.514086	2531.906916
554.871902	2528.743592
555.229661	2531.430527
555.587365	2527.619415
555.945014	2534.298944
556.302606	2529.363654
556.660143	2532.282482
557.017625	2531.506145
557.375050	2530.513037
557.732421	2527.727800
558.089735	2530.467667
558.446994	2529.303160
558.804197	2533.996475
559.161345	2531.806093
559.518437	2530.291227
559.875474	2528.635207
560.232455	2528.791483
560.589381	2529.766947
560.946251	2531.112935
561.303065	2530.906247
561.659825	2531.223840
562.016528	2531.813655
562.373177	2530.356762
562.729770	2531.042358
563.086307	2532.353058
563.442789	2530.162677
563.799216	2529.706453
564.155587	2529.570342
564.511904	2528.778880
564.868164	2529.711494
565.224370	2532.005219
565.580520	2534.165353
565.936615	2530.387008
566.292654	2531.924560
566.648638	2528.010104
567.004567	2530.157636
567.360441	2533.058820
567.716260	2526.810310
568.072023	2531.279293
568.427732	2526.560773
568.783385	2527.662265
569.138982	2527.642100
569.494525	2530.281144
569.850013	2525.119003
570.205445	2527.019518
570.560823	2530.780218
570.916145	2529.051103
571.271412	2529.330887
571.626625	2530.543284
571.981782	2531.859025
572.336884	2530.248377
572.691931	2526.928777
573.046923	2531.521268
573.401860	2532.093439
573.756743	2528.804086
574.111570	2530.664272
574.466342	2530.709642
574.821059	2532.037986
575.175722	2528.879703
575.530330	2528.436082
575.884882	2529.749303
576.239380	2529.126720
576.593823	2533.633512
576.948211	2532.002698
577.302544	2528.042872
577.656823	2527.526154
578.011047	2530.631504
578.365216	2529.585465
578.719330	2531.319622
579.073389	2528.045393
579.427394	2531.062523
579.781344	2530.679395
580.135239	2530.427338
580.489080	2531.571680
580.842866	2530.175280
581.196597	2531.576721
581.550273	2533.315919
581.903895	2529.000691
582.257463	2528.312574
582.610975	2531.548994
582.964434	2530.124868
583.317837	2529.156967
583.671186	2532.085877
584.024481	2529.741741
584.377721	2529.403983
584.730906	2530.931453
585.084037	2532.716022
585.437113	2530.802904
585.790135	2533.472195
586.143103	2530.553367
586.496016	2530.928932
586.848874	2527.473222
587.201679	2530.165198
587.554428	2526.283509
587.907124	2529.633356
588.259765	2524.125895
588.612352	2530.714683
588.964884	2532.136289
589.317362	2532.373223
589.669786	2528.889786
590.022155	2530.102183
590.374470	2531.710311
590.726731	2530.255938
591.078937	2529.285516
591.431090	2533.494880
591.783188	2528.531864
592.135232	2531.092770
592.487222	2531.042358
592.839157	2531.400280
593.191038	2530.006401
593.542866	2533.295754
593.894639	2531.491021
594.246358	2531.637215
594.598022	2530.845753
594.949633	2528.930115
595.301190	2531.372554
595.652692	2530.661751
596.004141	2531.344828
596.355535	2531.808614
596.706876	2529.280475
597.058162	2531.057482
597.409395	2530.507996
597.760573	2529.587986
598.111698	2531.846422
598.462768	2530.528161
598.813785	2531.163346
599.164748	2527.735362
599.515657	2529.983716
599.866511	2528.872142
600.217312	2528.282327
600.568060	2532.373223
600.918753	2533.091587
601.269392	2531.465815
601.619978	2531.773326
601.970510	2534.089736
602.320988	2530.835671
602.671412	2531.259128
603.021783	2526.437264
603.372100	2532.804242
603.722363	2531.324663
604.072572	2530.147554
604.422728	2532.186700
604.772830	2524.826616
605.122878	2527.347193
605.472872	2525.416431
605.822813	2528.095804
606.172701	2527.291740
606.522534	2531.044879
606.872314	2527.173273
607.222041	2532.746268
607.571714	2530.349200
607.921333	2529.179652
608.270899	2530.170239
608.620411	2530.281144
608.969870	2528.937677
609.319276	2530.644107
609.668627	2532.806762
610.017926	2529.802235
610.367171	2529.267872
610.716362	2529.923222
611.065500	2531.130579
611.414585	2528.426000
611.763616	2528.587317
612.112594	2532.552184
612.461518	2531.233922
612.810389	2530.238294
613.159207	2529.565300
613.507971	2528.534384
613.856682	2530.790301
614.205340	2532.290044
614.553945	2530.966741
614.902496	2530.800383
615.250994	2531.405322
615.599439	2530.346679
615.947830	2528.451205
616.296169	2533.313398
616.644454	2534.339273
616.992686	2529.998840
617.340864	2531.168387
617.688990	2529.129241
618.037063	2530.523120
618.385082	2532.166536
618.733048	2528.231915
619.080961	2530.497914
619.428821	2529.918181
619.776628	2528.330218
620.124382	2529.313243
620.472083	2529.734179
620.819731	2530.641587
621.167326	2528.670496
621.514868	2531.382636
621.862357	2530.848274
622.209793	2532.355579
622.557176	2531.853984
622.904506	2528.569672
623.251783	2528.572193
623.599007	2527.760567
623.946179	2525.560104
624.293297	2526.223015
624.640363	2530.346679
624.987376	2528.766278
625.334336	2529.245187
625.681243	2533.099149
626.028097	2529.308202
626.374899	2527.750485
626.721647	2530.795342
627.068343	2529.771988
627.414987	2531.019673
627.761577	2529.696370
628.108115	2529.214940
628.454600	2528.408356
628.801032	2531.765764
629.147412	2531.768285
629.493739	2529.489683
629.840014	2531.803573
630.186236	2529.376257
630.532405	2529.041020
630.878521	2529.018335
631.224585	2530.709642
631.570597	2531.163346
631.916556	2533.401618
632.262462	2531.682585
632.608316	2530.457585
632.954117	2526.996833
633.299866	2529.716535
633.645562	2528.473891
633.991206	2529.149405
634.336797	2528.219312
634.682336	2532.433717
635.027823	2529.885414
635.373257	2531.354910
635.718639	2529.129241
636.063968	2531.990095
636.409245	2530.208048
636.754470	2529.391381
637.099642	2532.668131
637.444762	2530.782739
637.789829	2529.245187
638.134845	2529.938346
638.479808	2527.753006
638.824719	2529.003212
639.169577	2529.398942
639.514383	2529.693850
639.859137	2531.349869
640.203839	2532.952956
640.548489	2529.668644
640.893086	2529.212420
641.237632	2525.802079
641.582125	2527.548839
641.926566	2525.093797
642.270955	2531.523789
642.615292	2530.260980
642.959576	2529.892975
643.303809	2529.779549
643.647990	2531.680064
643.992118	2529.043541
644.336195	2532.161495
