Dividing Wavelength (nm)	Counts (n)	Blue Motor Position (mm): 2.400000	Red Motor Position (mm): 0.000000	
326.493990	2063.130020
326.888308	2063.130020
327.282561	2063.130020
327.676750	2039.010620
328.070874	2040.704447
328.464933	2047.222659
328.858929	2056.332024
329.252859	2066.094219
329.646726	2079.697772
330.040528	2096.300813
330.434265	2112.861003
330.827938	2134.134672
331.221547	2155.037817
331.615091	2175.235199
332.008571	2195.210772
332.401986	2218.589123
332.795338	2237.276680
333.188625	2254.908115
333.581847	2276.834614
333.975006	2294.471091
334.368100	2311.734522
334.761129	2326.048878
335.154095	2341.890704
335.546996	2358.400483
335.939833	2368.749972
336.332606	2387.215719
336.725315	2396.756102
337.117960	2408.338153
337.510540	2416.930800
337.903056	2423.930442
338.295508	2430.768767
338.687896	2438.615323
339.080220	2444.460541
339.472480	2448.773248
339.864676	2454.263065
340.256807	2453.151490
340.648875	2458.729527
341.040879	2455.019238
341.432818	2458.691718
341.824694	2461.056020
342.216506	2458.893365
342.608253	2460.861935
342.999937	2459.697429
343.391557	2459.208437
343.783113	2456.471090
344.174605	2455.067129
344.566033	2455.699794
344.957397	2450.938424
345.348697	2450.663681
345.739934	2448.311983
346.131106	2447.074379
346.522215	2444.599173
346.913260	2440.838472
347.304241	2439.658842
347.695159	2440.772937
348.086012	2441.529110
348.476802	2438.678338
348.867528	2435.401588
349.258191	2429.800866
349.648789	2432.175249
350.039324	2425.026893
350.429796	2430.771288
350.820203	2431.224992
351.210548	2431.749272
351.600828	2428.734662
351.991045	2429.737851
352.381198	2428.051585
352.771288	2429.682399
353.161314	2427.814651
353.551276	2428.774991
353.941175	2428.946390
354.331010	2428.296081
354.720782	2429.702563
355.110490	2428.525454
355.500135	2427.620567
355.889717	2428.197779
356.279235	2430.289858
356.668689	2427.638211
357.058080	2430.559559
357.447408	2431.179621
357.836672	2433.004519
358.225873	2430.446133
358.615010	2432.810435
359.004084	2432.349169
359.393095	2430.468819
359.782043	2432.893614
360.170927	2431.131730
360.559748	2434.221958
360.948505	2434.733635
361.337199	2435.714139
361.725830	2433.836309
362.114398	2437.274376
362.502903	2435.285641
362.891344	2437.551640
363.279722	2435.507452
363.668037	2440.682196
364.056289	2438.345622
364.444478	2440.047011
364.832603	2437.337391
365.220665	2438.942998
365.608665	2440.394851
365.996601	2440.500715
366.384474	2440.203287
366.772284	2441.549275
367.160031	2440.465427
367.547715	2442.106322
367.935336	2440.359562
368.322893	2439.492484
368.710388	2434.799170
369.097820	2441.574481
369.485189	2437.352514
369.872495	2443.966508
370.259738	2440.520879
370.646918	2444.470623
371.034035	2443.825356
371.421090	2446.250151
371.808081	2442.381065
372.195010	2444.609255
372.581875	2446.398865
372.968678	2445.652774
373.355418	2445.506581
373.742096	2445.814091
374.128710	2444.132866
374.515262	2445.032712
374.901751	2446.557661
375.288177	2445.751077
375.674540	2445.025150
376.060841	2447.109667
376.447079	2448.276695
376.833254	2448.196036
377.219367	2448.248968
377.605417	2450.298197
377.991404	2446.872733
378.377329	2447.361725
378.763191	2447.949020
379.148991	2451.180399
379.534727	2447.263423
379.920402	2448.526232
380.306013	2447.986828
380.691563	2447.684359
381.077049	2448.798454
381.462474	2450.474638
381.847835	2452.087807
382.233134	2449.884823
382.618371	2450.547734
383.003545	2451.452622
383.388657	2449.100923
383.773706	2452.027313
384.158693	2450.724175
384.543618	2450.890533
384.928480	2449.063115
385.313280	2451.245934
385.698017	2450.691407
386.082692	2450.212498
386.467305	2452.851542
386.851856	2453.312807
387.236344	2453.600153
387.620770	2450.966150
388.005133	2448.339709
388.389435	2453.164093
388.773674	2448.269133
389.157851	2452.624690
389.541965	2453.101079
389.926018	2455.236007
390.310008	2457.736420
390.693936	2455.382201
391.077802	2454.353806
391.461606	2455.248610
391.845348	2452.352468
392.229027	2455.089814
392.612645	2455.291460
392.996200	2458.802624
393.379694	2455.626697
393.763125	2457.428909
394.146494	2453.935390
394.529801	2457.663323
394.913047	2454.978909
395.296230	2458.263220
395.679351	2456.191306
396.062410	2457.733899
396.445408	2455.987139
396.828343	2458.779939
397.211217	2457.895216
397.594028	2458.016204
397.976778	2456.455967
398.359466	2458.500155
398.742092	2456.765998
399.124656	2456.269444
399.507158	2458.086780
399.889598	2459.329424
400.271977	2459.039558
400.654294	2458.182562
401.036549	2457.907819
401.418742	2461.744137
401.800874	2456.657613
402.182944	2459.286575
402.564952	2457.711214
402.946898	2458.757253
403.328783	2461.212295
403.710606	2460.660289
404.092367	2460.864456
404.474067	2461.562656
404.855705	2460.816565
405.237282	2461.476956
405.618797	2459.972172
406.000250	2463.528706
406.381642	2464.741103
406.762972	2458.570731
407.144240	2457.295319
407.525447	2459.604167
407.906593	2458.666513
408.287677	2462.848150
408.668700	2463.846298
409.049661	2463.188428
409.430560	2463.062399
409.811399	2463.967286
410.192176	2466.160188
410.572891	2463.634570
410.953545	2464.957873
411.334138	2463.448047
411.714669	2464.378140
412.095139	2464.448716
412.475547	2464.489045
412.855894	2463.357306
413.236180	2465.492235
413.616405	2462.328911
413.996568	2462.883438
414.376670	2461.867645
414.756711	2463.085084
415.136691	2465.305712
415.516609	2465.928295
415.896466	2464.070630
416.276262	2465.744293
416.655997	2466.966773
417.035670	2464.254632
417.415283	2467.276803
417.794834	2465.651031
418.174324	2467.836372
418.553753	2465.943418
418.933121	2467.057513
419.312428	2468.549695
419.691674	2464.635239
420.070859	2467.576752
420.449983	2466.883593
420.829045	2466.578604
421.208047	2466.649180
421.586988	2467.266721
421.965867	2467.107925
422.344686	2466.036680
422.723444	2466.364355
423.102141	2466.051803
423.480777	2465.504838
423.859352	2470.687144
424.237866	2467.647328
424.616319	2469.646146
424.994712	2469.016002
425.373044	2467.173460
425.751314	2467.826289
426.129524	2465.789663
426.507673	2465.993830
426.885762	2463.886628
427.263789	2469.283183
427.641756	2469.447020
428.019662	2470.283852
428.397508	2467.090281
428.775292	2470.581280
429.153016	2470.556074
429.530679	2472.096147
429.908282	2467.977524
430.285824	2469.721763
430.663305	2470.787967
431.040726	2468.148923
431.418086	2469.618419
431.795385	2470.949284
432.172624	2472.330560
432.549802	2472.824593
432.926920	2469.573049
433.303977	2470.430045
433.680974	2470.407360
434.057910	2472.025570
434.434786	2471.718060
434.811601	2471.239150
435.188355	2472.214614
435.565050	2469.681434
435.941683	2473.578246
436.318257	2471.828965
436.694770	2472.237299
437.071222	2473.084213
437.447614	2471.521455
437.823946	2472.862402
438.200218	2472.658235
438.576429	2473.273256
438.952580	2472.572536
439.328670	2472.655715
439.704700	2473.928606
440.080670	2471.581949
440.456580	2471.080354
440.832429	2471.062710
441.208218	2475.221662
441.583947	2474.616723
441.959616	2473.278297
442.335224	2472.068420
442.710773	2473.318626
443.086261	2474.717547
443.461689	2470.480457
443.837057	2474.843575
444.212365	2473.028760
444.587612	2470.288893
444.962800	2472.025570
445.337927	2472.010447
445.712995	2470.462813
446.088002	2474.465489
446.462949	2474.442804
446.837837	2471.660087
447.212664	2475.103195
447.587431	2472.103708
447.962139	2474.410036
448.336786	2475.405664
448.711374	2475.057824
449.085901	2474.231075
449.460369	2475.035139
449.834776	2479.060501
450.209124	2476.771817
450.583412	2475.077989
450.957640	2477.825418
451.331808	2475.425829
451.705917	2475.327526
452.079965	2476.408854
452.453954	2477.999338
452.827883	2473.895838
453.201752	2473.910962
453.575562	2474.369707
453.949311	2475.723257
454.323001	2475.967753
454.696632	2474.044553
455.070202	2474.704944
455.443713	2478.551344
455.817164	2475.035139
456.190556	2476.635706
456.563888	2478.079996
456.937160	2476.668473
457.310373	2476.338278
457.683526	2476.862558
458.056619	2477.333905
458.429653	2478.921869
458.802628	2475.556899
459.175542	2475.060345
459.548398	2479.012610
459.921194	2478.576550
460.293930	2477.152424
460.666607	2478.707620
461.039224	2475.498925
461.411782	2476.015644
461.784280	2478.936992
462.156719	2477.790130
462.529099	2479.012610
462.901419	2478.077476
463.273680	2476.728967
463.645882	2473.878194
464.018024	2473.308544
464.390106	2473.724439
464.762130	2477.275932
465.134094	2477.631333
465.505999	2478.977322
465.877845	2478.929431
466.249631	2480.071252
466.621358	2479.095789
466.993026	2482.375059
467.364634	2481.013948
467.736184	2479.158803
468.107674	2479.637713
468.479105	2477.182671
468.850477	2478.047229
469.221790	2480.169554
469.593043	2476.726446
469.964238	2479.519246
470.335373	2479.378093
470.706449	2478.450521
471.077467	2478.551344
471.448425	2480.527476
471.819324	2477.865747
472.190164	2479.748618
472.560945	2479.869606
472.931667	2476.875160
473.302330	2479.171406
473.672934	2480.449338
474.043479	2477.757362
474.413965	2479.032774
474.784393	2480.991263
475.154761	2480.976139
475.525070	2481.785244
475.895321	2480.169554
476.265513	2479.189050
476.635645	2480.913125
477.005719	2477.800212
477.375734	2481.384472
477.745691	2481.576036
478.115588	2479.557054
478.485427	2478.896663
478.855207	2477.994297
479.224928	2479.738536
479.594591	2477.888432
479.964194	2480.338433
480.333739	2480.114102
480.703226	2480.658546
481.072653	2481.495378
481.442022	2480.431694
481.811333	2476.542444
482.180584	2475.957670
482.549777	2480.976139
482.918912	2474.810808
483.287988	2480.345995
483.657005	2482.546458
484.025964	2481.225676
484.394864	2479.988073
484.763706	2479.567137
485.132489	2481.553351
485.501213	2481.515542
485.869879	2480.557723
486.238487	2483.511839
486.607036	2481.313896
486.975527	2483.552169
487.343959	2478.200984
487.712333	2479.728453
488.080648	2482.672487
488.448905	2481.082003
488.817104	2478.480768
489.185244	2483.279946
489.553326	2479.708289
489.921350	2483.768938
490.289315	2482.654843
490.657222	2482.869092
491.025070	2480.628299
491.392861	2482.967395
491.760593	2483.320276
492.128267	2481.056798
492.495883	2478.180819
492.863440	2481.407158
493.230939	2482.727940
493.598380	2482.914463
493.965763	2480.129225
494.333088	2482.085193
494.700354	2481.694503
495.067563	2484.245327
495.434713	2484.010914
495.801805	2483.542086
496.168839	2483.098465
496.535815	2484.459576
496.902733	2483.330358
497.269593	2485.745071
497.636395	2482.564103
498.003139	2483.937817
498.369825	2482.349853
498.736453	2482.092755
499.103023	2482.390183
499.469535	2485.092241
499.835989	2483.612663
500.202385	2481.518063
500.568723	2478.808443
500.935003	2480.950933
501.301226	2476.827269
501.667390	2482.914463
502.033497	2482.448156
502.399546	2483.547127
502.765537	2479.778865
503.131470	2480.406489
503.497345	2481.931438
503.863163	2486.440750
504.228923	2483.698362
504.594625	2480.358598
504.960269	2483.736171
505.325856	2483.736171
505.691385	2481.296252
506.056856	2481.596201
506.422270	2483.315234
506.787625	2481.182826
507.152924	2481.578557
507.518164	2483.927735
507.883347	2482.720378
508.248472	2485.697180
508.613540	2482.977477
508.978550	2485.238435
509.343503	2484.086531
509.708398	2483.849597
510.073236	2482.556541
510.438016	2484.441932
510.802738	2483.499237
511.167403	2485.208188
511.532010	2481.626448
511.896561	2483.577374
512.261053	2482.566623
512.625488	2486.160966
512.989866	2483.164000
513.354186	2484.489823
513.718449	2483.458907
514.082655	2482.276757
514.446803	2484.560399
514.810894	2483.738691
515.174927	2487.070894
515.538904	2485.941676
515.902822	2483.947899
516.266684	2485.309011
516.630488	2486.798672
516.994235	2483.743732
517.357925	2483.335399
517.721558	2484.078969
518.085133	2484.507467
518.448651	2483.557210
518.812112	2479.730974
519.175516	2481.891108
519.538863	2480.819863
519.902152	2484.116778
520.265385	2485.903867
520.628560	2483.577374
520.991678	2487.799341
521.354739	2485.634165
521.717743	2485.152735
522.080690	2485.117447
522.443580	2482.732981
522.806413	2483.466469
523.169189	2482.491006
523.531908	2484.084010
523.894569	2481.530666
524.257174	2484.152066
524.619722	2483.776500
524.982213	2484.540235
525.344647	2484.751963
525.707025	2483.370687
526.069345	2489.228508
526.431608	2484.210039
526.793815	2483.360605
527.155964	2486.120637
527.518057	2482.107878
527.880093	2485.238435
528.242072	2484.956130
528.603995	2485.712303
528.965860	2485.694659
529.327669	2484.232724
529.689421	2487.438898
530.051117	2485.379587
530.412755	2485.740029
530.774337	2486.344968
531.135862	2482.430512
531.497331	2486.448312
531.858743	2485.803044
532.220098	2484.721716
532.581396	2487.663230
532.942638	2487.854793
533.303824	2484.663743
533.664953	2484.000831
534.026025	2486.065184
534.387040	2485.780359
534.747999	2486.952427
535.108902	2482.357415
535.469748	2487.254896
535.830537	2486.163486
536.191270	2485.167858
536.551947	2484.356233
536.912567	2480.230048
537.273131	2484.817498
537.633638	2479.998155
537.994089	2485.240955
538.354483	2483.353043
538.714821	2483.040492
539.075103	2487.305308
539.435328	2486.844042
539.795497	2487.176758
540.155609	2486.788589
540.515665	2484.341109
540.875665	2483.574854
541.235609	2484.605770
541.595496	2485.987046
541.955328	2489.175576
542.315102	2484.308342
542.674821	2486.319762
543.034483	2486.839001
543.394090	2486.481079
543.753640	2486.697849
544.113134	2487.055771
544.472571	2485.742550
544.831953	2485.082159
545.191278	2485.679536
545.550548	2484.706593
545.909761	2485.999649
546.268918	2486.445791
546.628019	2485.356902
546.987064	2485.477889
547.346053	2484.807416
547.704986	2484.222642
548.063863	2488.099289
548.422684	2484.424288
548.781449	2485.387149
549.140158	2485.833291
549.498811	2487.373363
549.857408	2483.998311
550.215949	2485.324134
550.574434	2485.989567
550.932864	2486.042499
551.291237	2484.734319
551.649555	2486.695328
552.007817	2484.769607
552.366022	2486.208857
552.724173	2483.340440
553.082267	2488.202633
553.440305	2483.264823
553.798288	2489.629280
554.156215	2485.813126
554.514086	2486.251707
554.871902	2484.444453
555.229661	2484.406644
555.587365	2480.005717
555.945014	2488.515185
556.302606	2487.491830
556.660143	2486.251707
557.017625	2484.666264
557.375050	2488.197592
557.732421	2484.066366
558.089735	2486.760863
558.446994	2484.913280
558.804197	2488.835298
559.161345	2482.738022
559.518437	2484.734319
559.875474	2486.718013
560.232455	2486.486120
560.589381	2487.388487
560.946251	2486.745740
561.303065	2484.618373
561.659825	2490.035093
562.016528	2487.441419
562.373177	2487.781697
562.729770	2485.810606
563.086307	2486.423106
563.442789	2484.225163
563.799216	2486.763384
564.155587	2487.083497
564.511904	2486.115595
564.868164	2487.504433
565.224370	2484.986377
565.580520	2487.474186
565.936615	2485.493013
566.292654	2487.050729
566.648638	2487.088538
567.004567	2487.068373
567.360441	2487.554845
567.716260	2486.347488
568.072023	2488.184989
568.427732	2485.926552
568.783385	2487.877479
569.138982	2485.366984
569.494525	2488.928559
569.850013	2485.041830
570.205445	2485.669453
570.560823	2487.038127
570.916145	2484.714155
571.271412	2486.289515
571.626625	2487.829588
571.981782	2484.643578
572.336884	2484.411685
572.691931	2482.344812
573.046923	2485.172900
573.401860	2483.748774
573.756743	2484.608290
574.111570	2485.795482
574.466342	2483.083341
574.821059	2490.014928
575.175722	2484.623414
575.530330	2487.733806
575.884882	2488.210195
576.239380	2486.569299
576.593823	2487.413693
576.948211	2485.636686
577.302544	2486.692808
577.656823	2486.833960
578.011047	2486.992756
578.365216	2484.870430
578.719330	2486.695328
579.073389	2487.491830
579.427394	2487.759012
579.781344	2485.853455
580.135239	2484.605770
580.489080	2486.473517
580.842866	2485.319093
581.196597	2486.597026
581.550273	2484.179792
581.903895	2484.681387
582.257463	2484.028558
582.610975	2486.924701
582.964434	2484.676346
583.317837	2486.153404
583.671186	2487.496872
584.024481	2484.799854
584.377721	2487.423775
584.730906	2486.571820
585.084037	2487.277581
585.437113	2486.891933
585.790135	2489.402428
586.143103	2483.612663
586.496016	2485.291367
586.848874	2486.987715
587.201679	2489.538539
587.554428	2488.575678
587.907124	2486.879330
588.259765	2483.942858
588.612352	2484.154587
588.964884	2485.011583
589.317362	2488.207674
589.669786	2484.434371
590.022155	2484.202478
590.374470	2482.604432
590.726731	2484.537714
591.078937	2483.577374
591.431090	2486.970071
591.783188	2489.641883
592.135232	2488.172386
592.487222	2486.879330
592.839157	2488.694146
593.191038	2487.474186
593.542866	2485.437560
593.894639	2487.113744
594.246358	2488.179948
594.598022	2486.972592
594.949633	2488.679022
595.301190	2485.820688
595.652692	2488.734475
596.004141	2486.765904
596.355535	2485.974443
596.706876	2487.963178
597.058162	2488.202633
597.409395	2485.946717
597.760573	2486.067704
598.111698	2486.914618
598.462768	2486.990236
598.813785	2488.479897
599.164748	2486.004690
599.515657	2486.521408
599.866511	2484.283136
600.217312	2487.123826
600.568060	2487.764053
600.918753	2487.776656
601.269392	2486.166007
601.619978	2486.138281
601.970510	2486.912098
602.320988	2487.600215
602.671412	2486.496202
603.021783	2485.349340
603.372100	2486.773466
603.722363	2487.454022
604.072572	2486.329844
604.422728	2488.187510
604.772830	2487.985863
605.122878	2486.138281
605.472872	2487.814464
605.822813	2489.576348
606.172701	2486.559217
606.522534	2487.151553
606.872314	2486.087869
607.222041	2485.490492
607.571714	2485.366984
607.921333	2483.983187
608.270899	2487.756491
608.620411	2483.070738
608.969870	2486.039978
609.319276	2488.724393
609.668627	2486.506285
610.017926	2486.158445
610.367171	2484.799854
610.716362	2486.644917
611.065500	2485.198105
611.414585	2484.139463
611.763616	2487.418734
612.112594	2486.284474
612.461518	2485.417396
612.810389	2488.782366
613.159207	2486.796151
613.507971	2486.763384
613.856682	2489.919146
614.205340	2486.289515
614.553945	2486.584423
614.902496	2488.273209
615.250994	2484.341109
615.599439	2484.913280
615.947830	2488.991574
616.296169	2486.985194
616.644454	2485.268682
616.992686	2485.903867
617.340864	2486.934783
617.688990	2487.993425
618.037063	2486.768425
618.385082	2486.470997
618.733048	2488.149701
619.080961	2488.051398
619.428821	2482.831284
619.776628	2488.673981
620.124382	2485.997128
620.472083	2487.816985
620.819731	2486.476038
621.167326	2485.858497
621.514868	2488.946203
621.862357	2487.348157
622.209793	2485.820688
622.557176	2487.161635
622.904506	2487.176758
623.251783	2484.560399
623.599007	2488.124495
623.946179	2487.005359
624.293297	2487.948055
624.640363	2485.563589
624.987376	2485.031747
625.334336	2482.065028
625.681243	2484.570482
626.028097	2482.299442
626.374899	2485.228352
626.721647	2486.652478
627.068343	2487.441419
627.414987	2487.209526
627.761577	2485.936634
628.108115	2487.698518
628.454600	2487.779176
628.801032	2484.701552
629.147412	2486.967550
629.493739	2483.025368
629.840014	2490.110710
630.186236	2486.765904
630.532405	2485.934114
630.878521	2482.934627
631.224585	2489.901502
631.570597	2486.513847
631.916556	2485.959320
632.262462	2487.093579
632.608316	2486.556696
632.954117	2483.534525
633.299866	2482.430512
633.645562	2484.048722
633.991206	2485.477889
634.336797	2486.221460
634.682336	2487.416213
635.027823	2487.038127
635.373257	2484.668784
635.718639	2483.529483
636.063968	2488.363950
636.409245	2485.465287
636.754470	2485.263640
637.099642	2484.139463
637.444762	2485.621562
637.789829	2485.515698
638.134845	2487.330513
638.479808	2485.593836
638.824719	2488.641213
639.169577	2486.367653
639.514383	2489.377222
639.859137	2485.036788
640.203839	2485.513177
640.548489	2487.496872
640.893086	2488.449650
641.237632	2485.432519
641.582125	2485.820688
641.926566	2482.460759
642.270955	2486.483600
642.615292	2484.464618
642.959576	2482.370018
643.303809	2481.689462
643.647990	2487.698518
643.992118	2485.606439
644.336195	2489.115082
