Dividing Wavelength (nm)	Counts (n)	Blue Motor Position (mm): 9.000000	Red Motor Position (mm): 0.000000	
326.493990	2141.658594
326.888308	2141.658594
327.282561	2141.658594
327.676750	2105.863881
328.070874	2110.088368
328.464933	2108.896135
328.858929	2114.733792
329.252859	2128.138220
329.646726	2138.238171
330.040528	2152.297949
330.434265	2168.928716
330.827938	2182.864986
331.221547	2205.683769
331.615091	2222.571634
332.008571	2243.782289
332.401986	2263.596544
332.795338	2279.103133
333.188625	2299.247584
333.581847	2318.156952
333.975006	2336.416011
334.368100	2355.146418
334.761129	2371.126876
335.154095	2388.861655
335.546996	2408.771693
335.939833	2425.596543
336.332606	2439.527772
336.725315	2451.911367
337.117960	2461.025773
337.510540	2470.994654
337.903056	2480.194760
338.295508	2487.665750
338.687896	2496.039107
339.080220	2504.634274
339.472480	2509.967815
339.864676	2514.638444
340.256807	2520.027437
340.648875	2525.431554
341.040879	2523.460463
341.432818	2525.255114
341.824694	2526.275948
342.216506	2529.076308
342.608253	2529.318284
342.999937	2529.169570
343.391557	2526.568334
343.783113	2525.504651
344.174605	2526.165042
344.566033	2523.505833
344.957397	2521.572551
345.348697	2520.070287
345.739934	2517.935358
346.131106	2517.204391
346.522215	2515.276150
346.913260	2511.333968
347.304241	2514.169617
347.695159	2509.995541
348.086012	2509.289780
348.476802	2507.205262
348.867528	2506.151661
349.258191	2502.673265
349.648789	2500.286279
350.039324	2501.692761
350.429796	2502.466578
350.820203	2497.281751
351.210548	2498.703357
351.600828	2497.770743
351.991045	2497.717811
352.381198	2497.102790
352.771288	2493.929384
353.161314	2493.044661
353.551276	2495.562718
353.941175	2495.960969
354.331010	2494.786380
354.720782	2495.424086
355.110490	2496.359220
355.500135	2496.155053
355.889717	2497.291833
356.279235	2491.875114
356.668689	2495.756802
357.058080	2494.753613
357.447408	2494.592296
357.836672	2491.103817
358.225873	2492.888386
358.615010	2495.015752
359.004084	2499.031032
359.393095	2497.826196
359.782043	2498.587410
360.170927	2498.136227
360.559748	2497.465753
360.948505	2500.273676
361.337199	2499.948522
361.725830	2497.059940
362.114398	2501.730569
362.502903	2502.842144
362.891344	2504.109994
363.279722	2502.501866
363.668037	2503.759634
364.056289	2503.570591
364.444478	2503.530261
364.832603	2502.431290
365.220665	2505.937412
365.608665	2503.994047
365.996601	2505.927330
366.384474	2504.107473
366.772284	2506.461692
367.160031	2505.423215
367.547715	2505.440859
367.935336	2505.889521
368.322893	2505.093019
368.710388	2506.050838
369.097820	2513.405882
369.485189	2507.487567
369.872495	2507.714419
370.259738	2508.798267
370.646918	2506.991013
371.034035	2509.214162
371.421090	2510.119049
371.808081	2508.836076
372.195010	2509.758607
372.581875	2509.385562
372.968678	2507.752228
373.355418	2508.505880
373.742096	2508.636950
374.128710	2511.523011
374.515262	2512.190964
374.901751	2510.378669
375.288177	2511.974194
375.674540	2511.407064
376.060841	2510.139214
376.447079	2513.047960
376.833254	2510.925634
377.219367	2507.399347
377.605417	2513.005110
377.991404	2510.202228
378.377329	2510.202228
378.763191	2509.955212
379.148991	2512.029647
379.534727	2512.145593
379.920402	2514.179699
380.306013	2513.201715
380.691563	2516.569206
381.077049	2513.446211
381.462474	2514.381345
381.847835	2513.501664
382.233134	2516.561644
382.618371	2516.816222
383.003545	2519.977026
383.388657	2516.480986
383.773706	2516.763290
384.158693	2516.128105
384.543618	2515.422343
384.928480	2517.547190
385.313280	2518.079031
385.698017	2519.082221
386.082692	2517.963085
386.467305	2518.467200
386.851856	2517.763959
387.236344	2516.533918
387.620770	2519.500637
388.005133	2518.497447
388.389435	2518.479803
388.773674	2517.947961
389.157851	2517.348064
389.541965	2517.035513
389.926018	2520.118178
390.310008	2518.885616
390.693936	2521.186903
391.077802	2521.438960
391.461606	2521.501975
391.845348	2520.677746
392.229027	2521.310411
392.612645	2520.060205
392.996200	2522.331245
393.379694	2523.009280
393.763125	2525.224867
394.146494	2522.497603
394.529801	2523.321831
394.913047	2521.983405
395.296230	2523.170597
395.679351	2523.841070
396.062410	2520.834022
396.445408	2522.248066
396.828343	2525.663447
397.211217	2516.241531
397.594028	2520.672705
397.976778	2520.675226
398.359466	2523.901564
398.742092	2519.891326
399.124656	2523.382325
399.507158	2526.374250
399.889598	2524.100690
400.271977	2525.774353
400.654294	2522.832839
401.036549	2524.009949
401.418742	2527.135464
401.800874	2524.161183
402.182944	2525.625639
402.564952	2527.185876
402.946898	2524.796369
403.328783	2526.066740
403.710606	2525.197141
404.092367	2525.315608
404.474067	2528.234436
404.855705	2526.928777
405.237282	2527.289219
405.618797	2527.422810
406.000250	2527.374919
406.381642	2526.951462
406.762972	2525.711338
407.144240	2527.826102
407.525447	2528.068078
407.906593	2527.783253
408.287677	2527.861390
408.668700	2526.427182
409.049661	2529.492204
409.430560	2527.664785
409.811399	2529.822399
410.192176	2525.897861
410.572891	2531.997657
410.953545	2528.012625
411.334138	2529.242667
411.714669	2530.631504
412.095139	2528.095804
412.475547	2531.727955
412.855894	2530.195445
413.236180	2530.313912
413.616405	2530.495393
413.996568	2531.606968
414.376670	2532.340456
414.756711	2530.765095
415.136691	2530.172759
415.516609	2531.518747
415.896466	2528.917512
416.276262	2534.591331
416.655997	2525.492048
417.035670	2529.502286
417.415283	2529.414066
417.794834	2525.229908
418.174324	2527.959693
418.553753	2529.540095
418.933121	2532.526978
419.312428	2532.746268
419.691674	2533.459592
420.070859	2531.032276
420.449983	2532.466484
420.829045	2531.400280
421.208047	2534.069571
421.586988	2531.964890
421.965867	2532.350538
422.344686	2532.499252
422.723444	2533.174767
423.102141	2533.177287
423.480777	2533.772143
423.859352	2533.714170
424.237866	2535.914634
424.616319	2533.177287
424.994712	2534.740045
425.373044	2535.125693
425.751314	2534.243491
426.129524	2533.895652
426.507673	2535.297092
426.885762	2534.344314
427.263789	2535.138296
427.641756	2532.824406
428.019662	2534.346835
428.397508	2536.932947
428.775292	2534.729962
429.153016	2535.879346
429.530679	2538.626774
429.908282	2533.136958
430.285824	2536.272556
430.663305	2535.158461
431.040726	2534.808100
431.418086	2535.871784
431.795385	2534.896321
432.172624	2535.145858
432.549802	2536.885056
432.926920	2536.380940
433.303977	2538.309182
433.680974	2537.225334
434.057910	2538.339429
434.434786	2536.045704
434.811601	2539.108205
435.188355	2538.120138
435.565050	2538.011754
435.941683	2537.522762
436.318257	2534.704757
436.694770	2534.092257
437.071222	2533.739376
437.447614	2535.448327
437.823946	2534.268697
438.200218	2535.725590
438.576429	2536.380940
438.952580	2537.011085
439.328670	2539.236754
439.704700	2538.273894
440.080670	2540.171888
440.456580	2538.402443
440.832429	2538.866229
441.208218	2538.702392
441.583947	2536.459078
441.959616	2539.261960
442.335224	2536.590148
442.710773	2538.220962
443.086261	2537.280786
443.461689	2536.539737
443.837057	2540.353370
444.212365	2539.246836
444.587612	2539.705581
444.962800	2539.514018
445.337927	2538.152906
445.712995	2538.026877
446.088002	2539.556867
446.462949	2540.544933
446.837837	2542.430325
447.212664	2540.716333
447.587431	2540.708771
447.962139	2539.609799
448.336786	2541.780016
448.711374	2539.226672
449.085901	2543.783875
449.460369	2539.211548
449.834776	2541.464944
450.209124	2537.013605
450.583412	2542.742877
450.957640	2540.250026
451.331808	2540.171888
451.705917	2542.410160
452.079965	2541.810263
452.453954	2539.929913
452.827883	2544.179605
453.201752	2538.026877
453.575562	2541.139790
453.949311	2540.358411
454.323001	2542.468134
454.696632	2538.974614
455.070202	2542.145500
455.443713	2543.388144
455.817164	2537.305992
456.190556	2538.092412
456.563888	2538.392361
456.937160	2537.575694
457.310373	2542.016950
457.683526	2542.059800
458.056619	2542.450490
458.429653	2539.955118
458.802628	2543.375541
459.175542	2539.657690
459.548398	2543.995603
459.921194	2541.154913
460.293930	2543.602393
460.666607	2541.371683
461.039224	2540.020653
461.411782	2542.095088
461.784280	2542.652136
462.156719	2541.633823
462.529099	2544.814791
462.901419	2543.037784
463.273680	2541.787578
463.645882	2547.111036
464.018024	2543.690613
464.390106	2544.890408
464.762130	2544.729091
465.134094	2546.732950
465.505999	2543.259595
465.877845	2544.993752
466.249631	2543.630120
466.621358	2544.517363
466.993026	2547.562220
467.364634	2543.806560
467.736184	2542.039636
468.107674	2546.208670
468.479105	2544.978628
468.850477	2543.385624
469.221790	2546.286808
469.593043	2543.846889
469.964238	2545.233207
470.335373	2546.443083
470.706449	2544.116591
471.077467	2543.758669
471.448425	2546.450645
471.819324	2541.207845
472.190164	2542.568957
472.560945	2544.393854
472.931667	2541.868236
473.302330	2544.131714
473.672934	2545.190357
474.043479	2544.847558
474.413965	2545.533155
474.784393	2542.861344
475.154761	2544.812270
475.525070	2539.733308
475.895321	2544.000644
476.265513	2540.623071
476.635645	2546.390151
477.005719	2546.155738
477.375734	2544.716488
477.745691	2544.726571
478.115588	2546.032229
478.485427	2545.903680
478.855207	2546.556509
479.224928	2548.986346
479.594591	2543.355377
479.964194	2547.471479
480.333739	2545.001313
480.703226	2547.007693
481.072653	2548.429298
481.442022	2546.145655
481.811333	2547.587425
482.180584	2547.683207
482.549777	2546.473330
482.918912	2549.271171
483.287988	2548.313352
483.657005	2544.988711
484.025964	2551.065822
484.394864	2547.597508
484.763706	2547.095913
485.132489	2548.351160
485.501213	2548.676315
485.869879	2546.296890
486.238487	2545.286139
486.607036	2548.280584
486.975527	2548.595656
487.343959	2546.095244
487.712333	2547.847045
488.080648	2547.665563
488.448905	2546.243958
488.817104	2547.151366
489.185244	2548.666232
489.553326	2549.477858
489.921350	2548.933413
490.289315	2545.893598
490.657222	2549.835780
491.025070	2547.506767
491.392861	2548.676315
491.760593	2550.483568
492.128267	2547.622713
492.495883	2547.950388
492.863440	2549.860986
493.230939	2550.297046
493.598380	2549.664381
493.965763	2543.148689
494.333088	2547.597508
494.700354	2545.462579
495.067563	2545.656663
495.434713	2545.155069
495.801805	2551.499361
496.168839	2547.771428
496.535815	2548.699000
496.902733	2548.595656
497.269593	2548.991387
497.636395	2548.885522
498.003139	2548.356201
498.369825	2548.504915
498.736453	2549.392158
499.103023	2548.081458
499.469535	2549.230842
499.835989	2548.774617
500.202385	2549.074566
500.568723	2547.244627
500.935003	2549.314021
501.301226	2547.090872
501.667390	2549.745039
502.033497	2551.527087
502.399546	2550.024823
502.765537	2548.588094
503.131470	2550.342416
503.497345	2548.840152
503.863163	2549.097251
504.228923	2549.218239
504.594625	2549.054401
504.960269	2545.838145
505.325856	2550.264278
505.691385	2547.068187
506.056856	2549.147663
506.422270	2548.109185
506.787625	2550.377704
507.152924	2546.455686
507.518164	2551.348126
507.883347	2546.783361
508.248472	2548.893084
508.613540	2550.964998
508.978550	2547.985677
509.343503	2549.540873
509.708398	2548.973743
510.073236	2553.263765
510.438016	2549.492982
510.802738	2548.199926
511.167403	2548.756973
511.532010	2549.583722
511.896561	2550.692776
512.261053	2553.107489
512.625488	2549.520708
512.989866	2546.138094
513.354186	2545.356715
513.718449	2546.705223
514.082655	2549.394679
514.446803	2552.363919
514.810894	2547.847045
515.174927	2553.147818
515.538904	2550.503733
515.902822	2550.496171
516.266684	2547.579864
516.630488	2552.568085
516.994235	2551.653116
517.357925	2549.838301
517.721558	2552.063970
518.085133	2551.438867
518.448651	2551.930379
518.812112	2549.475337
519.175516	2548.590615
519.538863	2551.721172
519.902152	2552.454659
520.265385	2548.656150
520.628560	2552.560524
520.991678	2549.540873
521.354739	2550.801161
521.717743	2548.799823
522.080690	2550.959957
522.443580	2551.564896
522.806413	2551.184289
523.169189	2549.792930
523.531908	2550.657488
523.894569	2549.233362
524.257174	2553.064639
524.619722	2551.789227
524.982213	2553.331820
525.344647	2551.297715
525.707025	2553.077242
526.069345	2548.875440
526.431608	2552.648744
526.793815	2550.624721
527.155964	2554.045143
527.518057	2552.923487
527.880093	2552.779814
528.242072	2550.702858
528.603995	2553.377191
528.965860	2551.660678
529.327669	2550.286963
529.689421	2550.788558
530.051117	2553.241079
530.412755	2551.718651
530.774337	2553.329300
531.135862	2555.005483
531.497331	2552.583209
531.858743	2549.024154
532.220098	2550.072714
532.581396	2547.877292
532.942638	2549.160265
533.303824	2550.851572
533.664953	2555.081101
534.026025	2552.497509
534.387040	2553.702345
534.747999	2553.659495
535.108902	2554.612273
535.469748	2553.639331
535.830537	2557.737789
536.191270	2552.210163
536.551947	2555.416337
536.912567	2553.495658
537.273131	2556.225443
537.633638	2556.785011
537.994089	2555.696121
538.354483	2555.910370
538.714821	2557.130330
539.075103	2557.170659
539.435328	2555.000442
539.795497	2556.721996
540.155609	2558.841801
540.515665	2557.848694
540.875665	2555.693601
541.235609	2557.788200
541.595496	2559.338355
541.955328	2556.837943
542.315102	2559.804662
542.674821	2557.256358
543.034483	2560.122254
543.394090	2558.660320
543.753640	2560.558314
544.113134	2557.883982
544.472571	2560.671740
544.831953	2560.828016
545.191278	2559.406411
545.550548	2559.003118
545.909761	2558.317521
546.268918	2558.478838
546.628019	2558.559497
546.987064	2559.209806
547.346053	2561.498489
547.704986	2560.064281
548.063863	2561.115362
548.422684	2560.507903
548.781449	2562.489076
549.140158	2562.509241
549.498811	2563.111659
549.857408	2560.880948
550.215949	2559.116544
550.574434	2557.175700
550.932864	2558.665361
551.291237	2556.525391
551.649555	2561.591751
552.007817	2559.953376
552.366022	2560.800290
552.724173	2562.244580
553.082267	2559.948335
553.440305	2560.502862
553.798288	2565.176011
554.156215	2562.171483
554.514086	2560.457491
554.871902	2563.255332
555.229661	2561.465722
555.587365	2562.536967
555.945014	2561.067471
556.302606	2558.267110
556.660143	2564.132492
557.017625	2561.317008
557.375050	2562.673078
557.732421	2562.110990
558.089735	2563.431772
558.446994	2560.812892
558.804197	2561.170814
559.161345	2558.677964
559.518437	2561.722821
559.875474	2562.476473
560.232455	2562.347924
560.589381	2559.613098
560.946251	2563.497307
561.303065	2560.689384
561.659825	2561.735424
562.016528	2560.119734
562.373177	2559.877758
562.729770	2560.084446
563.086307	2561.314487
563.442789	2562.244580
563.799216	2560.528067
564.155587	2561.367419
564.511904	2560.177707
564.868164	2559.860114
565.224370	2559.610577
565.580520	2563.295661
565.936615	2561.387584
566.292654	2561.138047
566.648638	2559.537481
567.004567	2563.139385
567.360441	2559.895403
567.716260	2558.173848
568.072023	2559.136709
568.427732	2558.035217
568.783385	2558.090669
569.138982	2552.563044
569.494525	2555.663354
569.850013	2555.229815
570.205445	2561.455640
570.560823	2559.134188
570.916145	2559.963458
571.271412	2561.750547
571.626625	2559.585372
571.981782	2557.813406
572.336884	2560.810372
572.691931	2558.181410
573.046923	2560.399518
573.401860	2558.483879
573.756743	2560.815413
574.111570	2560.770043
574.466342	2556.603529
574.821059	2560.011349
575.175722	2558.735937
575.530330	2559.446740
575.884882	2560.523026
576.239380	2559.303067
576.593823	2559.426575
576.948211	2558.365412
577.302544	2555.988508
577.656823	2559.466904
578.011047	2559.262738
578.365216	2560.152501
578.719330	2557.906667
579.073389	2557.818447
579.427394	2555.600339
579.781344	2558.917419
580.135239	2558.897254
580.489080	2557.379867
580.842866	2558.758622
581.196597	2563.212482
581.550273	2558.746019
581.903895	2559.285423
582.257463	2556.258210
582.610975	2557.551266
582.964434	2556.104455
583.317837	2557.871379
583.671186	2556.658982
584.024481	2557.944476
584.377721	2558.577141
584.730906	2556.575803
585.084037	2558.700649
585.437113	2554.629917
585.790135	2557.936914
586.143103	2556.943807
586.496016	2559.159394
586.848874	2555.302911
587.201679	2555.527243
587.554428	2553.609084
587.907124	2555.945658
588.259765	2551.393497
588.612352	2558.519167
588.964884	2557.614280
589.317362	2556.036399
589.669786	2555.353323
590.022155	2559.461863
590.374470	2558.002449
590.726731	2556.883313
591.078937	2556.152346
591.431090	2557.780638
591.783188	2558.582182
592.135232	2556.086811
592.487222	2557.369784
592.839157	2557.815927
593.191038	2558.138560
593.542866	2558.002449
593.894639	2556.326266
594.246358	2558.105793
594.598022	2557.783159
594.949633	2555.849877
595.301190	2555.113868
595.652692	2558.156204
596.004141	2556.621173
596.355535	2556.893395
596.706876	2554.897098
597.058162	2555.577654
597.409395	2555.683518
597.760573	2557.505896
598.111698	2555.744012
598.462768	2556.744681
598.813785	2556.951369
599.164748	2558.577141
599.515657	2554.881975
599.866511	2554.786193
600.217312	2555.055895
600.568060	2555.673436
600.918753	2557.331976
601.269392	2554.939948
601.619978	2556.185113
601.970510	2556.900957
602.320988	2557.964641
602.671412	2558.861966
603.021783	2557.102603
603.372100	2555.386090
603.722363	2556.792572
604.072572	2559.862635
604.422728	2559.517316
604.772830	2557.573951
605.122878	2554.045143
605.472872	2553.911553
605.822813	2551.973229
606.172701	2554.375339
606.522534	2556.883313
606.872314	2558.960268
607.222041	2558.357851
607.571714	2558.786349
607.921333	2557.904147
608.270899	2561.395146
608.620411	2560.533108
608.969870	2558.874569
609.319276	2561.695094
609.668627	2562.718449
610.017926	2564.182904
610.367171	2568.331773
610.716362	2567.641135
611.065500	2563.202399
611.414585	2563.767009
611.763616	2564.190466
612.112594	2559.325752
612.461518	2559.771894
612.810389	2561.546380
613.159207	2561.702656
613.507971	2559.540001
613.856682	2559.779456
614.205340	2557.883982
614.553945	2560.820454
614.902496	2560.452450
615.250994	2558.050340
615.599439	2559.088818
615.947830	2558.932542
616.296169	2559.698798
616.644454	2560.737275
616.992686	2561.317008
617.340864	2561.160732
617.688990	2561.052347
618.037063	2561.599313
618.385082	2563.439334
618.733048	2559.466904
619.080961	2561.977399
619.428821	2560.177707
619.776628	2561.284240
620.124382	2563.893037
620.472083	2564.165260
620.819731	2562.728531
621.167326	2562.655434
621.514868	2562.194169
621.862357	2562.063099
622.209793	2564.308933
622.557176	2565.324725
622.904506	2558.577141
623.251783	2556.618653
623.599007	2558.549414
623.946179	2558.924980
624.293297	2560.235680
624.640363	2561.218705
624.987376	2561.188458
625.334336	2561.811041
625.681243	2563.598130
626.028097	2560.638973
626.374899	2559.865156
626.721647	2564.545867
627.068343	2563.603171
627.414987	2560.913716
627.761577	2564.152657
628.108115	2561.309446
628.454600	2563.787173
628.801032	2564.739951
629.147412	2565.695250
629.493739	2563.789694
629.840014	2564.636608
630.186236	2565.518810
630.532405	2561.059909
630.878521	2564.225754
631.224585	2562.902451
631.570597	2565.296999
631.916556	2567.512586
632.262462	2564.881104
632.608316	2565.503686
632.954117	2564.760116
633.299866	2566.380847
633.645562	2567.520148
633.991206	2565.760785
634.336797	2565.508727
634.682336	2565.881773
635.027823	2567.016032
635.373257	2568.619119
635.718639	2565.775908
636.063968	2567.016032
636.409245	2565.324725
636.754470	2568.624160
637.099642	2565.838923
637.444762	2568.228430
637.789829	2565.866649
638.134845	2568.016701
638.479808	2568.903944
638.824719	2567.530230
639.169577	2567.875549
639.514383	2571.321178
639.859137	2566.378326
640.203839	2568.982082
640.548489	2565.816238
640.893086	2570.809501
641.237632	2567.459654
641.582125	2568.228430
641.926566	2565.957390
642.270955	2571.648853
642.615292	2572.868812
642.959576	2573.640108
643.303809	2573.609862
643.647990	2575.883422
643.992118	2574.504666
644.336195	2573.907290
