Dividing Wavelength (nm)	Counts (n)	Blue Motor Position (mm): 4.800000	Red Motor Position (mm): 0.000000	
326.493990	2143.589356
326.888308	2143.589356
327.282561	2143.589356
327.676750	2110.186671
328.070874	2109.586773
328.464933	2113.670108
328.858929	2115.409306
329.252859	2128.997736
329.646726	2138.008799
330.040528	2152.640748
330.434265	2170.541885
330.827938	2186.686180
331.221547	2206.384489
331.615091	2223.158928
332.008571	2241.417988
332.401986	2264.241812
332.795338	2282.478186
333.188625	2301.158181
333.581847	2318.938331
333.975006	2338.729901
334.368100	2357.941738
334.761129	2373.004706
335.154095	2391.656975
335.546996	2411.456107
335.939833	2422.244176
336.332606	2439.520210
336.725315	2450.124277
337.117960	2459.634414
337.510540	2468.567339
337.903056	2478.949595
338.295508	2486.750781
338.687896	2492.207830
339.080220	2504.369613
339.472480	2507.515293
339.864676	2514.492250
340.256807	2516.571726
340.648875	2523.228570
341.040879	2522.295957
341.432818	2522.840401
341.824694	2528.045393
342.216506	2528.189065
342.608253	2529.028418
342.999937	2527.357275
343.391557	2525.199661
343.783113	2526.091945
344.174605	2522.641276
344.566033	2524.889630
344.957397	2521.945596
345.348697	2519.238497
345.739934	2517.426202
346.131106	2515.666839
346.522215	2515.429905
346.913260	2512.944616
347.304241	2511.853206
347.695159	2509.095695
348.086012	2507.848010
348.476802	2506.333143
348.867528	2504.568739
349.258191	2501.843995
349.648789	2502.096053
350.039324	2499.910713
350.429796	2500.661845
350.820203	2497.644714
351.210548	2498.841988
351.600828	2496.865856
351.991045	2496.540702
352.381198	2495.459374
352.771288	2495.897954
353.161314	2493.155567
353.551276	2498.080774
353.941175	2491.146667
354.331010	2494.315032
354.720782	2495.429127
355.110490	2494.531802
355.500135	2491.933087
355.889717	2495.222440
356.279235	2493.846205
356.668689	2493.904178
357.058080	2493.652120
357.447408	2493.672285
357.836672	2491.544918
358.225873	2493.795793
358.615010	2491.731441
359.004084	2497.112873
359.393095	2498.214365
359.782043	2499.373830
360.170927	2500.563542
360.559748	2497.392657
360.948505	2499.101608
361.337199	2502.998420
361.725830	2499.613285
362.114398	2500.014057
362.502903	2500.682009
362.891344	2501.692761
363.279722	2504.178050
363.668037	2500.823162
364.056289	2502.315343
364.444478	2501.743172
364.832603	2502.322905
365.220665	2504.909017
365.608665	2504.750221
365.996601	2506.423884
366.384474	2505.604696
366.772284	2505.193842
367.160031	2506.456651
367.547715	2507.356497
367.935336	2506.494460
368.322893	2505.035046
368.710388	2510.149296
369.097820	2511.437311
369.485189	2507.112001
369.872495	2508.558812
370.259738	2510.053514
370.646918	2508.049656
371.034035	2508.641991
371.421090	2508.032012
371.808081	2508.926817
372.195010	2511.512928
372.581875	2509.181395
372.968678	2511.084430
373.355418	2508.455469
373.742096	2511.646519
374.128710	2511.454955
374.515262	2512.785820
374.901751	2514.134328
375.288177	2511.447393
375.674540	2513.158865
376.060841	2510.058556
376.447079	2514.789678
376.833254	2511.250788
377.219367	2509.309944
377.605417	2508.294152
377.991404	2511.427229
378.377329	2507.618637
378.763191	2511.288597
379.148991	2515.903773
379.534727	2514.454442
379.920402	2515.586181
380.306013	2514.648526
380.691563	2513.486540
381.077049	2516.231448
381.462474	2515.142559
381.847835	2516.808661
382.233134	2514.950995
382.618371	2513.491581
383.003545	2516.962416
383.388657	2514.822446
383.773706	2515.810512
384.158693	2516.720440
384.543618	2518.119361
384.928480	2518.666326
385.313280	2516.470903
385.698017	2517.826974
386.082692	2517.927797
386.467305	2518.066428
386.851856	2516.491068
387.236344	2516.559123
387.620770	2519.200688
388.005133	2518.983918
388.389435	2519.551048
388.773674	2519.654392
389.157851	2516.201202
389.541965	2519.135153
389.926018	2517.753877
390.310008	2516.276819
390.693936	2518.958713
391.077802	2520.261851
391.461606	2522.122037
391.845348	2521.290246
392.229027	2518.923425
392.612645	2522.674043
392.996200	2522.472397
393.379694	2521.920391
393.763125	2521.643127
394.146494	2520.990298
394.529801	2523.150432
394.913047	2522.611029
395.296230	2522.956348
395.679351	2520.307221
396.062410	2522.931142
396.445408	2522.162366
396.828343	2522.127078
397.211217	2518.661285
397.594028	2518.696573
397.976778	2520.387880
398.359466	2521.348220
398.742092	2519.921573
399.124656	2523.384846
399.507158	2522.938704
399.889598	2524.929959
400.271977	2526.885927
400.654294	2523.271420
401.036549	2524.304856
401.418742	2524.425844
401.800874	2522.948786
402.182944	2523.720082
402.564952	2524.408200
402.946898	2523.515916
403.328783	2526.439785
403.710606	2525.829805
404.092367	2527.034641
404.474067	2527.979857
404.855705	2527.011956
405.237282	2529.313243
405.618797	2529.061185
406.000250	2525.645803
406.381642	2528.562111
406.762972	2525.744106
407.144240	2526.217974
407.525447	2528.756195
407.906593	2527.072450
408.287677	2526.008766
408.668700	2526.346524
409.049661	2527.906761
409.430560	2528.259642
409.811399	2526.933818
410.192176	2531.027235
410.572891	2528.763757
410.953545	2526.578417
411.334138	2528.615043
411.714669	2527.642100
412.095139	2528.894827
412.475547	2530.654190
412.855894	2528.191586
413.236180	2528.509179
413.616405	2530.457585
413.996568	2528.509179
414.376670	2530.669313
414.756711	2530.180321
415.136691	2531.818696
415.516609	2533.499921
415.896466	2534.089736
416.276262	2530.147554
416.655997	2527.178314
417.035670	2529.313243
417.415283	2530.646628
417.794834	2529.986237
418.174324	2531.165867
418.553753	2530.583613
418.933121	2532.922709
419.312428	2532.199303
419.691674	2530.641587
420.070859	2531.226361
420.449983	2531.609488
420.829045	2532.058151
421.208047	2529.272913
421.586988	2533.162164
421.965867	2532.060672
422.344686	2534.314067
422.723444	2532.506814
423.102141	2533.462112
423.480777	2531.533871
423.859352	2534.800539
424.237866	2531.937163
424.616319	2533.177287
424.994712	2535.433203
425.373044	2535.173584
425.751314	2533.835158
426.129524	2536.597710
426.507673	2535.304654
426.885762	2533.227699
427.263789	2535.728111
427.641756	2532.635363
428.019662	2537.013605
428.397508	2533.741896
428.775292	2534.949253
429.153016	2537.283307
429.530679	2536.333049
429.908282	2536.406146
430.285824	2535.244160
430.663305	2533.295754
431.040726	2534.702236
431.418086	2534.460261
431.795385	2534.745086
432.172624	2535.155940
432.549802	2536.423790
432.926920	2534.349355
433.303977	2539.629964
433.680974	2534.399767
434.057910	2538.641898
434.434786	2536.234747
434.811601	2536.743903
435.188355	2536.791794
435.565050	2539.105684
435.941683	2541.404450
436.318257	2534.238450
436.694770	2532.292565
437.071222	2536.264994
437.447614	2532.653007
437.823946	2535.004705
438.200218	2537.933616
438.576429	2540.527289
438.952580	2541.046528
439.328670	2539.088040
439.704700	2538.505787
440.080670	2538.369676
440.456580	2540.222300
440.832429	2539.418236
441.208218	2535.259284
441.583947	2539.574511
441.959616	2538.667104
442.335224	2538.687268
442.710773	2539.997968
443.086261	2539.476209
443.461689	2539.456044
443.837057	2540.260108
444.212365	2539.574511
444.587612	2537.588297
444.962800	2537.931095
445.337927	2541.827907
445.712995	2539.992927
446.088002	2537.585776
446.462949	2539.808925
446.837837	2540.297917
447.212664	2540.209697
447.587431	2538.901517
447.962139	2541.689275
448.336786	2541.764893
448.711374	2541.351518
449.085901	2541.664070
449.460369	2540.307999
449.834776	2539.680376
450.209124	2540.181970
450.583412	2541.669111
450.957640	2539.536703
451.331808	2540.784388
451.705917	2539.826569
452.079965	2543.574667
452.453954	2541.424615
452.827883	2541.379244
453.201752	2543.362938
453.575562	2541.653987
453.949311	2540.439069
454.323001	2540.184491
454.696632	2539.700540
455.070202	2545.215562
455.443713	2543.299924
455.817164	2540.751621
456.190556	2537.545447
456.563888	2539.030067
456.937160	2537.913451
457.310373	2543.564585
457.683526	2542.142979
458.056619	2542.715150
458.429653	2543.272198
458.802628	2543.846889
459.175542	2540.794471
459.548398	2544.252702
459.921194	2544.081303
460.293930	2544.855120
460.666607	2543.791437
461.039224	2544.109029
461.411782	2543.609955
461.784280	2543.521735
462.156719	2543.945192
462.529099	2544.222455
462.901419	2540.144162
463.273680	2544.973587
463.645882	2545.369318
464.018024	2544.706406
464.390106	2544.081303
464.762130	2543.488967
465.134094	2544.371169
465.505999	2543.367980
465.877845	2543.259595
466.249631	2542.568957
466.621358	2544.361087
466.993026	2545.228165
467.364634	2545.848227
467.736184	2545.482744
468.107674	2543.224307
468.479105	2546.299411
468.850477	2546.259081
469.221790	2546.667415
469.593043	2543.383103
469.964238	2545.029040
470.335373	2545.986859
470.706449	2546.687579
471.077467	2544.522404
471.448425	2546.654812
471.819324	2546.269164
472.190164	2545.127342
472.560945	2547.416026
472.931667	2544.698844
473.302330	2543.461241
473.672934	2545.407126
474.043479	2544.020809
474.413965	2547.715975
474.784393	2540.126518
475.154761	2542.347146
475.525070	2543.118442
475.895321	2541.424615
476.265513	2542.573998
476.635645	2546.768238
477.005719	2545.167672
477.375734	2547.597508
477.745691	2546.022147
478.115588	2545.011396
478.485427	2545.878474
478.855207	2544.277908
479.224928	2547.247148
479.594591	2547.655481
479.964194	2546.967363
480.333739	2544.204811
480.703226	2546.312013
481.072653	2547.141283
481.442022	2545.840666
481.811333	2545.119781
482.180584	2546.102806
482.549777	2546.644730
482.918912	2546.344781
483.287988	2547.143804
483.657005	2549.326623
484.025964	2546.047353
484.394864	2548.590615
484.763706	2546.438042
485.132489	2545.815460
485.501213	2546.017106
485.869879	2548.509957
486.238487	2547.980635
486.607036	2548.903167
486.975527	2548.792261
487.343959	2548.875440
487.712333	2547.373176
488.080648	2545.371838
488.448905	2546.259081
488.817104	2546.324616
489.185244	2545.709596
489.553326	2548.210008
489.921350	2547.100954
490.289315	2547.738660
490.657222	2546.183464
491.025070	2545.006355
491.392861	2548.850234
491.760593	2547.935265
492.128267	2548.746891
492.495883	2548.509957
492.863440	2550.259237
493.230939	2546.846376
493.598380	2550.665050
493.965763	2544.169523
494.333088	2544.262784
494.700354	2544.585418
495.067563	2545.298742
495.434713	2544.519883
495.801805	2549.051881
496.168839	2548.688917
496.535815	2549.220759
496.902733	2546.493495
497.269593	2550.975081
497.636395	2548.454504
498.003139	2548.232693
498.369825	2549.243444
498.736453	2549.251006
499.103023	2547.479041
499.469535	2546.667415
499.835989	2546.133052
500.202385	2550.526418
500.568723	2549.616490
500.935003	2548.525080
501.301226	2547.819318
501.667390	2550.246634
502.033497	2549.946685
502.399546	2548.083979
502.765537	2548.888043
503.131470	2548.303269
503.497345	2549.689587
503.863163	2550.778476
504.228923	2550.191181
504.594625	2550.518856
504.960269	2550.740667
505.325856	2547.156407
505.691385	2549.397200
506.056856	2548.595656
506.422270	2548.648588
506.787625	2549.261088
507.152924	2548.310831
507.518164	2549.311500
507.883347	2549.238403
508.248472	2549.041798
508.613540	2548.459545
508.978550	2549.072045
509.343503	2545.661705
509.708398	2551.862324
510.073236	2547.153886
510.438016	2548.386448
510.802738	2547.161448
511.167403	2547.889895
511.532010	2549.288815
511.896561	2550.717982
512.261053	2549.858465
512.625488	2548.346119
512.989866	2545.533155
513.354186	2549.513146
513.718449	2542.684903
514.082655	2548.245296
514.446803	2547.869730
514.810894	2547.647919
515.174927	2552.953734
515.538904	2549.525749
515.902822	2551.305276
516.266684	2548.635985
516.630488	2550.062632
516.994235	2549.624052
517.357925	2550.670091
517.721558	2551.307797
518.085133	2549.344267
518.448651	2549.510626
518.812112	2551.607746
519.175516	2551.932900
519.538863	2548.923331
519.902152	2548.789741
520.265385	2550.231511
520.628560	2550.778476
520.991678	2549.732436
521.354739	2552.862993
521.717743	2550.627241
522.080690	2547.859648
522.443580	2550.360060
522.806413	2551.214536
523.169189	2549.513146
523.531908	2549.218239
523.894569	2551.436346
524.257174	2552.399207
524.619722	2552.187478
524.982213	2553.165462
525.344647	2550.428116
525.707025	2553.082283
526.069345	2550.221428
526.431608	2549.155224
526.793815	2549.288815
527.155964	2552.908363
527.518057	2551.572457
527.880093	2552.406768
528.242072	2550.261757
528.603995	2551.005328
528.965860	2551.887530
529.327669	2551.343085
529.689421	2551.963147
530.051117	2551.774104
530.412755	2550.050029
530.774337	2550.412992
531.135862	2550.632282
531.497331	2548.860317
531.858743	2547.088351
532.220098	2549.324103
532.581396	2546.473330
532.942638	2547.768907
533.303824	2550.339895
533.664953	2551.123795
534.026025	2550.496171
534.387040	2552.535318
534.747999	2549.364432
535.108902	2551.721172
535.469748	2549.868547
535.830537	2550.675132
536.191270	2549.074566
536.551947	2552.898281
536.912567	2550.360060
537.273131	2551.189330
537.633638	2550.874258
537.994089	2553.064639
538.354483	2549.455173
538.714821	2549.606408
539.075103	2549.233362
539.435328	2552.028682
539.795497	2550.024823
540.155609	2551.980791
540.515665	2550.760832
540.875665	2554.549259
541.235609	2552.671429
541.595496	2551.698486
541.955328	2552.961295
542.315102	2553.457849
542.674821	2552.013558
543.034483	2551.262427
543.394090	2550.556665
543.753640	2550.954916
544.113134	2554.529094
544.472571	2551.247303
544.831953	2554.627397
545.191278	2552.520194
545.550548	2551.612787
545.909761	2550.982642
546.268918	2552.310987
546.628019	2551.385935
546.987064	2552.280740
547.346053	2552.000956
547.704986	2553.188147
548.063863	2552.542880
548.422684	2550.609597
548.781449	2554.531615
549.140158	2549.760163
549.498811	2553.404917
549.857408	2550.294525
550.215949	2548.792261
550.574434	2546.183464
550.932864	2549.881150
551.291237	2547.630275
551.649555	2551.993394
552.007817	2554.554300
552.366022	2552.401727
552.724173	2551.219577
553.082267	2551.149001
553.440305	2550.770914
553.798288	2552.346275
554.156215	2549.515667
554.514086	2553.233518
554.871902	2549.944165
555.229661	2550.770914
555.587365	2554.571944
555.945014	2555.244938
556.302606	2551.695966
556.660143	2553.039433
557.017625	2549.840821
557.375050	2550.952396
557.732421	2550.342416
558.089735	2552.870555
558.446994	2550.836449
558.804197	2554.095555
559.161345	2550.922149
559.518437	2552.414330
559.875474	2551.917777
560.232455	2551.269988
560.589381	2552.666388
560.946251	2555.121430
561.303065	2553.185627
561.659825	2552.167314
562.016528	2552.532797
562.373177	2553.079762
562.729770	2550.826367
563.086307	2551.806871
563.442789	2551.819474
563.799216	2549.994576
564.155587	2551.446429
564.511904	2550.360060
564.868164	2549.613969
565.224370	2552.071532
565.580520	2551.983312
565.936615	2555.910370
566.292654	2552.174875
566.648638	2551.925338
567.004567	2553.785524
567.360441	2551.801830
567.716260	2552.189999
568.072023	2550.813764
568.427732	2547.184133
568.783385	2548.915769
569.138982	2548.227652
569.494525	2550.990204
569.850013	2548.583053
570.205445	2550.884340
570.560823	2552.865513
570.916145	2549.452652
571.271412	2554.251831
571.626625	2553.117571
571.981782	2552.046326
572.336884	2552.167314
572.691931	2552.631100
573.046923	2552.981460
573.401860	2552.442057
573.756743	2554.095555
574.111570	2550.050029
574.466342	2553.588919
574.821059	2551.718651
575.175722	2552.870555
575.530330	2552.116902
575.884882	2551.169165
576.239380	2550.571788
576.593823	2556.280895
576.948211	2551.070863
577.302544	2553.364588
577.656823	2553.278888
578.011047	2552.089176
578.365216	2551.317879
578.719330	2553.563713
579.073389	2553.369629
579.427394	2551.469114
579.781344	2551.713610
580.135239	2551.678322
580.489080	2553.084804
580.842866	2555.161759
581.196597	2556.744681
581.550273	2551.829556
581.903895	2551.784186
582.257463	2553.785524
582.610975	2552.293343
582.964434	2552.041285
583.317837	2551.988353
583.671186	2553.984650
584.024481	2551.595143
584.377721	2553.339382
584.730906	2555.081101
585.084037	2551.842159
585.437113	2554.960113
585.790135	2551.529608
586.143103	2554.861810
586.496016	2553.795606
586.848874	2550.178578
587.201679	2550.430636
587.554428	2548.141952
587.907124	2550.387786
588.259765	2549.021634
588.612352	2554.851728
588.964884	2553.702345
589.317362	2552.820143
589.669786	2553.087324
590.022155	2553.379711
590.374470	2553.571275
590.726731	2550.234031
591.078937	2554.027499
591.431090	2551.990873
591.783188	2552.434495
592.135232	2552.759649
592.487222	2555.106306
592.839157	2554.549259
593.191038	2553.861141
593.542866	2553.901471
593.894639	2552.739485
594.246358	2553.198230
594.598022	2552.013558
594.949633	2554.055226
595.301190	2550.347457
595.652692	2550.720502
596.004141	2552.706717
596.355535	2554.307283
596.706876	2551.824515
597.058162	2556.306101
597.409395	2553.480534
597.760573	2553.561193
598.111698	2551.761501
598.462768	2552.583209
598.813785	2552.323589
599.164748	2551.597663
599.515657	2552.908363
599.866511	2550.791079
600.217312	2551.590102
600.568060	2553.079762
600.918753	2554.244269
601.269392	2551.665719
601.619978	2552.920966
601.970510	2551.653116
602.320988	2550.760832
602.671412	2553.924156
603.021783	2553.846018
603.372100	2550.851573
603.722363	2553.941800
604.072572	2551.900133
604.422728	2553.344423
604.772830	2549.321582
605.122878	2549.503064
605.472872	2551.123795
605.822813	2548.376366
606.172701	2548.978784
606.522534	2552.822664
606.872314	2554.894578
607.222041	2550.307128
607.571714	2554.796275
607.921333	2550.241593
608.270899	2551.726213
608.620411	2553.919115
608.969870	2554.463559
609.319276	2554.405586
609.668627	2556.868190
610.017926	2559.517316
610.367171	2562.015208
610.716362	2558.446071
611.065500	2557.417675
611.414585	2556.260731
611.763616	2557.059753
612.112594	2551.789227
612.461518	2558.932542
612.810389	2554.365257
613.159207	2551.587581
613.507971	2551.920297
613.856682	2555.623025
614.205340	2555.673436
614.553945	2554.181255
614.902496	2553.906512
615.250994	2554.803837
615.599439	2555.496996
615.947830	2552.081614
616.296169	2554.584547
616.644454	2554.496327
616.992686	2554.289639
617.340864	2554.967675
617.688990	2551.234700
618.037063	2552.812581
618.385082	2552.895760
618.733048	2554.229146
619.080961	2555.076059
619.428821	2554.619835
619.776628	2553.165462
620.124382	2555.713765
620.472083	2552.066491
620.819731	2554.156049
621.167326	2551.852242
621.514868	2555.796944
621.862357	2555.020607
622.209793	2553.972047
622.557176	2552.989022
622.904506	2552.535318
623.251783	2548.817467
623.599007	2552.164793
623.946179	2550.387786
624.293297	2551.048177
624.640363	2553.173024
624.987376	2553.319217
625.334336	2552.991542
625.681243	2553.455328
626.028097	2551.176727
626.374899	2552.502550
626.721647	2555.744012
627.068343	2551.459032
627.414987	2552.028682
627.761577	2550.271840
628.108115	2552.293342
628.454600	2552.615976
628.801032	2553.208312
629.147412	2550.637323
629.493739	2553.704866
629.840014	2552.711758
630.186236	2553.067160
630.532405	2552.260575
630.878521	2551.259906
631.224585	2553.422561
631.570597	2552.164793
631.916556	2551.653116
632.262462	2552.164793
632.608316	2551.900133
632.954117	2552.822664
633.299866	2552.618497
633.645562	2551.998435
633.991206	2554.070349
634.336797	2551.469114
634.682336	2552.870555
635.027823	2552.603373
635.373257	2550.528939
635.718639	2550.256716
636.063968	2552.983981
636.409245	2550.881819
636.754470	2552.691594
637.099642	2551.998435
637.444762	2553.326779
637.789829	2551.837118
638.134845	2554.360216
638.479808	2553.213353
638.824719	2554.224104
639.169577	2550.622200
639.514383	2553.036913
639.859137	2552.071532
640.203839	2553.987170
640.548489	2551.050698
640.893086	2547.214380
641.237632	2550.755791
641.582125	2549.263609
641.926566	2547.703372
642.270955	2550.682694
642.615292	2550.884340
642.959576	2556.180072
643.303809	2552.263096
643.647990	2551.708569
643.992118	2550.894422
644.336195	2552.613456
