Dividing Wavelength (nm)	Counts (n)	Blue Motor Position (mm): 36.800000	Red Motor Position (mm): 0.000000	
326.493990	2130.436986
326.888308	2130.436986
327.282561	2130.436986
327.676750	2096.467171
328.070874	2097.800556
328.464933	2099.567480
328.858929	2106.907400
329.252859	2113.544079
329.646726	2126.358692
330.040528	2140.025260
330.434265	2155.504123
330.827938	2171.345949
331.221547	2191.810513
331.615091	2210.314068
332.008571	2231.280227
332.401986	2249.677918
332.795338	2269.537544
333.188625	2287.436161
333.581847	2306.292597
333.975006	2324.929742
334.368100	2342.120077
334.761129	2360.966431
335.154095	2377.478730
335.546996	2399.289282
335.939833	2424.278282
336.332606	2440.505756
336.725315	2452.851542
337.117960	2459.024435
337.510540	2468.905096
337.903056	2481.245841
338.295508	2487.610298
338.687896	2495.988695
339.080220	2505.461023
339.472480	2509.693072
339.864676	2514.761952
340.256807	2521.184382
340.648875	2523.964578
341.040879	2523.067253
341.432818	2524.977850
341.824694	2528.040351
342.216506	2528.115969
342.608253	2530.810465
342.999937	2526.543129
343.391557	2527.334590
343.783113	2527.377440
344.174605	2524.617408
344.566033	2527.442975
344.957397	2523.246214
345.348697	2519.583816
345.739934	2516.843949
346.131106	2518.447036
346.522215	2513.789009
346.913260	2515.765142
347.304241	2513.768845
347.695159	2511.364214
348.086012	2507.537979
348.476802	2507.989162
348.867528	2506.799450
349.258191	2504.833400
349.648789	2503.303409
350.039324	2501.160919
350.429796	2503.147134
350.820203	2498.458861
351.210548	2500.311485
351.600828	2496.278562
351.991045	2496.071874
352.381198	2493.142964
352.771288	2497.735455
353.161314	2494.330156
353.551276	2496.240753
353.941175	2495.040958
354.331010	2498.181597
354.720782	2493.450474
355.110490	2494.602378
355.500135	2494.065495
355.889717	2494.423417
356.279235	2496.112203
356.668689	2496.470125
357.058080	2494.189003
357.447408	2494.930053
357.836672	2493.694970
358.225873	2494.219250
358.615010	2493.770587
359.004084	2498.670589
359.393095	2496.742348
359.782043	2499.613285
360.170927	2497.823675
360.559748	2501.423059
360.948505	2501.193687
361.337199	2501.294510
361.725830	2501.569253
362.114398	2502.794253
362.502903	2501.433141
362.891344	2505.665190
363.279722	2505.052690
363.668037	2504.188132
364.056289	2504.412463
364.444478	2505.327433
364.832603	2502.491784
365.220665	2505.035046
365.608665	2508.253822
365.996601	2506.978411
366.384474	2509.423370
366.772284	2507.389265
367.160031	2508.392454
367.547715	2507.424553
367.935336	2508.863802
368.322893	2507.288442
368.710388	2507.590911
369.097820	2510.885305
369.485189	2511.409585
369.872495	2508.556292
370.259738	2508.911693
370.646918	2509.594769
371.034035	2511.429749
371.421090	2511.636437
371.808081	2513.610048
372.195010	2510.517301
372.581875	2510.603000
372.968678	2512.115346
373.355418	2511.621313
373.742096	2512.977384
374.128710	2513.763804
374.515262	2515.187930
374.901751	2514.887981
375.288177	2514.696417
375.674540	2513.370594
376.060841	2515.518125
376.447079	2515.412261
376.833254	2516.629700
377.219367	2507.686693
377.605417	2512.783299
377.991404	2511.167609
378.377329	2513.683145
378.763191	2509.932527
379.148991	2520.561800
379.534727	2517.375790
379.920402	2519.525843
380.306013	2518.089114
380.691563	2520.526512
381.077049	2522.462315
381.462474	2520.327386
381.847835	2517.895029
382.233134	2517.839577
382.618371	2519.296470
383.003545	2520.080369
383.388657	2521.812006
383.773706	2522.114475
384.158693	2523.256296
384.543618	2522.361492
384.928480	2520.743281
385.313280	2520.816378
385.698017	2522.651358
386.082692	2521.093641
386.467305	2523.664630
386.851856	2525.444157
387.236344	2525.166894
387.620770	2527.349713
388.005133	2524.798889
388.389435	2524.095648
388.773674	2526.654034
389.157851	2525.502130
389.541965	2528.942718
389.926018	2525.113962
390.310008	2526.772501
390.693936	2529.933305
391.077802	2527.485824
391.461606	2527.188396
391.845348	2531.233922
392.229027	2529.146885
392.612645	2529.222502
392.996200	2530.568490
393.379694	2530.860877
393.763125	2532.947915
394.146494	2533.177287
394.529801	2533.424304
394.913047	2532.847092
395.296230	2537.066537
395.679351	2535.135775
396.062410	2538.261291
396.445408	2538.548637
396.828343	2540.890253
397.211217	2538.594007
397.594028	2546.188505
397.976778	2546.445604
398.359466	2550.307128
398.742092	2552.527756
399.124656	2565.012174
399.507158	2572.972156
399.889598	2578.855182
400.271977	2593.219950
400.654294	2600.451485
401.036549	2609.283587
401.418742	2623.013169
401.800874	2640.208545
402.182944	2655.947027
402.564952	2677.576098
402.946898	2693.485979
403.328783	2713.320399
403.710606	2723.591750
404.092367	2762.963162
404.474067	2780.181223
404.855705	2802.760551
405.237282	2817.170689
405.618797	2857.326000
406.000250	2893.080384
406.381642	2934.001950
406.762972	2960.218471
407.144240	2989.245434
407.525447	3018.501771
407.906593	3066.231415
408.287677	3109.381172
408.668700	3127.015128
409.049661	3174.102025
409.430560	3224.846280
409.811399	3240.488980
410.192176	3331.454081
410.572891	3348.084848
410.953545	3428.496293
411.334138	3422.477155
411.714669	3489.375787
412.095139	3484.642143
412.475547	3587.910180
412.855894	3625.885192
413.236180	3669.644928
413.616405	3691.329451
413.996568	3776.303140
414.376670	3788.318731
414.756711	3803.613591
415.136691	3863.144577
415.516609	3947.117597
415.896466	4013.065972
416.276262	4073.864808
416.655997	4103.186679
417.035670	4263.739868
417.415283	4365.709807
417.794834	4366.266854
418.174324	4374.292371
418.553753	4345.860264
418.933121	4521.594887
419.312428	4616.020739
419.691674	4610.845995
420.070859	4744.474381
420.449983	4706.837126
420.829045	4834.070808
421.208047	4788.990290
421.586988	4883.625350
421.965867	4924.294859
422.344686	5071.728444
422.723444	4965.133246
423.102141	4831.535107
423.480777	5120.211741
423.859352	4941.638949
424.237866	5195.047670
424.616319	5207.249783
424.994712	5331.988094
425.373044	5237.902519
425.751314	5387.004726
426.129524	5220.752514
426.507673	5421.629892
426.885762	5512.675651
427.263789	5461.752435
427.641756	5361.337692
428.019662	5491.633874
428.397508	5512.758830
428.775292	5471.396162
429.153016	5575.831226
429.530679	5509.903016
429.908282	5599.365853
430.285824	5481.319674
430.663305	5757.506849
431.040726	5501.191902
431.418086	5509.696329
431.795385	5615.595847
432.172624	5632.801306
432.549802	5624.475840
432.926920	5645.131968
433.303977	5650.369727
433.680974	5693.670718
434.057910	5713.605961
434.434786	5721.132403
434.811601	5690.356159
435.188355	5927.272746
435.565050	5802.763808
435.941683	5783.836795
436.318257	5998.524414
436.694770	5981.313915
437.071222	6012.856415
437.447614	5954.031190
437.823946	5865.238827
438.200218	6021.113825
438.576429	5885.552157
438.952580	5985.520758
439.328670	6033.663777
439.704700	5941.236742
440.080670	5926.715698
440.456580	6195.628488
440.832429	6078.746816
441.208218	5928.119660
441.583947	6084.622281
441.959616	6080.528864
442.335224	6011.727196
442.710773	6148.705428
443.086261	6177.109810
443.461689	5970.719930
443.837057	6123.907993
444.212365	6276.410458
444.587612	6169.238048
444.962800	6319.431665
445.337927	6301.845600
445.712995	5913.197844
446.088002	6487.539022
446.462949	6318.778836
446.837837	6250.551860
447.212664	6425.923520
447.587431	6570.859213
447.962139	7113.158818
448.336786	8033.093777
448.711374	7772.050228
449.085901	6851.444795
449.460369	6769.939420
449.834776	6702.193874
450.209124	7096.313802
450.583412	7251.230980
450.957640	7393.028556
451.331808	7155.733882
451.705917	6711.346089
452.079965	6634.037474
452.453954	6844.470359
452.827883	6721.377985
453.201752	6816.030689
453.575562	6616.552232
453.949311	6818.221071
454.323001	6709.942127
454.696632	6778.753877
455.070202	6919.860815
455.443713	7079.330155
455.817164	7175.742222
456.190556	7257.008143
456.563888	7336.411357
456.937160	7378.681432
457.310373	7035.522528
457.683526	7052.934673
458.056619	6948.335772
458.429653	6937.409071
458.802628	6871.473299
459.175542	6978.812068
459.548398	7333.346335
459.921194	7494.569997
460.293930	7499.855647
460.666607	8022.076336
461.039224	8330.975558
461.411782	8451.774207
461.784280	8479.752611
462.156719	8369.426959
462.529099	8247.552024
462.901419	7837.791916
463.273680	7732.046152
463.645882	7741.364725
464.018024	7613.964685
464.390106	7774.225486
464.762130	8158.212695
465.134094	8627.660065
465.505999	9644.244026
465.877845	10868.578978
466.249631	11513.261897
466.621358	11127.114553
466.993026	10502.109779
467.364634	10253.966543
467.736184	9893.415658
468.107674	9559.408968
468.479105	9589.691180
468.850477	9352.446918
469.221790	9127.873596
469.593043	8801.156416
469.964238	8659.739447
470.335373	8674.361314
470.706449	8728.163028
471.077467	8713.624341
471.448425	10022.975832
471.819324	11082.865825
472.190164	11105.989598
472.560945	9860.350730
472.931667	9072.186490
473.302330	8941.368548
473.672934	8592.538346
474.043479	8946.818035
474.413965	8885.749498
474.784393	8766.727855
475.154761	8924.095034
475.525070	9007.261470
475.895321	8844.374227
476.265513	9015.629785
476.635645	9182.917955
477.005719	9185.362915
477.375734	9300.286099
477.745691	9531.503661
478.115588	9666.349486
478.485427	9917.028422
478.855207	10445.152302
479.224928	11267.729978
479.594591	11881.440047
479.964194	11699.943385
480.333739	11637.049950
480.703226	11558.067672
481.072653	11646.718883
481.442022	11888.018753
481.811333	12067.597256
482.180584	11878.879141
482.549777	11589.582445
482.918912	11420.665983
483.287988	11429.810636
483.657005	11441.639703
484.025964	11126.686055
484.394864	11263.613876
484.763706	11233.346788
485.132489	10994.247382
485.501213	10953.255239
485.869879	11033.144925
486.238487	10875.175328
486.607036	10987.409057
486.975527	10763.433112
487.343959	10950.099477
487.712333	11006.255410
488.080648	10930.489389
488.448905	10966.556324
488.817104	10914.297202
489.185244	11184.319047
489.553326	11341.315701
489.921350	11870.657019
490.289315	12928.200355
490.657222	13273.680711
491.025070	13181.634283
491.392861	13057.644583
491.760593	12675.618383
492.128267	12327.783809
492.495883	11996.766524
492.863440	11670.823160
493.230939	11333.302787
493.598380	11256.735222
493.965763	11128.969698
494.333088	11028.154183
494.700354	10946.921030
495.067563	11012.249342
495.434713	10840.449340
495.801805	10970.622014
496.168839	10889.363656
496.535815	10825.552730
496.902733	10835.146046
497.269593	10761.131825
497.636395	10860.510612
498.003139	10849.115083
498.369825	10713.692047
498.736453	10878.416790
499.103023	10802.955758
499.469535	10824.746146
499.835989	10819.158027
500.202385	10785.352049
500.568723	10635.682712
500.935003	10860.084634
501.301226	10662.420992
501.667390	10918.514128
502.033497	11017.482060
502.399546	10876.765812
502.765537	10777.361820
503.131470	10861.768379
503.497345	11027.834069
503.863163	10644.328291
504.228923	10957.817484
504.594625	11017.814776
504.960269	10767.420665
505.325856	10978.645011
505.691385	10775.020204
506.056856	10928.092320
506.422270	10952.534354
506.787625	10847.247336
507.152924	10963.836621
507.518164	10939.155132
507.883347	10866.403720
508.248472	10785.599065
508.613540	11020.219407
508.978550	10905.071891
509.343503	10878.076512
509.708398	10997.173772
510.073236	11107.045720
510.438016	11113.591658
510.802738	11066.870244
511.167403	11122.557350
511.532010	11018.848213
511.896561	11249.009653
512.261053	11313.791001
512.625488	11180.197903
512.989866	11169.727427
513.354186	11159.544296
513.718449	11063.117105
514.082655	11248.170301
514.446803	11147.339662
514.810894	11267.717375
515.174927	11138.089145
515.538904	11163.514205
515.902822	11300.668877
516.266684	11192.286590
516.630488	11132.997580
516.994235	11191.772392
517.357925	11260.528690
517.721558	11344.993223
518.085133	11361.782785
518.448651	11375.124199
518.812112	11249.140723
519.175516	11272.327510
519.538863	11386.126517
519.902152	11306.554424
520.265385	11467.135339
520.628560	11375.068746
520.991678	11360.083917
521.354739	11416.461661
521.717743	11351.639984
522.080690	11333.620379
522.443580	11469.214815
522.806413	11423.577249
523.169189	11455.520521
523.531908	11515.979079
523.894569	11335.142808
524.257174	11334.414361
524.619722	11457.995727
524.982213	11405.129147
525.344647	11452.473143
525.707025	11398.563044
526.069345	11499.549958
526.431608	11409.169632
526.793815	11522.439317
527.155964	11309.017028
527.518057	11362.228927
527.880093	11316.447689
528.242072	11379.424303
528.603995	11285.603389
528.965860	11214.013963
529.327669	11262.502302
529.689421	11208.357789
530.051117	11182.718480
530.412755	11283.798656
530.774337	11170.718013
531.135862	11148.310085
531.497331	11173.089876
531.858743	11030.284070
532.220098	11198.209946
532.581396	11072.551625
532.942638	11051.015815
533.303824	11005.882365
533.664953	11025.106805
534.026025	10942.938518
534.387040	11041.775380
534.747999	11041.977027
535.108902	11098.248906
535.469748	10861.349964
535.830537	10968.512292
536.191270	10947.251225
536.551947	10965.069183
536.912567	10959.748246
537.273131	10894.591332
537.633638	10870.809689
537.994089	10865.334996
538.354483	10804.616818
538.714821	10953.824890
539.075103	10961.497526
539.435328	10920.727194
539.795497	10751.740156
540.155609	10908.424258
540.515665	10994.587660
540.875665	10731.197454
541.235609	10801.708073
541.595496	10799.525253
541.955328	10948.544281
542.315102	10835.884575
542.674821	10788.999324
543.034483	10785.465475
543.394090	10792.840683
543.753640	10721.888963
544.113134	10940.231418
544.472571	10791.408995
544.831953	10939.024062
545.191278	10748.733107
545.550548	10775.804103
545.909761	10909.019114
546.268918	10885.262677
546.628019	10968.923146
546.987064	10831.576909
547.346053	10751.735114
547.704986	10855.716474
548.063863	10842.700215
548.422684	10832.741416
548.781449	10750.305947
549.140158	10856.059273
549.498811	10729.294418
549.857408	10581.177756
550.215949	10811.377006
550.574434	10666.839563
550.932864	10755.238716
551.291237	10822.830507
551.649555	10774.087591
552.007817	10781.351893
552.366022	10741.156253
552.724173	10746.083981
553.082267	10724.424663
553.440305	10860.624038
553.798288	10662.922587
554.156215	10818.653911
554.514086	10799.681529
554.871902	10640.423917
555.229661	10674.635708
555.587365	10654.506380
555.945014	10543.031345
556.302606	10674.996150
556.660143	10568.259800
557.017625	10722.624972
557.375050	10623.331885
557.732421	10750.762172
558.089735	10661.523666
558.446994	10671.895840
558.804197	10705.611077
559.161345	10707.052847
559.518437	10555.856041
559.875474	10645.429783
560.232455	10669.307208
560.589381	10619.982038
560.946251	10621.633016
561.303065	10720.908459
561.659825	10658.761114
562.016528	10593.631927
562.373177	10469.816147
562.729770	10590.985321
563.086307	10504.602629
563.442789	10595.986146
563.799216	10473.806221
564.155587	10525.422595
564.511904	10481.710750
564.868164	10467.645931
565.224370	10483.102108
565.580520	10401.858873
565.936615	10412.354555
566.292654	10277.039904
566.648638	10417.405791
567.004567	10369.827381
567.360441	10358.883036
567.716260	10260.628427
568.072023	10356.785916
568.427732	10309.313371
568.783385	10220.155524
569.138982	10287.901070
569.494525	10299.992277
569.850013	10180.527013
570.205445	10258.685063
570.560823	10160.559003
570.916145	10078.458771
571.271412	10147.066355
571.626625	10091.893446
571.981782	10068.086597
572.336884	10040.261949
572.691931	10045.562722
573.046923	9995.393159
573.401860	9949.185943
573.756743	9882.930058
574.111570	9931.879662
574.466342	9916.524307
574.821059	9940.621022
575.175722	9834.444240
575.530330	9843.782978
575.884882	9834.933232
576.239380	9754.698227
576.593823	9735.872038
576.948211	9751.303010
577.302544	9642.522472
577.656823	9660.267333
578.011047	9646.653697
578.365216	9626.163928
578.719330	9551.741373
579.073389	9563.882992
579.427394	9509.582204
579.781344	9490.146035
580.135239	9439.815155
580.489080	9444.412688
580.842866	9350.770734
581.196597	9351.665539
581.550273	9393.388649
581.903895	9359.920428
582.257463	9423.176827
582.610975	9303.444382
582.964434	9334.094597
583.317837	9251.023944
583.671186	9236.210513
584.024481	9223.269871
584.377721	9146.901432
584.730906	9123.361764
585.084037	9158.662443
585.437113	9087.599818
585.790135	9113.448335
586.143103	9009.479578
586.496016	8985.902101
586.848874	9041.379999
587.201679	9029.462712
587.554428	8914.118591
587.907124	8965.142630
588.259765	8936.309750
588.612352	8936.395450
588.964884	8817.507398
589.317362	8825.666506
589.669786	8827.635076
590.022155	8872.539154
590.374470	8887.796206
590.726731	8826.026948
591.078937	8682.991769
591.431090	8795.396897
591.783188	8661.085435
592.135232	8659.656268
592.487222	8656.858428
592.839157	8709.500677
593.191038	8645.954412
593.542866	8595.038758
593.894639	8494.893717
594.246358	8542.020943
594.598022	8557.640958
594.949633	8457.886606
595.301190	8427.228829
595.652692	8456.384342
596.004141	8573.225686
596.355535	8346.749328
596.706876	8329.533788
597.058162	8258.922346
597.409395	8338.328081
597.760573	8398.146413
598.111698	8308.267681
598.462768	8296.110938
598.813785	8258.982840
599.164748	8231.695074
599.515657	8217.418527
599.866511	8131.229919
600.217312	8253.601408
600.568060	8115.788865
600.918753	8221.950524
601.269392	8187.509361
601.619978	8098.875794
601.970510	8165.439189
602.320988	8156.574320
602.671412	8216.586736
603.021783	8148.768093
603.372100	8122.912015
603.722363	8126.675237
604.072572	8102.558357
604.422728	8115.446067
604.772830	8044.257412
605.122878	8047.140952
605.472872	8043.143317
605.822813	8074.423677
606.172701	8019.162549
606.522534	8097.567614
606.872314	8092.692819
607.222041	8066.809014
607.571714	8116.822302
607.921333	8072.629026
608.270899	8080.495747
608.620411	8169.683841
608.969870	8078.693534
609.319276	8072.243378
609.668627	8089.786593
610.017926	8120.993856
610.367171	8170.238368
610.716362	8146.600397
611.065500	8132.381823
611.414585	8163.586565
611.763616	8148.357239
612.112594	8136.129921
612.461518	8149.110892
612.810389	8206.055766
613.159207	8144.788102
613.507971	8098.568283
613.856682	8218.552786
614.205340	8167.490939
614.553945	8249.223166
614.902496	8148.226169
615.250994	8202.458903
615.599439	8186.677570
615.947830	8201.342287
616.296169	8169.361207
616.644454	8182.644647
616.992686	8180.401334
617.340864	8242.165551
617.688990	8138.327864
618.037063	8229.567707
618.385082	8182.952158
618.733048	8263.348479
619.080961	8208.286476
619.428821	8225.476811
619.776628	8230.795228
620.124382	8182.843773
620.472083	8165.108994
620.819731	8189.886265
621.167326	8079.598422
621.514868	8091.964372
621.862357	7972.310065
622.209793	8003.124118
622.557176	7930.609640
622.904506	7900.705516
623.251783	7837.013057
623.599007	7790.475646
623.946179	7800.673900
624.293297	7754.948114
624.640363	7667.287490
624.987376	7652.602608
625.334336	7595.209072
625.681243	7547.348357
626.028097	7533.167592
626.374899	7515.962133
626.721647	7505.383272
627.068343	7436.374917
627.414987	7403.526759
627.761577	7366.572580
628.108115	7403.357880
628.454600	7295.336035
628.801032	7343.627769
629.147412	7302.103784
629.493739	7292.790253
629.840014	7232.240954
630.186236	7290.453678
630.532405	7173.587129
630.878521	7224.427165
631.224585	7179.858324
631.570597	7100.339163
631.916556	7137.396685
632.262462	7134.883670
632.608316	7095.764316
632.954117	7064.405819
633.299866	7051.646658
633.645562	7051.197996
633.991206	6967.116591
634.336797	6910.491830
634.682336	6870.656633
635.027823	6839.789648
635.373257	6833.100036
635.718639	6759.882318
636.063968	6776.170286
636.409245	6666.878071
636.754470	6670.079203
637.099642	6628.850127
637.444762	6568.928451
637.789829	6575.202167
638.134845	6520.288878
638.479808	6503.663153
638.824719	6509.664647
639.169577	6437.165293
639.514383	6452.041738
639.859137	6391.258025
640.203839	6394.333129
640.548489	6380.860645
