Dividing Wavelength (nm)	Counts (n)	Blue Motor Position (mm): 23.100000	Red Motor Position (mm): 0.000000	
326.493990	2131.956894
326.888308	2131.956894
327.282561	2131.956894
327.676750	2102.292224
328.070874	2100.185022
328.464933	2105.069900
328.858929	2110.146342
329.252859	2118.151694
329.646726	2131.364558
330.040528	2141.552730
330.434265	2161.596358
330.827938	2178.821980
331.221547	2193.320339
331.615091	2213.610983
332.008571	2233.881463
332.401986	2256.780904
332.795338	2271.554005
333.188625	2292.752057
333.581847	2311.154789
333.975006	2329.875114
334.368100	2347.176354
334.761129	2365.316946
335.154095	2383.175234
335.546996	2403.289438
335.939833	2424.116965
336.332606	2440.561209
336.725315	2453.194340
337.117960	2460.536781
337.510540	2470.225878
337.903056	2480.827425
338.295508	2486.221460
338.687896	2496.026504
339.080220	2504.914058
339.472480	2512.506036
339.864676	2518.111799
340.256807	2520.153466
340.648875	2523.808303
341.040879	2526.734692
341.432818	2525.431554
341.824694	2527.886596
342.216506	2530.482790
342.608253	2530.815507
342.999937	2528.466329
343.391557	2528.582275
343.783113	2530.583613
344.174605	2525.839888
344.566033	2526.107069
344.957397	2524.551873
345.348697	2522.802592
345.739934	2522.283354
346.131106	2518.295801
346.522215	2519.697242
346.913260	2514.638444
347.304241	2514.225069
347.695159	2512.425377
348.086012	2511.638957
348.476802	2506.743997
348.867528	2505.821466
349.258191	2503.013543
349.648789	2505.385406
350.039324	2501.385250
350.429796	2502.453975
350.820203	2498.836947
351.210548	2501.012205
351.600828	2497.367451
351.991045	2501.087822
352.381198	2496.596154
352.771288	2498.925167
353.161314	2497.967348
353.551276	2492.147336
353.941175	2495.197234
354.331010	2498.655466
354.720782	2494.811586
355.110490	2496.152533
355.500135	2495.645897
355.889717	2496.608757
356.279235	2498.105980
356.668689	2497.785867
357.058080	2497.090187
357.447408	2496.122286
357.836672	2494.201606
358.225873	2497.223778
358.615010	2492.588437
359.004084	2500.750065
359.393095	2499.227637
359.782043	2497.468274
360.170927	2500.931547
360.559748	2501.695281
360.948505	2500.084633
361.337199	2501.612102
361.725830	2502.141423
362.114398	2501.271824
362.502903	2502.804335
362.891344	2504.508245
363.279722	2505.612258
363.668037	2505.692916
364.056289	2504.818276
364.444478	2506.494460
364.832603	2504.916579
365.220665	2506.050838
365.608665	2507.008657
365.996601	2509.267094
366.384474	2504.919099
366.772284	2508.067300
367.160031	2507.238030
367.547715	2509.703154
367.935336	2507.860613
368.322893	2509.546878
368.710388	2510.252640
369.097820	2514.207425
369.485189	2507.086795
369.872495	2511.618793
370.259738	2511.202897
370.646918	2512.740449
371.034035	2509.388082
371.421090	2511.575943
371.808081	2512.132990
372.195010	2510.797085
372.581875	2510.668535
372.968678	2513.105933
373.355418	2513.131139
373.742096	2513.405882
374.128710	2513.514267
374.515262	2514.850172
374.901751	2512.150634
375.288177	2514.013341
375.674540	2514.288084
376.060841	2513.085768
376.447079	2516.211284
376.833254	2514.814884
377.219367	2511.533093
377.605417	2514.209946
377.991404	2510.781961
378.377329	2509.859430
378.763191	2509.793895
379.148991	2515.850841
379.534727	2515.835718
379.920402	2515.606345
380.306013	2514.998886
380.691563	2515.008969
381.077049	2516.377642
381.462474	2517.027951
381.847835	2516.584329
382.233134	2516.352436
382.618371	2515.732374
383.003545	2517.461490
383.388657	2516.861593
383.773706	2521.257479
384.158693	2517.690863
384.543618	2518.825122
384.928480	2519.296470
385.313280	2519.540966
385.698017	2517.849659
386.082692	2520.108096
386.467305	2521.191944
386.851856	2519.472910
387.236344	2521.489372
387.620770	2519.954341
388.005133	2522.923580
388.389435	2520.839063
388.773674	2519.432581
389.157851	2516.901922
389.541965	2521.272602
389.926018	2520.559279
390.310008	2519.782941
390.693936	2524.907274
391.077802	2522.280833
391.461606	2523.646986
391.845348	2523.778056
392.229027	2523.863755
392.612645	2523.286543
392.996200	2522.928621
393.379694	2522.442150
393.763125	2525.592871
394.146494	2524.864424
394.529801	2525.078673
394.913047	2524.198992
395.296230	2525.154291
395.679351	2526.026410
396.062410	2525.993643
396.445408	2525.928108
396.828343	2525.048427
397.211217	2523.135309
397.594028	2524.269568
397.976778	2520.022396
398.359466	2526.321318
398.742092	2522.217819
399.124656	2526.888448
399.507158	2528.221833
399.889598	2527.944569
400.271977	2526.404497
400.654294	2529.610671
401.036549	2527.158149
401.418742	2526.477594
401.800874	2527.231246
402.182944	2526.694363
402.564952	2527.453057
402.946898	2529.928263
403.328783	2528.418438
403.710606	2527.460619
404.092367	2530.099663
404.474067	2528.526823
404.855705	2527.843746
405.237282	2529.746782
405.618797	2527.422810
406.000250	2527.911802
406.381642	2528.678057
406.762972	2531.107893
407.144240	2528.577234
407.525447	2535.539068
407.906593	2528.778880
408.287677	2530.775177
408.668700	2530.266021
409.049661	2531.780888
409.430560	2531.667462
409.811399	2531.952287
410.192176	2530.991947
410.572891	2533.094108
410.953545	2532.365661
411.334138	2533.981351
411.714669	2531.753161
412.095139	2532.456402
412.475547	2532.705939
412.855894	2534.901362
413.236180	2534.046886
413.616405	2535.629808
413.996568	2534.198121
414.376670	2535.460930
414.756711	2535.624767
415.136691	2533.860363
415.516609	2537.268183
415.896466	2535.085364
416.276262	2534.581248
416.655997	2533.104190
417.035670	2530.119827
417.415283	2533.192411
417.794834	2529.852646
418.174324	2534.729963
418.553753	2536.711136
418.933121	2534.041845
419.312428	2534.939170
419.691674	2537.011085
420.070859	2535.705426
420.449983	2534.248532
420.829045	2536.128883
421.208047	2532.915147
421.586988	2536.721218
421.965867	2535.508821
422.344686	2538.031918
422.723444	2537.941178
423.102141	2538.079809
423.480777	2536.965714
423.859352	2538.203317
424.237866	2540.015612
424.616319	2538.720036
424.994712	2538.044521
425.373044	2540.247505
425.751314	2537.482432
426.129524	2539.345139
426.507673	2538.561239
426.885762	2537.565612
427.263789	2540.000489
427.641756	2538.964532
428.019662	2542.135418
428.397508	2541.754810
428.775292	2537.837834
429.153016	2540.807073
429.530679	2540.774306
429.908282	2539.221631
430.285824	2540.197094
430.663305	2538.271373
431.040726	2540.620551
431.418086	2540.549975
431.795385	2540.769265
432.172624	2543.131045
432.549802	2541.885880
432.926920	2540.192053
433.303977	2542.417722
433.680974	2539.829090
434.057910	2542.397558
434.434786	2542.062321
434.811601	2543.637681
435.188355	2540.154244
435.565050	2542.889070
435.941683	2543.030222
436.318257	2539.251878
436.694770	2537.495035
437.071222	2540.179450
437.447614	2540.234902
437.823946	2541.016281
438.200218	2541.545602
438.576429	2542.455531
438.952580	2540.784388
439.328670	2542.266487
439.704700	2542.702547
440.080670	2542.972249
440.456580	2544.870243
440.832429	2547.905018
441.208218	2542.437887
441.583947	2543.753628
441.959616	2544.507280
442.335224	2544.550130
442.710773	2546.400234
443.086261	2547.499205
443.461689	2543.559543
443.837057	2545.601211
444.212365	2547.715975
444.587612	2545.893598
444.962800	2545.087013
445.337927	2547.206818
445.712995	2544.542568
446.088002	2548.865358
446.462949	2546.266643
446.837837	2548.265461
447.212664	2546.831252
447.587431	2547.451314
447.962139	2546.846376
448.336786	2549.664381
448.711374	2547.383259
449.085901	2549.225800
449.460369	2550.410472
449.834776	2551.905174
450.209124	2549.417364
450.583412	2548.988866
450.957640	2548.479710
451.331808	2551.128836
451.705917	2550.145811
452.079965	2550.846531
452.453954	2550.410472
452.827883	2550.082797
453.201752	2551.610266
453.575562	2550.294525
453.949311	2550.743188
454.323001	2553.654454
454.696632	2550.191181
455.070202	2550.932231
455.443713	2550.412992
455.817164	2550.420554
456.190556	2552.374001
456.563888	2550.854093
456.937160	2549.233362
457.310373	2554.962633
457.683526	2553.062118
458.056619	2554.382901
458.429653	2555.749053
458.802628	2556.469938
459.175542	2558.801472
459.548398	2558.211657
459.921194	2559.900444
460.293930	2559.587892
460.666607	2563.272976
461.039224	2565.047462
461.411782	2567.910837
461.784280	2567.792370
462.156719	2570.348235
462.529099	2567.996537
462.901419	2571.106929
463.273680	2572.326888
463.645882	2573.635067
464.018024	2576.369893
464.390106	2579.215625
464.762130	2584.773497
465.134094	2594.689446
465.505999	2609.374327
465.877845	2625.488376
466.249631	2632.871146
466.621358	2637.733338
466.993026	2637.940026
467.364634	2639.172588
467.736184	2640.548823
468.107674	2645.111067
468.479105	2652.191368
468.850477	2657.842501
469.221790	2660.302584
469.593043	2664.874911
469.964238	2667.710560
470.335373	2678.417971
470.706449	2690.473890
471.077467	2698.476722
471.448425	2748.444639
471.819324	2788.466359
472.190164	2798.833492
472.560945	2774.225099
472.931667	2765.761002
473.302330	2771.787702
473.672934	2775.157713
474.043479	2802.445479
474.413965	2813.916624
474.784393	2822.736123
475.154761	2849.345853
475.525070	2867.952752
475.895321	2877.800646
476.265513	2901.675551
476.635645	2937.382044
477.005719	2959.779890
477.375734	2990.112513
477.745691	3029.123482
478.115588	3064.378791
478.485427	3108.993003
478.855207	3183.624765
479.224928	3295.407310
479.594591	3383.012482
479.964194	3400.860687
480.333739	3410.645567
480.703226	3448.870116
481.072653	3500.299967
481.442022	3587.844645
481.811333	3652.482320
482.180584	3669.647448
482.549777	3689.640665
482.918912	3711.307544
483.287988	3767.161008
483.657005	3816.193791
484.025964	3826.875996
484.394864	3888.622569
484.763706	3942.462092
485.132489	3947.853606
485.501213	3999.590968
485.869879	4058.010379
486.238487	4100.807255
486.607036	4161.331348
486.975527	4191.013662
487.343959	4278.409625
487.712333	4359.970453
488.080648	4399.311618
488.448905	4479.723063
488.817104	4530.308521
489.185244	4656.123118
489.553326	4766.695787
489.921350	4982.197552
490.289315	5346.627605
490.657222	5506.487634
491.025070	5580.406073
491.392861	5614.456547
491.760593	5593.986942
492.128267	5573.630762
492.495883	5551.570673
492.863440	5522.712588
493.230939	5496.738043
493.598380	5549.314757
493.965763	5585.568215
494.333088	5616.752792
494.700354	5671.403941
495.067563	5755.326550
495.434713	5782.362258
495.801805	5903.274333
496.168839	5951.548422
496.535815	6009.599829
496.902733	6076.120375
497.269593	6135.921062
497.636395	6242.259162
498.003139	6327.873077
498.369825	6335.366752
498.736453	6489.167315
499.103023	6518.852150
499.469535	6617.252952
499.835989	6685.573190
500.202385	6743.213743
500.568723	6745.212560
500.935003	6922.388953
501.301226	6924.675117
501.667390	7114.890454
502.033497	7249.988336
502.399546	7245.136225
502.765537	7272.663446
503.131470	7390.676857
503.497345	7568.347284
503.863163	7409.404744
504.228923	7673.372162
504.594625	7782.082124
504.960269	7698.588014
505.325856	7909.260354
505.691385	7854.485697
506.056856	8024.617077
506.422270	8113.951364
506.787625	8102.190352
507.152924	8258.226667
507.518164	8307.680386
507.883347	8328.679313
508.248472	8336.238523
508.613540	8561.628511
508.978550	8550.898415
509.343503	8592.666895
509.708398	8741.648115
510.073236	8886.006597
510.438016	8947.634702
510.802738	8973.364752
511.167403	9074.349145
511.532010	9060.180983
511.896561	9279.715671
512.261053	9397.872755
512.625488	9354.188637
512.989866	9399.223784
513.354186	9439.830279
513.718449	9422.680273
514.082655	9621.669739
514.446803	9596.083363
514.810894	9740.746834
515.174927	9687.819760
515.538904	9750.763607
515.902822	9929.222973
516.266684	9877.430159
516.630488	9874.833965
516.994235	9953.854051
517.357925	10063.020238
517.721558	10181.099184
518.085133	10235.430220
518.448651	10283.167426
518.812112	10218.590245
519.175516	10273.180900
519.538863	10416.090050
519.902152	10379.110666
520.265385	10563.957175
520.628560	10510.248722
520.991678	10531.915601
521.354739	10616.286872
521.717743	10581.071892
522.080690	10595.597977
522.443580	10755.510939
522.806413	10740.354710
523.169189	10798.161621
523.531908	10875.807993
523.894569	10734.171734
524.257174	10771.728331
524.619722	10903.110882
524.982213	10872.634587
525.344647	10946.144692
525.707025	10921.523697
526.069345	11027.400530
526.431608	10975.766512
526.793815	11091.854203
527.155964	10912.714280
527.518057	10978.738272
527.880093	10945.166708
528.242072	11031.211642
528.603995	10953.555188
528.965860	10887.891639
529.327669	10959.506270
529.689421	10922.511763
530.051117	10896.365818
530.412755	11009.978302
530.774337	10919.010681
531.135862	10908.104145
531.497331	10944.788622
531.858743	10810.459516
532.220098	10979.968314
532.581396	10862.703513
532.942638	10856.147493
533.303824	10822.442338
533.664953	10851.428973
534.026025	10764.690880
534.387040	10874.953517
534.747999	10880.811338
535.108902	10943.775350
535.469748	10712.691378
535.830537	10824.889818
536.191270	10805.083125
536.551947	10833.099338
536.912567	10829.520118
537.273131	10758.618810
537.633638	10747.256049
537.994089	10747.356872
538.354483	10696.567247
538.714821	10839.743578
539.075103	10850.657676
539.435328	10822.865795
539.795497	10643.287292
540.155609	10808.382560
540.515665	10896.257433
540.875665	10636.123813
541.235609	10716.560463
541.595496	10703.561848
541.955328	10862.663184
542.315102	10747.077088
542.674821	10693.847545
543.034483	10700.557321
543.394090	10706.223578
543.753640	10641.200255
544.113134	10859.411640
544.472571	10719.025588
544.831953	10860.795437
545.191278	10665.901908
545.550548	10696.277381
545.909761	10836.774339
546.268918	10811.863477
546.628019	10889.555219
546.987064	10759.614438
547.346053	10685.277583
547.704986	10783.373396
548.063863	10769.764801
548.422684	10757.789540
548.781449	10677.728455
549.140158	10785.339446
549.498811	10664.346713
549.857408	10527.512153
550.215949	10744.395194
550.574434	10598.915056
550.932864	10699.473473
551.291237	10758.160065
551.649555	10707.614936
552.007817	10724.255785
552.366022	10686.164826
552.724173	10683.155257
553.082267	10662.221866
553.440305	10799.570623
553.798288	10599.151990
554.156215	10758.578481
554.514086	10733.352547
554.871902	10585.939126
555.229661	10623.709971
555.587365	10595.562689
555.945014	10491.107461
556.302606	10613.554567
556.660143	10519.937819
557.017625	10669.382825
557.375050	10564.862062
557.732421	10697.157062
558.089735	10607.248083
558.446994	10614.519948
558.804197	10648.038580
559.161345	10650.896914
559.518437	10501.759419
559.875474	10582.748076
560.232455	10620.614703
560.589381	10573.018649
560.946251	10571.770963
561.303065	10671.608495
561.659825	10610.184556
562.016528	10543.296006
562.373177	10419.649105
562.729770	10534.615139
563.086307	10449.462489
563.442789	10544.052179
563.799216	10418.111553
564.155587	10465.609304
564.511904	10428.894581
564.868164	10413.546788
565.224370	10426.613459
565.580520	10353.851965
565.936615	10358.600732
566.292654	10234.608512
566.648638	10365.033244
567.004567	10317.117077
567.360441	10306.124841
567.716260	10217.075379
568.072023	10311.080295
568.427732	10256.003169
568.783385	10169.496969
569.138982	10244.095963
569.494525	10249.580739
569.850013	10134.178645
570.205445	10212.477846
570.560823	10110.081929
570.916145	10032.281802
571.271412	10101.053223
571.626625	10040.443430
571.981782	10017.322178
572.336884	9994.518519
572.691931	9997.593622
573.046923	9942.493811
573.401860	9896.672243
573.756743	9839.266104
574.111570	9887.550275
574.466342	9864.514723
574.821059	9897.115865
575.175722	9784.236868
575.530330	9796.418817
575.884882	9791.556624
576.239380	9719.427794
576.593823	9697.279485
576.948211	9711.901352
577.302544	9588.193957
577.656823	9606.735321
578.011047	9609.427297
578.365216	9579.271115
578.719330	9504.949383
579.073389	9519.946816
579.427394	9462.865831
579.781344	9443.948901
580.135239	9392.319924
580.489080	9401.061285
580.842866	9302.428589
581.196597	9306.219537
581.550273	9349.833080
581.903895	9318.895518
582.257463	9379.202842
582.610975	9259.104913
582.964434	9291.451477
583.317837	9210.848468
583.671186	9194.794914
584.024481	9186.182102
584.377721	9104.404505
584.730906	9085.051515
585.084037	9103.570194
585.437113	9053.700579
585.790135	9065.524606
586.143103	8967.436355
586.496016	8945.351060
586.848874	9005.250050
587.201679	8990.918049
587.554428	8873.970842
587.907124	8926.900437
588.259765	8893.235611
588.612352	8896.809789
588.964884	8772.336139
589.317362	8784.034137
589.669786	8786.441287
590.022155	8835.738731
590.374470	8846.315072
590.726731	8792.215929
591.078937	8644.258064
591.431090	8756.403572
591.783188	8624.511864
592.135232	8622.011452
592.487222	8624.332903
592.839157	8668.710181
593.191038	8607.266077
593.542866	8551.705000
593.894639	8452.535421
594.246358	8510.052466
594.598022	8518.982870
594.949633	8418.227849
595.301190	8396.613902
595.652692	8417.859845
596.004141	8525.730455
596.355535	8311.378073
596.706876	8290.910988
597.058162	8227.883962
597.409395	8304.103688
597.760573	8360.748613
598.111698	8273.982793
598.462768	8258.299764
598.813785	8221.332982
599.164748	8190.350051
599.515657	8182.241355
599.866511	8093.461595
600.217312	8215.500367
600.568060	8083.094462
600.918753	8184.958537
601.269392	8156.218919
601.619978	8062.544198
601.970510	8132.500290
602.320988	8123.380843
602.671412	8176.738936
603.021783	8119.516798
603.372100	8085.458763
603.722363	8092.433199
604.072572	8066.113335
604.422728	8078.123884
604.772830	8010.307762
605.122878	8016.871344
605.472872	8005.642174
605.822813	8038.697020
606.172701	7983.584605
606.522534	8061.699805
606.872314	8066.834220
607.222041	8028.281996
607.571714	8081.128412
607.921333	8046.150366
608.270899	8051.098258
608.620411	8134.249570
608.969870	8043.486116
609.319276	8042.815642
609.668627	8050.445429
610.017926	8086.358609
610.367171	8131.776884
610.716362	8111.844162
611.065500	8101.681196
611.414585	8127.592727
611.763616	8116.179554
612.112594	8100.393181
612.461518	8118.561500
612.810389	8173.308430
613.159207	8111.574460
613.507971	8060.868014
613.856682	8179.987959
614.205340	8138.312740
614.553945	8215.273516
614.902496	8115.957744
615.250994	8169.895569
615.599439	8151.747415
615.947830	8159.747727
616.296169	8128.580793
616.644454	8146.739029
616.992686	8143.222824
617.340864	8206.136424
617.688990	8108.506918
618.037063	8195.449178
618.385082	8145.035119
618.733048	8236.113646
619.080961	8166.694437
619.428821	8189.556069
619.776628	8195.900361
620.124382	8138.002709
620.472083	8124.900751
620.819731	8155.155235
621.167326	8046.294039
621.514868	8059.852222
621.862357	7940.361752
622.209793	7961.645504
622.557176	7898.603354
622.904506	7867.103705
623.251783	7807.091289
623.599007	7761.393229
623.946179	7761.181501
624.293297	7717.600726
624.640363	7640.413098
624.987376	7621.491128
625.334336	7562.270173
625.681243	7516.380549
626.028097	7504.032243
626.374899	7483.708831
626.721647	7479.010476
627.068343	7406.591780
627.414987	7378.031123
627.761577	7333.676531
628.108115	7373.219342
628.454600	7261.653566
628.801032	7317.436454
629.147412	7276.192254
629.493739	7267.967611
629.840014	7199.284411
630.186236	7262.772702
630.532405	7145.240721
630.878521	7191.425252
631.224585	7148.880434
631.570597	7075.624907
631.916556	7108.314269
632.262462	7101.344874
632.608316	7063.740387
632.954117	7045.877058
633.299866	7030.972887
633.645562	7025.558687
633.991206	6942.606501
634.336797	6888.383850
634.682336	6842.746284
635.027823	6810.114895
635.373257	6798.406816
635.718639	6732.813842
636.063968	6749.719352
636.409245	6643.179606
636.754470	6638.559389
637.099642	6598.363749
637.444762	6541.242434
637.789829	6553.827675
638.134845	6499.726012
638.479808	6477.262630
638.824719	6483.450647
639.169577	6414.185193
639.514383	6439.385921
639.859137	6364.721391
640.203839	6368.366146
640.548489	6360.043201
640.893086	6338.048646
641.237632	6308.414223
641.582125	6322.184135
641.926566	6298.276463
642.270955	6310.138298
