Dividing Wavelength (nm)	Counts (n)	Blue Motor Position (mm): 46.100000	Red Motor Position (mm): 0.000000	
326.493990	2274.271187
326.888308	2274.271187
327.282561	2274.271187
327.676750	2230.861812
328.070874	2227.620350
328.464933	2229.147819
328.858929	2232.956411
329.252859	2240.142576
329.646726	2245.513925
330.040528	2258.653693
330.434265	2269.948398
330.827938	2289.359361
331.221547	2307.273101
331.615091	2325.385967
332.008571	2344.252485
332.401986	2361.609178
332.795338	2385.368136
333.188625	2404.343039
333.581847	2421.034299
333.975006	2440.455344
334.368100	2459.357151
334.761129	2478.274081
335.154095	2494.246977
335.546996	2522.076666
335.939833	2560.439847
336.332606	2575.404512
336.725315	2589.532346
337.117960	2604.590272
337.510540	2612.978752
337.903056	2622.125926
338.295508	2633.743265
338.687896	2641.128556
339.080220	2647.924031
339.472480	2654.280926
339.864676	2659.095228
340.256807	2665.978923
340.648875	2670.052176
341.040879	2673.326405
341.432818	2673.296158
341.824694	2677.765141
342.216506	2677.472754
342.608253	2679.426201
342.999937	2679.650533
343.391557	2679.678259
343.783113	2679.355625
344.174605	2677.813032
344.566033	2677.387055
344.957397	2676.565347
345.348697	2675.390758
345.739934	2674.125428
346.131106	2673.391940
346.522215	2671.682989
346.913260	2671.100736
347.304241	2666.185611
347.695159	2663.622184
348.086012	2664.789211
348.476802	2663.831392
348.867528	2659.241421
349.258191	2652.410658
349.648789	2654.066677
350.039324	2652.607263
350.429796	2656.183962
350.820203	2654.028868
351.210548	2652.468631
351.600828	2652.292191
351.991045	2648.937303
352.381198	2648.158445
352.771288	2647.929072
353.161314	2649.517036
353.551276	2648.110554
353.941175	2647.959319
354.331010	2648.264309
354.720782	2647.974442
355.110490	2647.757673
355.500135	2648.612148
355.889717	2649.285142
356.279235	2646.378917
356.668689	2648.450832
357.058080	2647.976963
357.447408	2649.101140
357.836672	2649.960657
358.225873	2647.805564
358.615010	2649.514515
359.004084	2651.296563
359.393095	2652.209012
359.782043	2651.987201
360.170927	2653.386121
360.559748	2652.917294
360.948505	2654.258241
361.337199	2657.779487
361.725830	2654.802685
362.114398	2655.349651
362.502903	2656.173879
362.891344	2657.426606
363.279722	2658.286123
363.668037	2656.204126
364.056289	2658.805362
364.444478	2659.642193
364.832603	2660.491628
365.220665	2659.899292
365.608665	2660.179076
365.996601	2663.639828
366.384474	2662.467760
366.772284	2660.978099
367.160031	2662.576145
367.547715	2667.037566
367.935336	2666.011691
368.322893	2663.092863
368.710388	2664.927843
369.097820	2664.000271
369.485189	2663.102945
369.872495	2669.364058
370.259738	2665.943635
370.646918	2668.481856
371.034035	2670.649552
371.421090	2669.187618
371.808081	2673.079389
372.195010	2671.922444
372.581875	2673.785150
372.968678	2677.074503
373.355418	2680.469720
373.742096	2685.735205
374.128710	2689.458097
374.515262	2697.594520
374.901751	2705.015098
375.288177	2713.237220
375.674540	2730.127606
376.060841	2742.138155
376.447079	2762.857297
376.833254	2784.025102
377.219367	2800.388688
377.605417	2829.403049
377.991404	2849.517253
378.377329	2885.687532
378.763191	2904.811149
379.148991	2943.025615
379.534727	2984.852069
379.920402	3018.927748
380.306013	3043.717622
380.691563	3104.158536
381.077049	3131.836992
381.462474	3176.115966
381.847835	3232.062692
382.233134	3278.068262
382.618371	3313.265598
383.003545	3378.848489
383.388657	3411.452151
383.773706	3478.950681
384.158693	3514.301772
384.543618	3550.857699
384.928480	3613.620065
385.313280	3673.798839
385.698017	3701.724310
386.082692	3794.403403
386.467305	3802.318015
386.851856	3847.748893
387.236344	3928.755194
387.620770	3957.588074
388.005133	4013.812063
388.389435	4063.830391
388.773674	4073.358172
389.157851	4154.341788
389.541965	4220.985842
389.926018	4189.987787
390.310008	4294.513591
390.693936	4348.990820
391.077802	4383.192528
391.461606	4382.141448
391.845348	4451.117035
392.229027	4512.561139
392.612645	4511.603320
392.996200	4611.171149
393.379694	4674.122558
393.763125	4776.825985
394.146494	4806.977127
394.529801	4861.948389
394.913047	4946.440648
395.296230	4898.441301
395.679351	5005.729658
396.062410	5057.000713
396.445408	5026.627761
396.828343	5086.254529
397.211217	5146.115710
397.594028	5026.703379
397.976778	5141.470287
398.359466	5196.786868
398.742092	5214.264549
399.124656	5128.391013
399.507158	5252.521865
399.889598	5315.511083
400.271977	5435.959371
400.654294	5435.233445
401.036549	5477.682481
401.418742	5399.773969
401.800874	5601.364670
402.182944	5661.808105
402.564952	5767.742912
402.946898	5829.139124
403.328783	5668.207850
403.710606	5685.879614
404.092367	6004.399879
404.474067	6029.923241
404.855705	5925.422642
405.237282	5866.413416
405.618797	6118.445903
406.000250	6093.308189
406.381642	6303.675539
406.762972	6324.190514
407.144240	6375.612804
407.525447	6358.687130
407.906593	6379.544904
408.287677	6544.768722
408.668700	6456.455268
409.049661	6568.114305
409.430560	6595.389468
409.811399	6463.086906
410.192176	6725.867132
410.572891	6742.797848
410.953545	6934.449914
411.334138	6664.274315
411.714669	6837.475758
412.095139	6632.026053
412.475547	6879.213991
412.855894	6948.572706
413.236180	7127.321939
413.616405	6799.432690
413.996568	7013.575865
414.376670	7065.948412
414.756711	6954.496062
415.136691	7055.508182
415.516609	7256.251970
415.896466	7241.226811
416.276262	7449.118954
416.655997	7436.226203
417.035670	7603.582428
417.415283	7952.405069
417.794834	8015.366560
418.174324	7878.489151
418.553753	7798.251625
418.933121	8092.150895
419.312428	8198.720887
419.691674	7970.517935
420.070859	8453.062222
420.449983	8136.855847
420.829045	8501.618616
421.208047	8268.319057
421.586988	8581.886388
421.965867	8598.146630
422.344686	8692.776649
422.723444	8760.529757
423.102141	8100.708253
423.480777	8867.878607
423.859352	8395.068788
424.237866	9008.748610
424.616319	8875.352118
424.994712	9302.567221
425.373044	8844.757355
425.751314	9321.746291
426.129524	9203.959731
426.507673	9296.938773
426.885762	9447.560888
427.263789	9362.020069
427.641756	9311.558119
428.019662	9388.992763
428.397508	9664.290174
428.775292	9324.944903
429.153016	9703.510351
429.530679	9543.725939
429.908282	9555.187002
430.285824	9279.690465
430.663305	9970.633532
431.040726	9415.942771
431.418086	9399.622036
431.795385	9730.326769
432.172624	9830.973406
432.549802	9735.327594
432.926920	9812.709305
433.303977	9681.278863
433.680974	9881.742866
434.057910	9982.442435
434.434786	10059.020082
434.811601	9875.348162
435.188355	10436.980592
435.565050	10190.632006
435.941683	10098.726730
436.318257	10588.822666
436.694770	10760.390776
437.071222	10808.276696
437.447614	10633.336055
437.823946	10563.400127
438.200218	10649.752572
438.576429	10505.154636
438.952580	10750.182439
439.328670	10762.477813
439.704700	10565.172093
440.080670	10553.196832
440.456580	11083.639643
440.832429	10869.166273
441.208218	10467.492175
441.583947	10764.206929
441.959616	10946.689137
442.335224	10759.780796
442.710773	10862.489264
443.086261	11096.711354
443.461689	10364.569458
443.837057	11051.577904
444.212365	11287.627412
444.587612	10921.551423
444.962800	11138.578137
445.337927	10877.249763
445.712995	10546.698785
446.088002	11585.284862
446.462949	11280.947883
446.837837	11252.939233
447.212664	11177.510968
447.587431	11768.876123
447.962139	12513.033610
448.336786	14811.729187
448.711374	15301.449557
449.085901	13122.811579
449.460369	12762.820262
449.834776	12208.036240
450.209124	13147.314107
450.583412	13566.483529
450.957640	14490.529550
451.331808	13541.862534
451.705917	12607.129267
452.079965	11851.767816
452.453954	12768.115994
452.827883	12422.391143
453.201752	12710.034340
453.575562	12262.785692
453.949311	12670.967919
454.323001	12650.503355
454.696632	12893.363462
455.070202	13174.027182
455.443713	13365.712015
455.817164	13867.276576
456.190556	13823.647910
456.563888	14193.303119
456.937160	14328.829499
457.310373	13691.380636
457.683526	13801.799549
458.056619	13324.031755
458.429653	13532.238971
458.802628	12893.418914
459.175542	13305.273622
459.548398	14258.538170
459.921194	14618.426143
460.293930	14689.876937
460.666607	15531.946235
461.039224	16596.068277
461.411782	17317.633832
461.784280	17099.271212
462.156719	17214.262452
462.529099	16877.899023
462.901419	15838.196331
463.273680	15600.034579
463.645882	15504.512275
464.018024	15221.600201
464.390106	15454.657784
464.762130	16164.026268
465.134094	16964.586705
465.505999	19030.282673
465.877845	22299.012197
466.249631	25105.339364
466.621358	24714.924684
466.993026	23291.446510
467.364634	22707.176780
467.736184	21226.005121
468.107674	20438.546643
468.479105	20577.596790
468.850477	20023.636997
469.221790	19634.989241
469.593043	18940.068704
469.964238	18351.876955
470.335373	17996.538624
470.706449	18507.073918
471.077467	18102.012165
471.448425	19978.097733
471.819324	24119.173725
472.190164	25952.260772
472.560945	22257.273963
472.931667	19972.406271
473.302330	19362.963538
473.672934	18994.356890
474.043479	19215.464418
474.413965	19026.131282
474.784393	18623.625395
475.154761	19388.819616
475.525070	19308.088058
475.895321	19032.929278
476.265513	19637.078799
476.635645	20227.962524
477.005719	19975.060438
477.375734	20151.520988
477.745691	20646.398458
478.115588	21186.066580
478.485427	21753.319896
478.855207	22865.448846
479.224928	24645.399610
479.594591	26882.514973
479.964194	26777.041432
480.333739	27025.724072
480.703226	26606.453827
481.072653	26314.429867
481.442022	26941.625023
481.811333	27869.782104
482.180584	27739.717814
482.549777	26793.740254
482.918912	26473.105225
483.287988	26617.715765
483.657005	26223.971402
484.025964	26022.433633
484.394864	25889.654682
484.763706	25540.113677
485.132489	25016.877196
485.501213	25182.189234
485.869879	25096.794608
486.238487	24948.625014
486.607036	25080.287350
486.975527	24820.403266
487.343959	25120.485511
487.712333	25026.518403
488.080648	24690.981723
488.448905	25198.986358
488.817104	24970.722912
489.185244	25672.786764
489.553326	25616.620749
489.921350	26666.025142
490.289315	29033.716472
490.657222	30740.348695
491.025070	31236.662894
491.392861	30978.855766
491.760593	30133.938216
492.128267	29203.618480
492.495883	28152.260639
492.863440	27276.070292
493.230939	26415.255464
493.598380	26245.436635
493.965763	25864.552257
494.333088	25364.706729
494.700354	25339.773182
495.067563	25179.918194
495.434713	24936.352325
495.801805	25114.605005
496.168839	24885.136723
496.535815	24759.622074
496.902733	24964.408867
497.269593	24677.809188
497.636395	24832.824669
498.003139	24748.362657
498.369825	24497.696323
498.736453	24714.085332
499.103023	24595.109060
499.469535	24593.662248
499.835989	24815.019314
500.202385	24834.757952
500.568723	24380.053437
500.935003	24554.071547
501.301226	24258.339818
501.667390	25092.018115
502.033497	25283.448370
502.399546	25024.794328
502.765537	24555.974582
503.131470	24940.135711
503.497345	25094.952066
503.863163	24338.191695
504.228923	24862.824576
504.594625	25125.879545
504.960269	24675.339023
505.325856	25166.579301
505.691385	24548.619539
506.056856	25165.805484
506.422270	25149.457022
506.787625	24670.812067
507.152924	25113.024603
507.518164	25163.844475
507.883347	24957.638597
508.248472	24631.806139
508.613540	25414.236066
508.978550	25210.964140
509.343503	25223.249432
509.708398	25427.043117
510.073236	25591.001605
510.438016	25812.469576
510.802738	25462.759692
511.167403	25715.802930
511.532010	25467.132893
511.896561	26208.595883
512.261053	26183.490937
512.625488	26015.519691
512.989866	25904.851240
513.354186	25728.254580
513.718449	25863.455806
514.082655	26242.727015
514.446803	25955.290505
514.810894	26451.387935
515.174927	25942.044873
515.538904	25976.289432
515.902822	26479.628478
516.266684	26233.947846
516.630488	26134.165767
516.994235	26069.084471
517.357925	26420.616732
517.721558	26576.632881
518.085133	26691.089759
518.448651	26573.383858
518.812112	26349.808685
519.175516	26570.820431
519.538863	26719.206794
519.902152	26504.877097
520.265385	26760.445953
520.628560	26573.978714
520.991678	26546.685907
521.354739	26596.830264
521.717743	26700.589813
522.080690	26476.949105
522.443580	26803.106718
522.806413	26772.295186
523.169189	26891.241211
523.531908	26934.564887
523.894569	26569.744145
524.257174	26665.521027
524.619722	26794.133464
524.982213	26505.114032
525.344647	26532.147219
525.707025	26711.708078
526.069345	26650.107699
526.431608	26624.748174
526.793815	26791.950644
527.155964	26281.165813
527.518057	26468.847971
527.880093	26376.221810
528.242072	26598.340090
528.603995	26325.033934
528.965860	26101.262156
529.327669	26146.887119
529.689421	26136.651056
530.051117	25992.700908
530.412755	26153.448181
530.774337	25924.945280
531.135862	25820.003580
531.497331	26012.898291
531.858743	25607.511384
532.220098	26065.404429
532.581396	25750.843990
532.942638	25646.504709
533.303824	25776.316941
533.664953	25761.962255
534.026025	25425.961790
534.387040	25672.247361
534.747999	25714.792179
535.108902	25880.779731
535.469748	25391.810493
535.830537	25540.254830
536.191270	25689.457860
536.551947	25497.581462
536.912567	25125.982889
537.273131	25575.489974
537.633638	25238.698048
537.994089	25461.164167
538.354483	24944.347595
538.714821	25462.069054
539.075103	25503.966084
539.435328	25271.100064
539.795497	24882.094386
540.155609	25210.162596
540.515665	25539.977566
540.875665	24747.482976
541.235609	25087.395377
541.595496	25017.444326
541.955328	25382.630552
542.315102	25310.489120
542.674821	24821.466950
543.034483	24694.792836
543.394090	24867.948909
543.753640	24681.224570
544.113134	25309.400230
544.472571	24891.203751
544.831953	25203.697317
545.191278	24852.558266
545.550548	24739.044084
545.909761	24934.287973
546.268918	25169.614075
546.628019	25151.922146
546.987064	24834.788199
547.346053	24562.659152
547.704986	24664.762682
548.063863	24831.685368
548.422684	24853.385015
548.781449	24347.550597
549.140158	24754.782567
549.498811	24338.567261
549.857408	24104.657722
550.215949	24485.022863
550.574434	24185.502707
550.932864	24376.607808
551.291237	24581.087090
551.649555	24402.519339
552.007817	24492.950077
552.366022	24332.903525
552.724173	24348.715104
553.082267	24320.792152
553.440305	24812.375229
553.798288	24037.058370
554.156215	24526.254460
554.514086	24662.229502
554.871902	24054.760382
555.229661	24319.443644
555.587365	24161.784078
555.945014	24086.927984
556.302606	24278.905205
556.660143	24284.858808
557.017625	24500.123639
557.375050	24024.994889
557.732421	24414.252624
558.089735	24237.003134
558.446994	24276.654330
558.804197	24323.496732
559.161345	24219.462440
559.518437	24026.194683
559.875474	24190.715260
560.232455	24357.133831
560.589381	24176.773949
560.946251	24179.125647
561.303065	24469.163393
561.659825	24563.952208
562.016528	24173.603063
562.373177	23907.762856
562.729770	24268.364152
563.086307	24115.360092
563.442789	24290.164622
563.799216	24138.657785
564.155587	24126.783347
564.511904	24115.019814
564.868164	24066.894439
565.224370	24039.606673
565.580520	23978.119720
565.936615	24098.598256
566.292654	23791.665083
566.648638	24020.538509
567.004567	23867.037895
567.360441	23800.310662
567.716260	23537.734602
568.072023	23827.071627
568.427732	23620.165029
568.783385	23380.367423
569.138982	23633.398058
569.494525	23670.594212
569.850013	23429.314506
570.205445	23523.775647
570.560823	23355.363300
570.916145	23118.068627
571.271412	23304.876144
571.626625	23059.525707
571.981782	23160.497498
572.336884	22966.377787
572.691931	23101.624383
573.046923	22843.333304
573.401860	22717.866546
573.756743	22760.124018
574.111570	22640.958703
574.466342	22559.841497
574.821059	22638.102890
575.175722	22353.071010
575.530330	22296.284933
575.884882	22311.320174
576.239380	22238.455336
576.593823	22130.183954
576.948211	22106.873659
577.302544	21956.496040
577.656823	21812.339204
578.011047	21928.673912
578.365216	21791.463786
578.719330	21670.256804
579.073389	21545.636960
579.427394	21708.365406
579.781344	21464.847429
580.135239	21337.339004
580.489080	21282.390427
580.842866	21078.163202
581.196597	21303.374230
581.550273	21243.364334
581.903895	21123.415120
582.257463	21437.390784
582.610975	20971.704115
582.964434	21299.689146
583.317837	20974.446503
583.671186	21049.811753
584.024481	21053.315355
584.377721	20811.864250
584.730906	20902.794063
585.084037	20879.110722
585.437113	20806.818055
585.790135	21005.046307
586.143103	20469.070830
586.496016	20492.353399
586.848874	20734.734597
587.201679	20623.088162
587.554428	20338.507466
587.907124	20681.941113
588.259765	20426.652041
588.612352	20497.868421
588.964884	20068.488142
589.317362	20240.930892
589.669786	20309.556119
590.022155	20292.043151
590.374470	20545.189733
590.726731	20302.254008
591.078937	20097.356310
591.431090	20176.315903
591.783188	19939.616086
592.135232	19908.943185
592.487222	19996.429889
592.839157	20008.992445
593.191038	19885.557272
593.542866	19787.332910
593.894639	19482.292691
594.246358	19695.951914
594.598022	19580.491847
594.949633	19347.353605
595.301190	19331.484053
595.652692	19496.559156
596.004141	19716.933197
596.355535	19050.091887
596.706876	19067.100740
597.058162	18967.719433
597.409395	19197.737200
597.760573	19244.231762
598.111698	19013.120064
598.462768	18969.657756
598.813785	18957.044789
599.164748	18733.479699
599.515657	18801.373959
599.866511	18605.320965
600.217312	18947.895095
600.568060	18453.415876
600.918753	18769.077807
601.269392	18663.964708
601.619978	18467.485737
601.970510	18651.480290
602.320988	18603.165872
602.671412	18796.468916
603.021783	18737.830214
603.372100	18434.861909
603.722363	18595.241178
604.072572	18541.409217
604.422728	18684.731741
604.772830	18433.505839
605.122878	18406.548269
605.472872	18382.738899
605.822813	18363.406074
606.172701	18354.027008
606.522534	18518.333335
606.872314	18552.582934
607.222041	18390.346000
607.571714	18603.357436
607.921333	18430.024922
608.270899	18502.846910
608.620411	18652.153284
608.969870	18455.177759
609.319276	18446.610318
609.668627	18472.589905
610.017926	18617.573489
610.367171	18725.655828
610.716362	18783.142626
611.065500	18590.822607
611.414585	18745.979240
611.763616	18729.673628
612.112594	18658.762237
612.461518	18639.721799
612.810389	18822.004881
613.159207	18685.245939
613.507971	18593.859902
613.856682	18844.314507
614.205340	18753.311598
614.553945	18920.768646
614.902496	18674.422581
615.250994	18871.519094
615.599439	18826.630139
615.947830	18813.200506
616.296169	18883.922853
616.644454	18846.482203
616.992686	18824.568308
617.340864	19036.160658
617.688990	18798.291293
618.037063	18959.736766
618.385082	18829.039811
618.733048	19094.012939
619.080961	18991.864039
619.428821	19012.371453
619.776628	18878.279281
620.124382	18814.296957
620.472083	18872.570174
620.819731	18884.079129
621.167326	18565.266477
621.514868	18610.036964
621.862357	18404.098268
622.209793	18391.661742
622.557176	18218.588848
622.904506	18051.043579
623.251783	17998.068614
623.599007	17736.049602
623.946179	17679.671857
624.293297	17605.282071
624.640363	17328.139597
624.987376	17366.210391
625.334336	17159.999472
625.681243	17012.371802
626.028097	17032.909463
626.374899	16942.398066
626.721647	16812.666493
627.068343	16649.736400
627.414987	16576.248980
627.761577	16548.472222
628.108115	16572.001808
628.454600	16308.115048
628.801032	16408.877631
629.147412	16347.141141
629.493739	16350.042325
629.840014	16168.530539
630.186236	16269.101559
630.532405	16034.597164
630.878521	16227.484313
631.224585	16125.340454
631.570597	15948.547188
631.916556	15974.241950
632.262462	15945.663648
632.608316	15872.337545
632.954117	15810.472505
633.299866	15802.983871
633.645562	15720.208125
633.991206	15487.740357
634.336797	15363.188568
634.682336	15319.416230
635.027823	15186.722978
635.373257	15059.365788
635.718639	14972.680627
636.063968	14914.641823
