Dividing Wavelength (nm)	Counts (n)	Blue Motor Position (mm): 24.600000	Red Motor Position (mm): 0.000000	
326.493990	2131.450258
326.888308	2131.450258
327.282561	2131.450258
327.676750	2099.834661
328.070874	2098.181163
328.464933	2099.123859
328.858929	2106.080651
329.252859	2117.027517
329.646726	2126.353651
330.040528	2141.630868
330.434265	2158.538898
330.827938	2177.478513
331.221547	2193.816893
331.615091	2214.162989
332.008571	2232.560680
332.401986	2251.792682
332.795338	2270.916299
333.188625	2291.627880
333.581847	2309.148410
333.975006	2328.975268
334.368100	2344.910356
334.761129	2363.827285
335.154095	2380.173227
335.546996	2397.721483
335.939833	2422.697880
336.332606	2439.411826
336.725315	2450.630913
337.117960	2461.630711
337.510540	2465.875363
337.903056	2482.841366
338.295508	2485.760194
338.687896	2496.152533
339.080220	2506.111332
339.472480	2511.187774
339.864676	2513.902435
340.256807	2518.711696
340.648875	2525.434075
341.040879	2525.121523
341.432818	2527.019518
341.824694	2530.109745
342.216506	2528.433561
342.608253	2527.528674
342.999937	2527.364837
343.391557	2528.463808
343.783113	2525.678571
344.174605	2525.865093
344.566033	2525.371060
344.957397	2523.435257
345.348697	2521.159176
345.739934	2519.301511
346.131106	2519.233456
346.522215	2518.018538
346.913260	2514.635923
347.304241	2511.523011
347.695159	2512.495953
348.086012	2509.708195
348.476802	2508.064779
348.867528	2507.064110
349.258191	2503.900786
349.648789	2502.859788
350.039324	2500.014057
350.429796	2502.093533
350.820203	2496.293685
351.210548	2499.938439
351.600828	2497.188490
351.991045	2496.737307
352.381198	2497.901813
352.771288	2494.748571
353.161314	2496.694457
353.551276	2495.224960
353.941175	2496.986844
354.331010	2494.861997
354.720782	2491.239928
355.110490	2494.478870
355.500135	2492.863180
355.889717	2497.914416
356.279235	2494.456184
356.668689	2496.240753
357.058080	2495.497183
357.447408	2490.640031
357.836672	2491.998622
358.225873	2497.712770
358.615010	2492.812768
359.004084	2498.252173
359.393095	2497.243943
359.782043	2499.489777
360.170927	2500.034221
360.559748	2500.412308
360.948505	2499.177225
361.337199	2500.679489
361.725830	2500.535816
362.114398	2503.568070
362.502903	2500.170332
362.891344	2502.093532
363.279722	2501.407936
363.668037	2503.379027
364.056289	2503.076558
364.444478	2505.050169
364.832603	2504.241064
365.220665	2504.949346
365.608665	2506.071003
365.996601	2506.144100
366.384474	2506.408760
366.772284	2509.181395
367.160031	2507.323730
367.547715	2507.048987
367.935336	2509.451097
368.322893	2506.378513
368.710388	2507.583349
369.097820	2510.814729
369.485189	2510.247599
369.872495	2508.720129
370.259738	2509.625016
370.646918	2509.854389
371.034035	2508.145438
371.421090	2511.603669
371.808081	2510.361025
372.195010	2511.999400
372.581875	2509.577125
372.968678	2512.624503
373.355418	2513.282373
373.742096	2514.328413
374.128710	2511.717095
374.515262	2514.893022
374.901751	2511.091992
375.288177	2513.519308
375.674540	2511.124760
376.060841	2514.093999
376.447079	2512.085099
376.833254	2512.881602
377.219367	2507.656446
377.605417	2511.777589
377.991404	2508.773061
378.377329	2512.553927
378.763191	2512.611900
379.148991	2516.624658
379.534727	2514.668691
379.920402	2514.535100
380.306013	2515.311438
380.691563	2516.375121
381.077049	2516.251613
381.462474	2514.724143
381.847835	2515.225738
382.233134	2515.981911
382.618371	2516.589370
383.003545	2516.017199
383.388657	2519.714886
383.773706	2518.068949
384.158693	2518.638599
384.543618	2519.908970
384.928480	2516.859072
385.313280	2519.601460
385.698017	2519.064577
386.082692	2520.823940
386.467305	2519.553569
386.851856	2517.050636
387.236344	2519.314114
387.620770	2522.323683
388.005133	2521.743950
388.389435	2520.211439
388.773674	2520.019876
389.157851	2518.225225
389.541965	2519.692201
389.926018	2523.573889
390.310008	2521.156656
390.693936	2522.066584
391.077802	2521.373425
391.461606	2520.430730
391.845348	2521.360822
392.229027	2524.088087
392.612645	2521.428878
392.996200	2523.301667
393.379694	2523.278982
393.763125	2524.781245
394.146494	2523.044568
394.529801	2523.498272
394.913047	2524.632531
395.296230	2527.107738
395.679351	2525.055988
396.062410	2523.508354
396.445408	2524.004908
396.828343	2525.718900
397.211217	2519.251100
397.594028	2524.327542
397.976778	2520.823940
398.359466	2526.706966
398.742092	2520.609691
399.124656	2527.271575
399.507158	2525.676050
399.889598	2526.767460
400.271977	2523.621780
400.654294	2527.057326
401.036549	2527.372398
401.418742	2525.330731
401.800874	2527.944569
402.182944	2530.119827
402.564952	2527.579086
402.946898	2530.843233
403.328783	2525.519774
403.710606	2529.545136
404.092367	2526.797707
404.474067	2528.854498
404.855705	2528.378109
405.237282	2531.417924
405.618797	2530.596216
406.000250	2528.990609
406.381642	2531.042358
406.762972	2529.323325
407.144240	2531.498583
407.525447	2531.284334
407.906593	2531.115455
408.287677	2529.895496
408.668700	2529.923222
409.049661	2530.951618
409.430560	2530.749972
409.811399	2532.932791
410.192176	2529.610671
410.572891	2530.059333
410.953545	2531.722914
411.334138	2532.655528
411.714669	2534.286341
412.095139	2530.704601
412.475547	2534.820703
412.855894	2531.191072
413.236180	2531.987575
413.616405	2531.906916
413.996568	2533.510003
414.376670	2534.805580
414.756711	2531.710311
415.136691	2534.709798
415.516609	2531.407842
415.896466	2534.006557
416.276262	2537.351363
416.655997	2528.521782
417.035670	2533.139478
417.415283	2535.113090
417.794834	2528.947759
418.174324	2533.542771
418.553753	2533.946063
418.933121	2533.265507
419.312428	2536.098636
419.691674	2534.974458
420.070859	2536.811959
420.449983	2536.471681
420.829045	2535.612164
421.208047	2539.133410
421.586988	2537.326157
421.965867	2537.323636
422.344686	2537.716846
422.723444	2536.133924
423.102141	2533.578059
423.480777	2541.966539
423.859352	2537.313554
424.237866	2537.058976
424.616319	2538.634336
424.994712	2537.094264
425.373044	2538.709953
425.751314	2536.935467
426.129524	2539.448483
426.507673	2537.202648
426.885762	2539.665252
427.263789	2539.755993
427.641756	2539.582073
428.019662	2540.781868
428.397508	2537.442103
428.775292	2540.796991
429.153016	2539.272042
429.530679	2542.649615
429.908282	2541.394368
430.285824	2540.945705
430.663305	2539.864378
431.040726	2542.155582
431.418086	2540.035777
431.795385	2542.495860
432.172624	2540.262629
432.549802	2542.725232
432.926920	2541.467465
433.303977	2545.376879
433.680974	2543.763710
434.057910	2539.022505
434.434786	2542.889070
434.811601	2545.752445
435.188355	2542.775644
435.565050	2544.567774
435.941683	2541.926210
436.318257	2543.748587
436.694770	2539.405633
437.071222	2541.467465
437.447614	2540.179450
437.823946	2539.909748
438.200218	2542.397557
438.576429	2539.965201
438.952580	2544.434184
439.328670	2545.092054
439.704700	2546.405275
440.080670	2546.029709
440.456580	2546.354863
440.832429	2546.007024
441.208218	2542.919317
441.583947	2546.536345
441.959616	2545.722198
442.335224	2545.434853
442.710773	2547.675646
443.086261	2549.545914
443.461689	2549.591284
443.837057	2545.545758
444.212365	2548.792261
444.587612	2550.123126
444.962800	2550.329813
445.337927	2546.886705
445.712995	2546.498536
446.088002	2549.230842
446.462949	2546.838814
446.837837	2551.194371
447.212664	2550.412992
447.587431	2550.206305
447.962139	2552.595812
448.336786	2556.517829
448.711374	2553.599001
449.085901	2555.849877
449.460369	2552.663867
449.834776	2554.967675
450.209124	2555.928014
450.583412	2558.249466
450.957640	2559.489590
451.331808	2559.537481
451.705917	2560.802810
452.079965	2564.079560
452.453954	2564.286248
452.827883	2565.531412
453.201752	2570.222206
453.575562	2569.587021
453.949311	2572.914182
454.323001	2576.765624
454.696632	2580.483475
455.070202	2585.680904
455.443713	2588.745926
455.817164	2593.562748
456.190556	2595.730445
456.563888	2602.682196
456.937160	2607.370469
457.310373	2614.823815
457.683526	2618.639968
458.056619	2623.529887
458.429653	2629.120527
458.802628	2631.381485
459.175542	2643.162661
459.548398	2659.692605
459.921194	2675.126097
460.293930	2682.425688
460.666607	2712.750749
461.039224	2739.483988
461.411782	2752.119640
461.784280	2762.378388
462.156719	2768.967176
462.529099	2780.282046
462.901419	2774.033536
463.273680	2779.442694
463.645882	2790.921401
464.018024	2806.680048
464.390106	2828.326762
464.762130	2864.310519
465.134094	2925.966351
465.505999	3035.402239
465.877845	3159.681805
466.249631	3224.329562
466.621358	3211.512428
466.993026	3189.152390
467.364634	3190.795806
467.736184	3191.219263
468.107674	3196.915767
468.479105	3240.975452
468.850477	3238.245667
469.221790	3249.000969
469.593043	3244.451327
469.964238	3266.554266
470.335373	3300.335038
470.706449	3346.532172
471.077467	3382.296638
471.448425	3613.126032
471.819324	3825.209894
472.190164	3863.983929
472.560945	3716.852813
472.931667	3645.323881
473.302330	3661.392559
473.672934	3649.855878
474.043479	3756.869492
474.413965	3791.933238
474.784393	3827.402796
475.154761	3907.584869
475.525070	3977.369562
475.895321	3992.863548
476.265513	4083.571550
476.635645	4179.131662
477.005719	4248.439966
477.375734	4326.267819
477.745691	4454.769351
478.115588	4557.311462
478.485427	4693.853634
478.855207	4920.839148
479.224928	5258.414974
479.594591	5532.704155
479.964194	5552.679727
480.333739	5597.394762
480.703226	5676.223284
481.072653	5787.080778
481.442022	5981.548329
481.811333	6129.957377
482.180584	6147.288864
482.549777	6134.927955
482.918912	6154.142313
483.287988	6255.345997
483.657005	6345.847311
484.025964	6305.848276
484.394864	6447.741633
484.763706	6532.826228
485.132489	6497.457493
485.501213	6570.418112
485.869879	6687.123344
486.238487	6715.235339
486.607036	6835.325706
486.975527	6831.610375
487.343959	6998.452403
487.712333	7118.610826
488.080648	7161.440469
488.448905	7280.043695
488.817104	7328.665624
489.185244	7567.021460
489.553326	7755.414421
489.921350	8143.484964
490.289315	8848.729784
490.657222	9138.182756
491.025070	9192.642341
491.392861	9210.485505
491.760593	9086.707534
492.128267	8973.331984
492.495883	8853.360084
492.863440	8715.053508
493.230939	8579.191891
493.598380	8605.642825
493.965763	8601.879604
494.333088	8591.169673
494.700354	8617.897870
495.067563	8723.028613
495.434713	8671.636570
495.801805	8829.482659
496.168839	8843.512190
496.535815	8867.855922
496.902733	8917.775948
497.269593	8938.863095
497.636395	9066.938649
498.003139	9128.967527
498.369825	9075.402747
498.736453	9262.459801
499.103023	9256.256661
499.469535	9347.793933
499.835989	9389.058298
500.202385	9405.910875
500.568723	9334.775153
500.935003	9566.506913
501.301226	9463.190986
501.667390	9711.132576
502.033497	9852.587353
502.399546	9779.490622
502.765537	9744.479808
503.131470	9855.002065
503.497345	10052.756448
503.863163	9739.572245
504.228923	10063.534435
504.594625	10155.487602
504.960269	9968.818716
505.325856	10195.731133
505.691385	10045.913082
506.056856	10222.897911
506.422270	10277.118042
506.787625	10203.290343
507.152924	10338.181538
507.518164	10349.723260
507.883347	10312.264966
508.248472	10260.298232
508.613540	10504.900058
508.978550	10418.451831
509.343503	10423.576164
509.708398	10550.434280
510.073236	10679.417242
510.438016	10709.031500
510.802738	10673.851808
511.167403	10745.637839
511.532010	10674.008084
511.896561	10903.564586
512.261053	10991.802422
512.625488	10880.304702
512.989866	10879.672037
513.354186	10883.132789
513.718449	10811.218209
514.082655	11000.286684
514.446803	10918.148644
514.810894	11045.745289
515.174927	10926.239696
515.538904	10960.973246
515.902822	11117.664910
516.266684	11008.092911
516.630488	10960.975767
516.994235	11035.811695
517.357925	11102.017169
517.721558	11197.332785
518.085133	11214.691998
518.448651	11229.518032
518.812112	11125.413164
519.175516	11138.162242
519.538863	11270.081676
519.902152	11183.363748
520.265385	11348.519510
520.628560	11257.816549
520.991678	11249.861608
521.354739	11319.111939
521.717743	11252.735066
522.080690	11239.499517
522.443580	11370.110772
522.806413	11328.548979
523.169189	11363.504339
523.531908	11425.684452
523.894569	11248.334139
524.257174	11248.210630
524.619722	11367.748991
524.982213	11318.696043
525.344647	11375.250228
525.707025	11328.508649
526.069345	11426.758217
526.431608	11341.345948
526.793815	11455.752414
527.155964	11243.678633
527.518057	11301.190637
527.880093	11247.744324
528.242072	11319.220323
528.603995	11225.338915
528.965860	11146.530557
529.327669	11206.699249
529.689421	11153.351238
530.051117	11131.313834
530.412755	11228.799667
530.774337	11116.142482
531.135862	11098.692528
531.497331	11123.512649
531.858743	10976.971348
532.220098	11143.286575
532.581396	11013.678509
532.942638	10999.543114
533.303824	10968.232508
533.664953	10979.073509
534.026025	10895.763400
534.387040	10990.746301
534.747999	10990.159006
535.108902	11053.980014
535.469748	10810.605709
535.830537	10922.557133
536.191270	10896.312886
536.551947	10915.789384
536.912567	10917.417677
537.273131	10844.436892
537.633638	10822.202883
537.994089	10818.787502
538.354483	10771.861921
538.714821	10909.308981
539.075103	10922.985631
539.435328	10883.576411
539.795497	10709.991840
540.155609	10870.860100
540.515665	10949.822214
540.875665	10693.968533
541.235609	10757.524880
541.595496	10759.926989
541.955328	10914.151009
542.315102	10796.976950
542.674821	10743.787735
543.034483	10741.867056
543.394090	10749.907696
543.753640	10681.947901
544.113134	10899.120809
544.472571	10754.505228
544.831953	10899.511498
545.191278	10705.684174
545.550548	10732.382125
545.909761	10872.402693
546.268918	10846.402943
546.628019	10926.469068
546.987064	10791.535024
547.346053	10712.837571
547.704986	10814.106790
548.063863	10800.057095
548.422684	10792.127360
548.781449	10709.520492
549.140158	10811.777777
549.498811	10685.320433
549.857408	10547.374299
550.215949	10776.519947
550.574434	10629.199788
550.932864	10715.600124
551.291237	10781.661924
551.649555	10730.766435
552.007817	10746.348642
552.366022	10711.589886
552.724173	10697.386435
553.082267	10681.169043
553.440305	10820.451083
553.798288	10625.650816
554.156215	10774.437951
554.514086	10759.831208
554.871902	10601.291960
555.229661	10635.629780
555.587365	10612.596748
555.945014	10506.614050
556.302606	10631.281784
556.660143	10535.267968
557.017625	10680.914465
557.375050	10581.165153
557.732421	10715.090967
558.089735	10629.262802
558.446994	10627.954623
558.804197	10661.836218
559.161345	10668.155304
559.518437	10517.568477
559.875474	10602.547208
560.232455	10636.073401
560.589381	10584.061296
560.946251	10580.189690
561.303065	10687.727584
561.659825	10620.939857
562.016528	10554.671369
562.373177	10433.650910
562.729770	10546.703826
563.086307	10463.388676
563.442789	10552.841431
563.799216	10438.601323
564.155587	10484.785854
564.511904	10438.931518
564.868164	10427.120095
565.224370	10441.305902
565.580520	10364.637513
565.936615	10368.977947
566.292654	10240.683102
566.648638	10377.421880
567.004567	10336.371764
567.360441	10314.735132
567.716260	10226.696421
568.072023	10319.478857
568.427732	10273.942115
568.783385	10180.569863
569.138982	10252.081151
569.494525	10266.821485
569.850013	10148.966870
570.205445	10226.330937
570.560823	10122.909145
570.916145	10037.474191
571.271412	10109.345921
571.626625	10051.954905
571.981782	10031.984374
572.336884	10001.689560
572.691931	10010.468729
573.046923	9963.160021
573.401860	9917.998844
573.756743	9845.229789
574.111570	9894.328107
574.466342	9874.375220
574.821059	9903.694570
575.175722	9793.855390
575.530330	9803.572214
575.884882	9799.171287
576.239380	9728.993384
576.593823	9698.781749
576.948211	9718.026354
577.302544	9597.487324
577.656823	9616.187484
578.011047	9614.312175
578.365216	9587.460469
578.719330	9517.393472
579.073389	9524.125933
579.427394	9467.866656
579.781344	9450.605745
580.135239	9398.341582
580.489080	9405.868025
580.842866	9306.017891
581.196597	9313.786309
581.550273	9359.441519
581.903895	9332.017642
582.257463	9392.045181
582.610975	9266.283516
582.964434	9289.366960
583.317837	9222.246517
583.671186	9195.407414
584.024481	9193.514461
584.377721	9110.716029
584.730906	9087.216691
585.084037	9122.202298
585.437113	9058.303153
585.790135	9074.608765
586.143103	8968.096746
586.496016	8945.731667
586.848874	9006.782560
587.201679	8998.981375
587.554428	8881.356132
587.907124	8927.502854
588.259765	8899.716014
588.612352	8903.824555
588.964884	8776.905945
589.317362	8797.773801
589.669786	8791.966392
590.022155	8839.007919
590.374470	8858.766722
590.726731	8789.551679
591.078937	8650.839290
591.431090	8755.372656
591.783188	8629.492524
592.135232	8628.907750
592.487222	8626.203171
592.839157	8676.168568
593.191038	8612.947457
593.542866	8554.429743
593.894639	8459.557749
594.246358	8500.839758
594.598022	8522.864559
594.949633	8421.703724
595.301190	8401.985251
595.652692	8422.490144
596.004141	8533.403091
596.355535	8311.914955
596.706876	8292.977861
597.058162	8228.095690
597.409395	8308.134090
597.760573	8366.747586
598.111698	8276.394985
598.462768	8262.839323
598.813785	8226.721976
599.164748	8194.788787
599.515657	8179.763628
599.866511	8094.769774
600.217312	8222.762150
600.568060	8081.488854
600.918753	8183.955347
601.269392	8155.374526
601.619978	8068.102070
601.970510	8124.890668
602.320988	8126.100545
602.671412	8177.800098
603.021783	8120.862786
603.372100	8089.201820
603.722363	8091.341789
604.072572	8068.129797
604.422728	8081.357784
604.772830	8008.462700
605.122878	8014.194492
605.472872	8011.686517
605.822813	8041.875467
606.172701	7980.181827
606.522534	8060.948673
606.872314	8056.192344
607.222041	8029.693519
607.571714	8083.253258
607.921333	8041.371352
608.270899	8049.001138
608.620411	8141.677711
608.969870	8051.804020
609.319276	8040.602576
609.668627	8053.155049
610.017926	8086.862724
610.367171	8138.698389
610.716362	8112.411292
611.065500	8103.445600
611.414585	8130.461143
611.763616	8115.231818
612.112594	8102.596165
612.461518	8112.081096
612.810389	8177.089296
613.159207	8114.808361
613.507971	8062.846667
613.856682	8186.521295
614.205340	8139.078996
614.553945	8218.401552
614.902496	8111.697969
615.250994	8166.807863
615.599439	8152.881675
615.947830	8162.122110
616.296169	8136.147565
616.644454	8151.659195
616.992686	8149.564596
617.340864	8201.589303
617.688990	8111.405582
618.037063	8202.441258
618.385082	8149.375552
618.733048	8230.714570
619.080961	8169.436824
619.428821	8187.587499
619.776628	8190.082870
620.124382	8148.178278
620.472083	8126.740772
620.819731	8150.424113
621.167326	8046.369656
621.514868	8054.553969
621.862357	7945.854089
622.209793	7969.484498
622.557176	7901.733911
622.904506	7871.169395
623.251783	7801.170453
623.599007	7751.860407
623.946179	7761.194103
624.293297	7720.050726
624.640363	7639.727502
624.987376	7617.538863
625.334336	7566.837458
625.681243	7520.473966
626.028097	7501.436049
626.374899	7475.572409
626.721647	7476.414282
627.068343	7408.741832
627.414987	7380.224025
627.761577	7338.090061
628.108115	7376.296966
628.454600	7268.174298
628.801032	7316.224056
629.147412	7277.255937
629.493739	7267.624813
629.840014	7203.771037
630.186236	7259.858915
630.532405	7142.669732
630.878521	7191.221085
631.224585	7146.092676
631.570597	7072.937972
631.916556	7108.951975
632.262462	7105.493743
632.608316	7065.850109
632.954117	7040.614093
633.299866	7034.819287
633.645562	7018.783377
633.991206	6942.379649
634.336797	6884.653396
634.682336	6840.152611
635.027823	6810.210677
635.373257	6804.105840
635.718639	6732.481126
636.063968	6749.510144
636.409245	6641.798330
636.754470	6641.475696
637.099642	6597.569767
637.444762	6547.405245
637.789829	6552.869856
638.134845	6498.662328
638.479808	6481.257745
638.824719	6486.515668
639.169577	6416.408342
639.514383	6433.563388
639.859137	6361.837851
640.203839	6372.169696
640.548489	6353.361151
640.893086	6332.342060
641.237632	6304.580426
641.582125	6325.990206
