Dividing Wavelength (nm)	Counts (n)	Blue Motor Position (mm): 18.500000	Red Motor Position (mm): 0.000000	
326.493990	2157.961686
326.888308	2157.961686
327.282561	2157.961686
327.676750	2131.921606
328.070874	2131.876235
328.464933	2138.893521
328.858929	2148.655716
329.252859	2158.422951
329.646726	2172.417194
330.040528	2185.819102
330.434265	2208.216948
330.827938	2227.932901
331.221547	2246.020561
331.615091	2265.739034
332.008571	2286.369957
332.401986	2305.917031
332.795338	2324.155925
333.188625	2343.569409
333.581847	2365.299302
333.975006	2380.689945
334.368100	2405.772206
334.761129	2420.706624
335.154095	2436.498039
335.546996	2460.849332
335.939833	2485.659371
336.332606	2499.996413
336.725315	2514.812364
337.117960	2519.210770
337.510540	2525.454239
337.903056	2536.315405
338.295508	2544.391334
338.687896	2550.904505
339.080220	2560.288612
339.472480	2564.664334
339.864676	2565.387740
340.256807	2569.987792
340.648875	2573.771178
341.040879	2573.748493
341.432818	2573.594738
341.824694	2579.102199
342.216506	2577.438618
342.608253	2575.270922
342.999937	2577.572208
343.391557	2575.974163
343.783113	2575.306210
344.174605	2573.617423
344.566033	2569.387895
344.957397	2568.840930
345.348697	2565.642318
345.739934	2567.048800
346.131106	2563.794735
346.522215	2560.495300
346.913260	2558.783828
347.304241	2560.540670
347.695159	2557.354661
348.086012	2556.049002
348.476802	2554.019938
348.867528	2552.568085
349.258191	2553.442726
349.648789	2553.972047
350.039324	2550.796120
350.429796	2548.114226
350.820203	2546.236396
351.210548	2545.351674
351.600828	2546.198588
351.991045	2544.761859
352.381198	2547.234545
352.771288	2545.321427
353.161314	2545.719678
353.551276	2546.450645
353.941175	2546.927034
354.331010	2544.920655
354.720782	2545.328988
355.110490	2546.806047
355.500135	2544.383772
355.889717	2547.630275
356.279235	2547.547096
356.668689	2546.606921
357.058080	2547.090872
357.447408	2542.997455
357.836672	2543.609955
358.225873	2547.282436
358.615010	2543.360418
359.004084	2548.550286
359.393095	2550.715461
359.782043	2550.284443
360.170927	2550.153373
360.559748	2551.259906
360.948505	2550.438198
361.337199	2551.317879
361.725830	2551.801830
362.114398	2550.337375
362.502903	2552.540359
362.891344	2552.605894
363.279722	2554.390462
363.668037	2554.014897
364.056289	2554.138405
364.444478	2558.867007
364.832603	2557.936914
365.220665	2557.004301
365.608665	2554.503888
365.996601	2555.484393
366.384474	2555.746533
366.772284	2555.996070
367.160031	2555.799465
367.547715	2558.950186
367.935336	2558.612429
368.322893	2559.774415
368.710388	2558.178890
369.097820	2561.052347
369.485189	2558.342727
369.872495	2559.555125
370.259738	2559.794579
370.646918	2560.346586
371.034035	2560.550753
371.421090	2560.611246
371.808081	2558.531770
372.195010	2561.291802
372.581875	2560.230639
372.968678	2560.563355
373.355418	2561.238870
373.742096	2562.345403
374.128710	2563.404046
374.515262	2561.669889
374.901751	2561.437996
375.288177	2561.964796
375.674540	2562.698284
376.060841	2562.042934
376.447079	2564.122410
376.833254	2562.486556
377.219367	2561.889179
377.605417	2558.703170
377.991404	2559.635783
378.377329	2559.741647
378.763191	2560.475135
379.148991	2563.126782
379.534727	2566.131310
379.920402	2566.527040
380.306013	2564.545867
380.691563	2566.456464
381.077049	2565.586865
381.462474	2564.278686
381.847835	2567.376475
382.233134	2568.218347
382.618371	2568.435117
383.003545	2568.782957
383.388657	2567.111814
383.773706	2568.999726
384.158693	2567.978893
384.543618	2567.126938
384.928480	2568.165415
385.313280	2568.024263
385.698017	2566.090981
386.082692	2569.279510
386.467305	2567.053841
386.851856	2567.605847
387.236344	2566.136351
387.620770	2573.526683
388.005133	2569.503842
388.389435	2572.054666
388.773674	2572.205900
389.157851	2566.947977
389.541965	2571.782443
389.926018	2570.368400
390.310008	2570.738924
390.693936	2569.803790
391.077802	2571.797567
391.461606	2572.102557
391.845348	2572.881415
392.229027	2574.446693
392.612645	2570.507031
392.996200	2573.917372
393.379694	2573.556929
393.763125	2572.173133
394.146494	2571.661456
394.529801	2575.671693
394.913047	2572.800756
395.296230	2576.712692
395.679351	2574.625654
396.062410	2573.902248
396.445408	2573.743452
396.828343	2574.310582
397.211217	2572.692372
397.594028	2572.581466
397.976778	2572.415108
398.359466	2570.335632
398.742092	2569.682803
399.124656	2576.334605
399.507158	2576.047259
399.889598	2577.912486
400.271977	2577.146231
400.654294	2577.357959
401.036549	2573.859399
401.418742	2575.840572
401.800874	2577.327712
402.182944	2574.872671
402.564952	2576.480799
402.946898	2579.394586
403.328783	2575.654049
403.710606	2576.442990
404.092367	2579.954154
404.474067	2579.172775
404.855705	2578.540110
405.237282	2579.092116
405.618797	2576.639595
406.000250	2579.318968
406.381642	2579.013978
406.762972	2578.472054
407.144240	2576.987435
407.525447	2581.108578
407.906593	2580.496078
408.287677	2579.782754
408.668700	2581.685790
409.049661	2579.694534
409.430560	2580.516242
409.811399	2582.381469
410.192176	2580.551530
410.572891	2579.971798
410.953545	2578.635892
411.334138	2582.013465
411.714669	2580.420460
412.095139	2580.790985
412.475547	2581.897518
412.855894	2581.030440
413.236180	2582.653692
413.616405	2583.087231
413.996568	2581.138825
414.376670	2583.755184
414.756711	2584.581933
415.136691	2583.372056
415.516609	2582.867941
415.896466	2580.957343
416.276262	2583.533373
416.655997	2579.016499
417.035670	2579.026581
417.415283	2581.695872
417.794834	2580.029771
418.174324	2578.162023
418.553753	2580.319637
418.933121	2583.561099
419.312428	2584.307190
419.691674	2583.621593
420.070859	2584.458425
420.449983	2584.486151
420.829045	2583.329206
421.208047	2582.946078
421.586988	2584.687797
421.965867	2584.382807
422.344686	2584.486151
422.723444	2586.452201
423.102141	2584.319793
423.480777	2583.596387
423.859352	2585.133939
424.237866	2585.678384
424.616319	2587.765422
424.994712	2587.553693
425.373044	2587.125195
425.751314	2586.855493
426.129524	2585.718713
426.507673	2588.100658
426.885762	2586.479927
427.263789	2587.354567
427.641756	2585.249886
428.019662	2589.101327
428.397508	2585.869948
428.775292	2586.623600
429.153016	2589.610484
429.530679	2586.953796
429.908282	2588.294743
430.285824	2587.135277
430.663305	2587.359609
431.040726	2591.601740
431.418086	2586.719382
431.795385	2589.234918
432.172624	2587.838518
432.549802	2587.389856
432.926920	2585.759042
433.303977	2589.933118
433.680974	2589.650813
434.057910	2588.065370
434.434786	2587.896492
434.811601	2591.362285
435.188355	2590.112079
435.565050	2593.298088
435.941683	2589.728951
436.318257	2587.972109
436.694770	2585.559917
437.071222	2588.912284
437.447614	2586.545462
437.823946	2587.639393
438.200218	2591.846236
438.576429	2593.144333
438.952580	2591.669795
439.328670	2592.746082
439.704700	2588.367839
440.080670	2589.297932
440.456580	2590.898499
440.832429	2589.247521
441.208218	2593.177100
441.583947	2589.628128
441.959616	2592.456215
442.335224	2590.616194
442.710773	2592.050402
443.086261	2591.972264
443.461689	2591.006883
443.837057	2592.431009
444.212365	2593.517378
444.587612	2588.816502
444.962800	2593.426637
445.337927	2594.313880
445.712995	2591.082501
446.088002	2593.419076
446.462949	2591.087542
446.837837	2592.136102
447.212664	2591.417737
447.587431	2594.235742
447.962139	2596.257245
448.336786	2594.407142
448.711374	2594.613829
449.085901	2598.172884
449.460369	2595.158274
449.834776	2594.606267
450.209124	2594.583582
450.583412	2593.154415
450.957640	2593.600557
451.331808	2595.080136
451.705917	2591.841194
452.079965	2596.186669
452.453954	2594.845722
452.827883	2595.576689
453.201752	2595.884200
453.575562	2594.797831
453.949311	2596.020311
454.323001	2594.235742
454.696632	2598.104828
455.070202	2596.632811
455.443713	2597.444437
455.817164	2595.480907
456.190556	2594.765064
456.563888	2594.278592
456.937160	2594.288675
457.310373	2595.680033
457.683526	2597.827565
458.056619	2595.087697
458.429653	2596.708428
458.802628	2597.996443
459.175542	2597.699015
459.548398	2598.530806
459.921194	2595.541401
460.293930	2596.330342
460.666607	2599.836464
461.039224	2598.815631
461.411782	2602.062134
461.784280	2600.083481
462.156719	2601.179932
462.529099	2600.942998
462.901419	2600.206989
463.273680	2601.328646
463.645882	2599.241608
464.018024	2600.960642
464.390106	2601.187494
464.762130	2599.828903
465.134094	2596.700867
465.505999	2603.738318
465.877845	2604.053390
466.249631	2605.648915
466.621358	2602.571290
466.993026	2606.163112
467.364634	2611.045470
467.736184	2604.741507
468.107674	2606.195880
468.479105	2601.888214
468.850477	2604.431476
469.221790	2604.126486
469.593043	2604.723863
469.964238	2601.376537
470.335373	2607.874584
470.706449	2606.699995
471.077467	2605.109511
471.448425	2606.894080
471.819324	2609.792743
472.190164	2610.130501
472.560945	2606.180757
472.931667	2607.756117
473.302330	2606.281580
473.672934	2608.126642
474.043479	2608.172012
474.413965	2608.696292
474.784393	2605.805191
475.154761	2607.584718
475.525070	2606.843668
475.895321	2606.894080
476.265513	2605.200252
476.635645	2611.088320
477.005719	2610.911879
477.375734	2612.469596
477.745691	2611.209307
478.115588	2611.720985
478.485427	2613.916407
478.855207	2615.748867
479.224928	2617.319186
479.594591	2618.564351
479.964194	2615.509412
480.333739	2619.403703
480.703226	2618.655092
481.072653	2620.462345
481.442022	2619.007972
481.811333	2621.757922
482.180584	2619.093672
482.549777	2621.400000
482.918912	2622.390587
483.287988	2619.688528
483.657005	2619.678446
484.025964	2619.297839
484.394864	2622.070473
484.763706	2622.902264
485.132489	2621.420165
485.501213	2622.206585
485.869879	2622.902264
486.238487	2621.367232
486.607036	2622.554424
486.975527	2622.758591
487.343959	2623.605505
487.712333	2624.722120
488.080648	2627.255300
488.448905	2626.564662
488.817104	2628.780249
489.185244	2626.403345
489.553326	2630.380816
489.921350	2631.278141
490.289315	2634.065899
490.657222	2636.732669
491.025070	2639.026394
491.392861	2637.425828
491.760593	2636.934316
492.128267	2635.795015
492.495883	2637.786271
492.863440	2638.895324
493.230939	2636.170581
493.598380	2636.679737
493.965763	2634.456588
494.333088	2637.917341
494.700354	2634.784263
495.067563	2637.191414
495.434713	2635.273255
495.801805	2639.553195
496.168839	2640.682413
496.535815	2645.284987
496.902733	2642.991262
497.269593	2646.827580
497.636395	2647.976963
498.003139	2647.863537
498.369825	2649.343116
498.736453	2652.554331
499.103023	2652.322438
499.469535	2654.220432
499.835989	2656.249497
500.202385	2657.287974
500.568723	2659.362409
500.935003	2661.184786
501.301226	2663.047492
501.667390	2666.495642
502.033497	2672.035870
502.399546	2672.726508
502.765537	2672.502177
503.131470	2675.403361
503.497345	2679.239679
503.863163	2680.976356
504.228923	2683.222190
504.594625	2689.198478
504.960269	2691.124199
505.325856	2694.864735
505.691385	2697.375230
506.056856	2702.706250
506.422270	2706.323278
506.787625	2709.695810
507.152924	2713.509442
507.518164	2717.996069
507.883347	2720.897253
508.248472	2727.687688
508.613540	2736.681106
508.978550	2740.265367
509.343503	2746.604617
509.708398	2754.627614
510.073236	2760.528284
510.438016	2766.771753
510.802738	2769.451127
511.167403	2780.070317
511.532010	2789.537604
511.896561	2797.789973
512.261053	2812.752118
512.625488	2813.808239
512.989866	2819.890392
513.354186	2830.963286
513.718449	2836.879080
514.082655	2850.815350
514.446803	2863.632483
514.810894	2878.428270
515.174927	2889.337327
515.538904	2899.805283
515.902822	2918.928900
516.266684	2921.477203
516.630488	2940.900769
516.994235	2950.536935
517.357925	2969.095943
517.721558	2986.661843
518.085133	3004.631036
518.448651	3020.989580
518.812112	3034.545243
519.175516	3049.220042
519.538863	3070.405491
519.902152	3084.765218
520.265385	3108.894700
520.628560	3129.429841
520.991678	3144.001296
521.354739	3168.947446
521.717743	3190.775642
522.080690	3210.305072
522.443580	3239.105184
522.806413	3265.029317
523.169189	3281.476082
523.531908	3307.463230
523.894569	3328.290757
524.257174	3352.894108
524.619722	3383.869478
524.982213	3408.737490
525.344647	3432.314967
525.707025	3461.425109
526.069345	3495.412569
526.431608	3520.227648
526.793815	3554.051270
527.155964	3572.544743
527.518057	3605.138323
527.880093	3630.936428
528.242072	3670.733817
528.603995	3699.806151
528.965860	3734.524578
529.327669	3768.718724
529.689421	3796.618990
530.051117	3830.896316
530.412755	3867.961400
530.774337	3909.694592
531.135862	3939.258438
531.497331	3978.866784
531.858743	4013.408770
532.220098	4059.126995
532.581396	4091.488682
532.942638	4119.469606
533.303824	4174.556815
533.664953	4210.671641
534.026025	4244.119697
534.387040	4304.595899
534.747999	4341.502186
535.108902	4389.143611
535.469748	4415.796191
535.830537	4461.791679
536.191270	4516.901572
536.551947	4551.879618
536.912567	4609.452116
537.273131	4661.318027
537.633638	4682.463147
537.994089	4747.032766
538.354483	4777.156181
538.714821	4854.512687
539.075103	4921.005506
539.435328	4960.732319
539.795497	5003.887116
540.155609	5049.698602
540.515665	5125.293224
540.875665	5149.216020
541.235609	5221.307041
541.595496	5267.476448
541.955328	5364.506057
542.315102	5381.146906
542.674821	5420.694757
543.034483	5484.190611
543.394090	5533.233476
543.753640	5585.827834
544.113134	5705.814857
544.472571	5699.420154
544.831953	5835.317058
545.191278	5840.895095
545.550548	5880.473194
545.909761	5971.082893
546.268918	6042.586619
546.628019	6126.655422
546.987064	6151.263814
547.346053	6156.022663
547.704986	6283.485718
548.063863	6307.272402
548.422684	6382.743516
548.781449	6430.579025
549.140158	6529.859509
549.498811	6567.053142
549.857408	6581.576706
550.215949	6716.062088
550.574434	6767.912876
550.932864	6807.773279
551.291237	6947.158663
551.649555	6967.338402
552.007817	7052.327214
552.366022	7078.757984
552.724173	7163.799729
553.082267	7257.056034
553.440305	7358.536981
553.798288	7353.231167
554.156215	7443.293901
554.514086	7532.943260
554.871902	7566.066162
555.229661	7644.360322
555.587365	7687.598298
555.945014	7756.707477
556.302606	7810.930127
556.660143	7898.144609
557.017625	7981.321127
557.375050	8027.689660
557.732421	8137.077658
558.089735	8202.388326
558.446994	8258.917305
558.804197	8373.608596
559.161345	8432.670755
559.518437	8402.033142
559.875474	8511.960543
560.232455	8589.717820
560.589381	8685.104013
560.946251	8709.271304
561.303065	8859.948872
561.659825	8898.256600
562.016528	8911.688755
562.373177	8937.207076
562.729770	9069.038290
563.086307	9067.503258
563.442789	9182.943161
563.799216	9270.102190
564.155587	9286.334706
564.511904	9362.156180
564.868164	9426.085573
565.224370	9532.675730
565.580520	9552.928565
565.936615	9648.453389
566.292654	9663.413013
566.648638	9770.043500
567.004567	9823.724226
567.360441	9878.153564
567.716260	9913.068596
568.072023	10021.592035
568.427732	10062.556452
568.783385	10045.103977
569.138982	10182.067086
569.494525	10231.311597
569.850013	10249.689123
570.205445	10288.679928
570.560823	10361.111226
570.916145	10379.566891
571.271412	10433.545045
571.626625	10450.173291
571.981782	10496.937555
572.336884	10504.897537
572.691931	10613.040369
573.046923	10587.466596
573.401860	10618.560433
573.756743	10654.713067
574.111570	10728.482792
574.466342	10750.525237
574.821059	10840.719042
575.175722	10785.646956
575.530330	10840.131747
575.884882	10834.697383
576.239380	10873.000070
576.593823	10900.681046
576.948211	10939.303846
577.302544	10884.554395
577.656823	10944.607140
578.011047	11028.701148
578.365216	11018.122287
578.719330	11009.418734
579.073389	11022.687051
579.427394	11063.996787
579.781344	11089.542834
580.135239	11066.285470
580.489080	11117.259097
580.842866	11057.468492
581.196597	11160.933134
581.550273	11177.369816
581.903895	11184.429952
582.257463	11300.459669
582.610975	11202.303363
582.964434	11282.190528
583.317837	11247.615774
583.671186	11236.300904
584.024481	11311.003243
584.377721	11245.901782
584.730906	11336.161121
585.084037	11369.147911
585.437113	11337.582726
585.790135	11381.037473
586.143103	11320.422639
586.496016	11364.159689
586.848874	11401.643189
587.201679	11416.645663
587.554428	11323.046559
587.907124	11396.186140
588.259765	11357.969152
588.612352	11436.722058
588.964884	11334.404279
589.317362	11401.466748
589.669786	11412.849674
590.022155	11390.756817
590.374470	11512.518327
590.726731	11416.643142
591.078937	11332.949906
591.431090	11364.162210
591.783188	11331.024185
592.135232	11272.882037
592.487222	11353.353976
592.839157	11390.477033
593.191038	11330.031078
593.542866	11297.316510
593.894639	11183.237719
594.246358	11254.890159
594.598022	11281.147009
594.949633	11195.402023
595.301190	11194.918072
595.652692	11171.244814
596.004141	11268.609659
596.355535	11069.766387
596.706876	11067.301263
597.058162	11053.458254
597.409395	11150.747482
597.760573	11186.670745
598.111698	11099.481468
598.462768	11111.365989
598.813785	11125.997938
599.164748	11017.230002
599.515657	11108.122006
599.866511	11002.053609
600.217312	11129.123453
600.568060	10914.115721
600.918753	11082.127296
601.269392	11079.024466
601.619978	11000.732826
601.970510	11049.833665
602.320988	11090.319171
602.671412	11162.697538
603.021783	11103.209402
603.372100	11043.701101
603.722363	11054.857175
604.072572	11068.367467
604.422728	11086.238357
604.772830	11041.588858
605.122878	11052.376927
605.472872	11030.054698
605.822813	11094.165572
606.172701	11059.363966
606.522534	11106.113106
606.872314	11163.126036
607.222041	11104.333579
607.571714	11179.613129
607.921333	11053.818697
608.270899	11112.711977
608.620411	11171.605257
608.969870	11127.273350
609.319276	11118.456372
609.668627	11134.981274
610.017926	11218.540919
610.367171	11246.539488
610.716362	11246.441185
611.065500	11222.170550
611.414585	11245.821123
611.763616	11316.132617
612.112594	11279.848912
612.461518	11302.150977
612.810389	11358.027126
613.159207	11299.201902
613.507971	11288.794439
613.856682	11389.100798
614.205340	11354.425221
614.553945	11484.950777
614.902496	11364.946109
615.250994	11440.858325
615.599439	11425.220665
615.947830	11462.600821
616.296169	11429.886253
616.644454	11448.052051
616.992686	11470.906122
617.340864	11556.472147
617.688990	11445.039962
618.037063	11584.982393
618.385082	11556.300748
618.733048	11595.616707
619.080961	11583.308729
619.428821	11565.528580
619.776628	11579.018707
620.124382	11530.147242
620.472083	11557.482898
620.819731	11577.771022
621.167326	11486.069913
621.514868	11481.923564
621.862357	11384.949408
622.209793	11380.072092
622.557176	11302.556789
622.904506	11254.186918
623.251783	11178.115907
623.599007	11115.212389
623.946179	11056.699716
624.293297	11041.044413
624.640363	10900.655840
624.987376	10893.688966
625.334336	10833.976498
625.681243	10753.013047
626.028097	10716.807480
626.374899	10684.289517
626.721647	10662.020220
627.068343	10620.831473
627.414987	10555.835876
627.761577	10493.698614
628.108115	10534.514316
628.454600	10418.741697
628.801032	10428.834087
629.147412	10413.816490
629.493739	10382.843641
629.840014	10310.548453
630.186236	10353.846924
630.532405	10256.373693
630.878521	10291.694538
631.224585	10249.099308
631.570597	10172.403194
631.916556	10178.404687
632.262462	10159.669239
632.608316	10144.429831
632.954117	10122.901584
633.299866	10108.715777
633.645562	10080.470192
633.991206	9985.683897
634.336797	9888.964319
634.682336	9876.323626
635.027823	9820.056787
635.373257	9788.254668
635.718639	9723.843845
636.063968	9689.667343
636.409245	9572.021935
636.754470	9561.493486
637.099642	9513.191670
637.444762	9414.863964
637.789829	9424.643803
638.134845	9343.685392
638.479808	9324.264347
638.824719	9295.592785
639.169577	9205.499804
639.514383	9206.225730
639.859137	9142.651739
640.203839	9177.561729
640.548489	9102.917364
640.893086	9105.989948
641.237632	9041.382520
641.582125	9041.372438
