Dividing Wavelength (nm)	Counts (n)	Blue Motor Position (mm): 44.900000	Red Motor Position (mm): 0.000000	
326.493990	2128.906996
326.888308	2128.906996
327.282561	2128.906996
327.676750	2098.803745
328.070874	2096.237798
328.464933	2097.485484
328.858929	2106.695672
329.252859	2113.982660
329.646726	2126.653600
330.040528	2141.121711
330.434265	2157.452529
330.827938	2172.661690
331.221547	2190.870338
331.615091	2209.699048
332.008571	2229.979610
332.401986	2247.411920
332.795338	2269.719025
333.188625	2287.116047
333.581847	2307.010961
333.975006	2324.942345
334.368100	2341.868019
334.761129	2360.336286
335.154095	2377.226672
335.546996	2399.201062
335.939833	2426.277099
336.332606	2440.556167
336.725315	2454.058898
337.117960	2461.035855
337.510540	2469.568008
337.903056	2481.225676
338.295508	2488.822695
338.687896	2495.018273
339.080220	2506.688544
339.472480	2513.536952
339.864676	2516.163393
340.256807	2522.048940
340.648875	2523.873838
341.040879	2525.638242
341.432818	2525.426513
341.824694	2530.220650
342.216506	2528.569673
342.608253	2530.777698
342.999937	2530.734848
343.391557	2531.662420
343.783113	2531.175949
344.174605	2526.888448
344.566033	2526.018849
344.957397	2526.296112
345.348697	2523.157994
345.739934	2520.718075
346.131106	2518.434433
346.522215	2519.185565
346.913260	2514.769514
347.304241	2514.051149
347.695159	2511.336488
348.086012	2508.964625
348.476802	2508.556292
348.867528	2507.076713
349.258191	2504.004130
349.648789	2506.091168
350.039324	2501.223933
350.429796	2503.986486
350.820203	2499.053717
351.210548	2500.722339
351.600828	2503.295848
351.991045	2500.293841
352.381198	2497.503562
352.771288	2497.881648
353.161314	2499.406598
353.551276	2498.557163
353.941175	2499.182266
354.331010	2495.303098
354.720782	2496.639004
355.110490	2496.263438
355.500135	2498.970538
355.889717	2496.921309
356.279235	2500.079592
356.668689	2499.441886
357.058080	2498.370640
357.447408	2496.207985
357.836672	2495.698829
358.225873	2499.449447
358.615010	2495.048520
359.004084	2501.564211
359.393095	2502.196876
359.782043	2501.760816
360.170927	2500.866012
360.559748	2503.164778
360.948505	2502.779129
361.337199	2505.014881
361.725830	2504.692247
362.114398	2506.562515
362.502903	2509.733401
362.891344	2506.718791
363.279722	2507.981600
363.668037	2508.745335
364.056289	2508.863802
364.444478	2508.009327
364.832603	2510.111488
365.220665	2510.431601
365.608665	2511.722136
365.996601	2511.517970
366.384474	2513.007631
366.772284	2512.924452
367.160031	2511.880933
367.547715	2513.562158
367.935336	2513.786489
368.322893	2515.346726
368.710388	2513.965450
369.097820	2515.218177
369.485189	2512.879081
369.872495	2516.352436
370.259738	2515.203053
370.646918	2515.770183
371.034035	2514.376304
371.421090	2519.931655
371.808081	2516.047446
372.195010	2518.641120
372.581875	2517.716068
372.968678	2518.421830
373.355418	2519.311593
373.742096	2523.838550
374.128710	2520.680267
374.515262	2523.566327
374.901751	2523.702438
375.288177	2527.425331
375.674540	2531.465815
376.060841	2534.072092
376.447079	2539.869419
376.833254	2547.458876
377.219367	2548.666232
377.605417	2562.045455
377.991404	2566.776577
378.377329	2580.206211
378.763191	2588.960175
379.148991	2604.252515
379.534727	2618.970164
379.920402	2634.748975
380.306013	2646.071407
380.691563	2669.971517
381.077049	2686.791327
381.462474	2704.689944
381.847835	2728.726165
382.233134	2749.901532
382.618371	2764.281423
383.003545	2806.853968
383.388657	2821.327120
383.773706	2850.540607
384.158693	2874.995244
384.543618	2909.723753
384.928480	2943.123918
385.313280	2986.356853
385.698017	3002.163391
386.082692	3051.838921
386.467305	3075.945719
386.851856	3113.988786
387.236344	3149.309631
387.620770	3193.323945
388.005133	3228.155797
388.389435	3267.262548
388.773674	3294.472176
389.157851	3349.705578
389.541965	3378.387223
389.926018	3367.032024
390.310008	3444.590176
390.693936	3479.459837
391.077802	3530.496479
391.461606	3539.590720
391.845348	3608.208386
392.229027	3620.385293
392.612645	3647.814211
392.996200	3733.216398
393.379694	3782.445786
393.763125	3852.734594
394.146494	3837.094415
394.529801	3907.249632
394.913047	3964.134012
395.296230	3943.258594
395.679351	4005.751258
396.062410	4035.489024
396.445408	4024.761449
396.828343	4063.900967
397.211217	4094.281481
397.594028	4023.977549
397.976778	4093.091769
398.359466	4124.422540
398.742092	4158.730112
399.124656	4081.764296
399.507158	4163.519208
399.889598	4192.334444
400.271977	4257.549331
400.654294	4231.776432
401.036549	4234.216350
401.418742	4210.152402
401.800874	4310.829286
402.182944	4332.924663
402.564952	4399.914036
402.946898	4384.795615
403.328783	4383.661356
403.710606	4298.407883
404.092367	4488.509794
404.474067	4455.772541
404.855705	4463.460301
405.237282	4391.545720
405.618797	4503.300539
406.000250	4539.889234
406.381642	4621.651708
406.762972	4579.686623
407.144240	4590.578036
407.525447	4591.155248
407.906593	4648.420235
408.287677	4690.385320
408.668700	4621.255978
409.049661	4670.477804
409.430560	4713.004978
409.811399	4642.690964
410.192176	4804.968227
410.572891	4741.837857
410.953545	4839.444678
411.334138	4722.348756
411.714669	4789.295279
412.095139	4685.714691
412.475547	4825.435311
412.855894	4808.229853
413.236180	4818.571780
413.616405	4773.929842
413.996568	4859.450497
414.376670	4800.106034
414.756711	4757.238582
415.136691	4790.863078
415.516609	4864.708420
415.896466	4902.963216
416.276262	4936.486889
416.655997	4919.488119
417.035670	5099.848000
417.415283	5191.150858
417.794834	5131.672805
418.174324	5084.588428
418.553753	4994.712216
418.933121	5179.389846
419.312428	5245.192028
419.691674	5185.613151
420.070859	5315.432945
420.449983	5222.665632
420.829045	5340.190051
421.208047	5246.429631
421.586988	5320.557278
421.965867	5328.328216
422.344686	5461.281087
422.723444	5317.378830
423.102141	5136.194720
423.480777	5432.581798
423.859352	5203.226942
424.237866	5462.009534
424.616319	5451.982679
424.994712	5558.645932
425.373044	5440.294764
425.751314	5581.847843
426.129524	5384.831989
426.507673	5578.606381
426.885762	5663.005379
427.263789	5587.788843
427.641756	5475.653417
428.019662	5597.926603
428.397508	5599.312921
428.775292	5547.958686
429.153016	5653.754862
429.530679	5573.141770
429.908282	5659.342981
430.285824	5533.200708
430.663305	5806.403521
431.040726	5539.580289
431.418086	5544.165218
431.795385	5646.666999
432.172624	5664.069062
432.549802	5654.642105
432.926920	5665.210884
433.303977	5669.848745
433.680974	5714.931784
434.057910	5733.581533
434.434786	5741.919601
434.811601	5706.548345
435.188355	5941.907215
435.565050	5817.103370
435.941683	5796.190143
436.318257	6015.213154
436.694770	5995.918138
437.071222	6023.468043
437.447614	5959.271470
437.823946	5875.855497
438.200218	6025.353435
438.576429	5891.243619
438.952580	5989.084854
439.328670	6035.097985
439.704700	5944.039623
440.080670	5929.987407
440.456580	6201.720723
440.832429	6085.065902
441.208218	5928.984218
441.583947	6083.772846
441.959616	6089.176963
442.335224	6015.147619
442.710773	6155.246326
443.086261	6180.923443
443.461689	5972.496937
443.837057	6120.989165
444.212365	6272.672443
444.587612	6168.146638
444.962800	6323.235216
445.337927	6302.170754
445.712995	5916.908133
446.088002	6489.434496
446.462949	6324.903838
446.837837	6256.119814
447.212664	6423.115597
447.587431	6572.232928
447.962139	7113.385670
448.336786	8036.864560
448.711374	7775.755476
449.085901	6852.223653
449.460369	6775.330934
449.834776	6709.957251
450.209124	7099.409071
450.583412	7249.027996
450.957640	7392.463947
451.331808	7158.521641
451.705917	6707.469441
452.079965	6633.258616
452.453954	6844.460277
452.827883	6724.090126
453.201752	6817.434651
453.575562	6618.477953
453.949311	6821.631411
454.323001	6706.859462
454.696632	6785.193951
455.070202	6925.771567
455.443713	7071.304638
455.817164	7178.552665
456.190556	7263.024760
456.563888	7331.702919
456.937160	7380.095476
457.310373	7036.709720
457.683526	7058.784932
458.056619	6949.727131
458.429653	6939.664988
458.802628	6872.453804
459.175542	6986.232646
459.548398	7339.869588
459.921194	7499.989238
460.293930	7501.662901
460.666607	8028.483642
461.039224	8334.398502
461.411782	8462.234601
461.784280	8485.439032
462.156719	8367.110549
462.529099	8248.247703
462.901419	7839.735280
463.273680	7727.932570
463.645882	7744.427226
464.018024	7609.992256
464.390106	7782.190509
464.762130	8165.124117
465.134094	8636.991241
465.505999	9663.607098
465.877845	10889.789633
466.249631	11525.141376
466.621358	11140.282047
466.993026	10513.432210
467.364634	10262.894426
467.736184	9894.754084
468.107674	9560.530625
468.479105	9596.489176
468.850477	9355.673256
469.221790	9128.836457
469.593043	8807.026839
469.964238	8661.614757
470.335373	8676.713012
470.706449	8729.211588
471.077467	8717.069969
471.448425	10028.342140
471.819324	11097.442322
472.190164	11118.186670
472.560945	9871.642914
472.931667	9082.094878
473.302330	8947.110422
473.672934	8595.089170
474.043479	8948.085886
474.413965	8890.021876
474.784393	8769.198021
475.154761	8930.918236
475.525070	9017.114405
475.895321	8846.786420
476.265513	9025.936424
476.635645	9194.999080
477.005719	9194.182413
477.375734	9297.924318
477.745691	9540.708808
478.115588	9675.287451
478.485427	9928.252551
478.855207	10460.021185
479.224928	11274.966554
479.594591	11905.199005
479.964194	11710.915457
480.333739	11654.436890
480.703226	11564.457335
481.072653	11660.708085
481.442022	11897.977553
481.811333	12083.522261
482.180584	11889.606717
482.549777	11590.391551
482.918912	11425.555902
483.287988	11446.360744
483.657005	11457.484050
484.025964	11137.274999
484.394864	11265.993301
484.763706	11239.865000
485.132489	10998.824750
485.501213	10964.653288
485.869879	11038.803620
486.238487	10881.312933
486.607036	10992.384676
486.975527	10770.347054
487.343959	10960.159100
487.712333	11008.939825
488.080648	10943.172932
488.448905	10985.251443
488.817104	10926.398492
489.185244	11187.406753
489.553326	11338.606081
489.921350	11881.034234
490.289315	12945.824229
490.657222	13293.376499
491.025070	13193.082743
491.392861	13071.825349
491.760593	12685.652800
492.128267	12329.943943
492.495883	12010.468380
492.863440	11668.489106
493.230939	11330.704072
493.598380	11271.440267
493.965763	11133.705862
494.333088	11037.220698
494.700354	10956.988214
495.067563	11023.198728
495.434713	10846.261790
495.801805	10976.215175
496.168839	10897.764738
496.535815	10829.126908
496.902733	10831.561786
497.269593	10770.062229
497.636395	10872.100224
498.003139	10855.330826
498.369825	10729.518749
498.736453	10885.582790
499.103023	10806.663527
499.469535	10838.644607
499.835989	10825.421660
500.202385	10793.238934
500.568723	10642.090018
500.935003	10865.037568
501.301226	10672.740234
501.667390	10930.814543
502.033497	11029.336333
502.399546	10882.764785
502.765537	10790.262133
503.131470	10864.246107
503.497345	11036.078877
503.863163	10651.706019
504.228923	10957.850251
504.594625	11016.957780
504.960269	10776.189752
505.325856	10995.961374
505.691385	10785.379775
506.056856	10948.871956
506.422270	10962.747732
506.787625	10851.867553
507.152924	10972.106634
507.518164	10953.444283
507.883347	10877.983251
508.248472	10793.347319
508.613540	11028.628051
508.978550	10911.494321
509.343503	10881.411235
509.708398	11010.719352
510.073236	11117.879159
510.438016	11126.441559
510.802738	11071.477859
511.167403	11124.009202
511.532010	11022.939109
511.896561	11252.631722
512.261053	11328.627117
512.625488	11194.814729
512.989866	11176.774960
513.354186	11168.439412
513.718449	11069.005173
514.082655	11262.106571
514.446803	11161.147383
514.810894	11279.753130
515.174927	11144.614919
515.538904	11166.672487
515.902822	11323.018833
516.266684	11202.149608
516.630488	11146.616257
516.994235	11202.368898
517.357925	11260.551375
517.721558	11349.384067
518.085133	11369.566327
518.448651	11376.079498
518.812112	11266.729309
519.175516	11275.508478
519.538863	11394.618341
519.902152	11311.492235
520.265385	11473.870321
520.628560	11385.655169
520.991678	11360.081396
521.354739	11421.727146
521.717743	11361.830676
522.080690	11335.674650
522.443580	11471.460649
522.806413	11426.564133
523.169189	11464.070317
523.531908	11516.999912
523.894569	11337.416368
524.257174	11343.715290
524.619722	11460.107971
524.982213	11404.209136
525.344647	11459.561005
525.707025	11409.187276
526.069345	11506.365598
526.431608	11419.362845
526.793815	11528.715554
527.155964	11318.353245
527.518057	11367.093641
527.880093	11315.164715
528.242072	11390.540048
528.603995	11293.510439
528.965860	11213.988757
529.327669	11266.169741
529.689421	11216.073275
530.051117	11184.855929
530.412755	11285.018615
530.774337	11176.429641
531.135862	11158.924234
531.497331	11184.498007
531.858743	11036.204905
532.220098	11195.064266
532.581396	11066.797148
532.942638	11053.538913
533.303824	11022.331650
533.664953	11035.332786
534.026025	10945.088570
534.387040	11043.701101
534.747999	11049.440455
535.108902	11102.417941
535.469748	10863.532783
535.830537	10972.174690
536.191270	10944.781060
536.551947	10972.910698
536.912567	10964.585233
537.273131	10894.961857
537.633638	10875.250945
537.994089	10864.422547
538.354483	10811.001440
538.714821	10954.971752
539.075103	10964.796961
539.435328	10934.318145
539.795497	10759.667370
540.155609	10918.483881
540.515665	11002.731644
540.875665	10735.558052
541.235609	10809.915071
541.595496	10795.401589
541.955328	10957.981321
542.315102	10840.325832
542.674821	10784.734507
543.034483	10788.134766
543.394090	10793.158276
543.753640	10716.247912
544.113134	10945.368354
544.472571	10800.641868
544.831953	10947.175608
545.191278	10752.919786
545.550548	10778.296954
545.909761	10918.035218
546.268918	10882.096832
546.628019	10969.656633
546.987064	10832.930459
547.346053	10760.216856
547.704986	10856.608758
548.063863	10843.486635
548.422684	10833.711838
548.781449	10751.820814
549.140158	10853.349652
549.498811	10737.554349
549.857408	10594.688049
550.215949	10818.323716
550.574434	10676.281644
550.932864	10767.924780
551.291237	10832.595222
551.649555	10776.099011
552.007817	10787.030753
552.366022	10751.866184
552.724173	10744.642211
553.082267	10723.766793
553.440305	10865.080418
553.798288	10667.300829
554.156215	10819.856226
554.514086	10802.761674
554.871902	10647.990689
555.229661	10691.006855
555.587365	10658.894705
555.945014	10552.929651
556.302606	10680.899341
556.660143	10572.285161
557.017625	10724.407019
557.375050	10621.028077
557.732421	10757.282904
558.089735	10669.702938
558.446994	10673.854329
558.804197	10706.500841
559.161345	10716.167253
559.518437	10560.831659
559.875474	10650.133179
560.232455	10678.111583
560.589381	10624.922369
560.946251	10625.318099
561.303065	10730.721065
561.659825	10666.592547
562.016528	10604.072157
562.373177	10474.464091
562.729770	10595.287946
563.086307	10505.303350
563.442789	10604.205747
563.799216	10479.318722
564.155587	10528.601042
564.511904	10487.452624
564.868164	10469.959820
565.224370	10488.395320
565.580520	10409.712991
565.936615	10417.602396
566.292654	10284.957036
566.648638	10413.745914
567.004567	10378.031859
567.360441	10360.458397
567.716260	10270.123441
568.072023	10364.420744
568.427732	10313.452158
568.783385	10225.594929
569.138982	10294.459611
569.494525	10308.932763
569.850013	10193.089569
570.205445	10261.470300
570.560823	10163.603860
570.916145	10082.975645
571.271412	10149.604576
571.626625	10098.754457
571.981782	10073.387371
572.336884	10047.266632
572.691931	10048.751252
573.046923	9993.500206
573.401860	9950.456313
573.756743	9886.534483
574.111570	9929.008724
574.466342	9917.794678
574.821059	9943.401219
575.175722	9832.483231
575.530330	9849.482002
575.884882	9839.283748
576.239380	9766.728941
576.593823	9743.552236
576.948211	9760.364484
577.302544	9645.887442
577.656823	9653.093772
578.011047	9655.090068
578.365216	9636.626842
578.719330	9556.994256
579.073389	9562.859638
579.427394	9512.667390
579.781344	9491.802054
580.135239	9443.429662
580.489080	9444.510990
580.842866	9346.737811
581.196597	9356.749543
581.550273	9397.585409
581.903895	9365.571562
582.257463	9428.374257
582.610975	9311.079209
582.964434	9333.527468
583.317837	9256.470910
583.671186	9237.735462
584.024481	9234.887210
584.377721	9151.766145
584.730906	9130.754616
585.084037	9163.340634
585.437113	9096.696580
585.790135	9118.323130
586.143103	9013.522583
586.496016	8990.494592
586.848874	9043.227582
587.201679	9035.897744
587.554428	8922.812061
587.907124	8971.373496
588.259765	8939.578938
588.612352	8940.904762
588.964884	8814.787696
589.317362	8832.290582
589.669786	8831.446188
590.022155	8881.071307
590.374470	8892.222339
590.726731	8828.610539
591.078937	8682.056635
591.431090	8799.848236
591.783188	8671.818052
592.135232	8656.079570
592.487222	8665.060385
592.839157	8713.697437
593.191038	8643.723702
593.542866	8595.066485
593.894639	8489.368612
594.246358	8540.995068
594.598022	8561.303357
594.949633	8456.230587
595.301190	8434.152854
595.652692	8465.234088
596.004141	8573.543278
596.355535	8353.832150
596.706876	8326.662851
597.058162	8260.785053
597.409395	8340.518462
597.760573	8402.759068
598.111698	8312.275398
598.462768	8294.545660
598.813785	8264.220599
599.164748	8234.634067
599.515657	8218.751912
599.866511	8130.977862
600.217312	8258.118282
600.568060	8111.823997
600.918753	8220.554124
601.269392	8186.211264
601.619978	8100.607430
601.970510	8162.031369
602.320988	8163.914240
602.671412	8218.509936
603.021783	8156.380236
603.372100	8133.417780
603.722363	8129.843602
604.072572	8101.618182
604.422728	8109.860468
604.772830	8044.779172
605.122878	8055.390801
605.472872	8048.272692
605.822813	8080.107578
606.172701	8021.370574
606.522534	8092.944876
606.872314	8096.690454
607.222041	8066.279693
607.571714	8127.096173
607.921333	8080.291580
608.270899	8084.311900
608.620411	8173.515118
608.969870	8087.119823
609.319276	8072.107267
609.668627	8088.531346
610.017926	8126.224053
610.367171	8169.204931
610.716362	8144.820870
611.065500	8137.478429
611.414585	8165.159405
611.763616	8155.689598
612.112594	8138.771485
612.461518	8149.912435
612.810389	8212.160603
613.159207	8155.467787
613.507971	8099.016946
613.856682	8213.241931
614.205340	8176.184409
614.553945	8256.172397
614.902496	8154.925863
615.250994	8203.522586
615.599439	8186.601953
615.947830	8196.825413
616.296169	8169.008326
616.644454	8190.148405
616.992686	8186.052467
617.340864	8239.927278
617.688990	8146.010582
618.037063	8243.440963
618.385082	8184.000718
618.733048	8271.220241
619.080961	8213.257054
619.428821	8227.737768
619.776628	8230.956545
620.124382	8181.931324
620.472083	8167.561515
620.819731	8197.445475
621.167326	8089.448836
621.514868	8094.043848
621.862357	7981.167372
622.209793	8002.793922
622.557176	7931.756503
622.904506	7902.169971
623.251783	7836.723191
623.599007	7787.677805
623.946179	7795.461347
624.293297	7760.843743
624.640363	7673.765372
624.987376	7646.820405
625.334336	7598.589166
625.681243	7549.047226
626.028097	7536.010802
626.374899	7513.408789
626.721647	7504.420412
627.068343	7440.279291
627.414987	7415.249962
627.761577	7365.418156
628.108115	7402.032057
628.454600	7295.051210
628.801032	7352.530446
629.147412	7305.244423
629.493739	7291.033411
629.840014	7232.465285
630.186236	7291.285468
630.532405	7171.527817
630.878521	7225.243832
631.224585	7182.245311
631.570597	7109.798889
631.916556	7135.324771
632.262462	7133.068855
632.608316	7096.313802
632.954117	7074.084834
633.299866	7062.444810
633.645562	7054.847791
633.991206	6972.666901
634.336797	6915.265803
634.682336	6874.505553
635.027823	6843.409196
635.373257	6835.978535
635.718639	6760.514983
636.063968	6783.132119
636.409245	6668.924779
636.754470	6669.070973
637.099642	6625.880887
637.444762	6571.305355
637.789829	6577.364822
638.134845	6523.409353
638.479808	6507.885119
638.824719	6513.558938
639.169577	6439.559841
639.514383	6457.143385
639.859137	6389.178549
640.203839	6394.229785
640.548489	6386.925153
