Dividing Wavelength (nm)	Counts (n)	Blue Motor Position (mm): 43.400000	Red Motor Position (mm): 0.000000	
326.493990	2131.488066
326.888308	2131.488066
327.282561	2131.488066
327.676750	2097.785432
328.070874	2096.479773
328.464933	2100.389188
328.858929	2103.391195
329.252859	2115.989039
329.646726	2124.138064
330.040528	2139.289252
330.434265	2156.048568
330.827938	2173.866526
331.221547	2188.647189
331.615091	2210.160313
332.008571	2229.873745
332.401986	2251.442322
332.795338	2268.095774
333.188625	2289.447581
333.581847	2306.393420
333.975006	2324.849084
334.368100	2342.384738
334.761129	2362.947604
335.154095	2377.143493
335.546996	2400.196690
335.939833	2424.449681
336.332606	2438.978286
336.725315	2452.970009
337.117960	2462.071812
337.510540	2469.172277
337.903056	2480.676190
338.295508	2488.747078
338.687896	2496.782677
339.080220	2502.345590
339.472480	2511.787671
339.864676	2516.811181
340.256807	2520.702952
340.648875	2523.107582
341.040879	2527.561442
341.432818	2529.124199
341.824694	2530.273583
342.216506	2531.080167
342.608253	2532.615198
342.999937	2529.035979
343.391557	2528.746113
343.783113	2528.962883
344.174605	2527.659744
344.566033	2528.022707
344.957397	2525.376102
345.348697	2519.924094
345.739934	2519.593898
346.131106	2520.549197
346.522215	2518.898219
346.913260	2519.873682
347.304241	2518.570544
347.695159	2512.634585
348.086012	2512.316993
348.476802	2508.357166
348.867528	2508.047135
349.258191	2505.788698
349.648789	2506.706188
350.039324	2502.597648
350.429796	2505.511435
350.820203	2502.161588
351.210548	2502.577483
351.600828	2500.203100
351.991045	2498.380723
352.381198	2499.451968
352.771288	2496.495331
353.161314	2498.816783
353.551276	2497.193531
353.941175	2498.126144
354.331010	2496.979282
354.720782	2496.124806
355.110490	2495.756802
355.500135	2499.678820
355.889717	2497.990033
356.279235	2496.326453
356.668689	2499.590600
357.058080	2498.572287
357.447408	2496.651607
357.836672	2494.801503
358.225873	2499.406597
358.615010	2495.280413
359.004084	2498.053048
359.393095	2498.126144
359.782043	2504.440190
360.170927	2501.314674
360.559748	2501.833913
360.948505	2501.022287
361.337199	2506.731394
361.725830	2506.035715
362.114398	2505.418173
362.502903	2507.028822
362.891344	2507.336332
363.279722	2506.441528
363.668037	2509.375479
364.056289	2508.682321
364.444478	2508.614265
364.832603	2507.500170
365.220665	2509.413288
365.608665	2510.749194
365.996601	2511.742301
366.384474	2513.363032
366.772284	2512.221211
367.160031	2513.751201
367.547715	2512.500995
367.935336	2513.337826
368.322893	2513.796571
368.710388	2514.164575
369.097820	2518.094155
369.485189	2512.939575
369.872495	2516.264216
370.259738	2516.158352
370.646918	2514.915707
371.034035	2517.935358
371.421090	2517.774042
371.808081	2516.024761
372.195010	2517.489216
372.581875	2516.070132
372.968678	2519.362005
373.355418	2519.971985
373.742096	2519.669515
374.128710	2517.978208
374.515262	2519.107427
374.901751	2520.236645
375.288177	2520.415606
375.674540	2521.804444
376.060841	2521.106244
376.447079	2521.426358
376.833254	2524.841739
377.219367	2519.104906
377.605417	2523.215967
377.991404	2525.391225
378.377329	2529.129241
378.763191	2527.725279
379.148991	2537.106867
379.534727	2543.249513
379.920402	2549.692107
380.306013	2554.377860
380.691563	2562.728531
381.077049	2571.739593
381.462474	2581.348033
381.847835	2596.141299
382.233134	2607.990531
382.618371	2616.114350
383.003545	2640.448000
383.388657	2654.885864
383.773706	2672.040911
384.158693	2687.655885
384.543618	2707.949050
384.928480	2732.317987
385.313280	2759.262955
385.698017	2772.685027
386.082692	2806.531334
386.467305	2826.872390
386.851856	2859.501258
387.236344	2887.862789
387.620770	2921.691452
388.005133	2953.153293
388.389435	2987.778459
388.773674	3015.890453
389.157851	3061.492731
389.541965	3095.069336
389.926018	3097.128647
390.310008	3163.984430
390.693936	3198.158412
391.077802	3249.973911
391.461606	3270.443517
391.845348	3332.663958
392.229027	3358.119264
392.612645	3392.532701
392.996200	3472.709732
393.379694	3524.880633
393.763125	3596.820419
394.146494	3602.088425
394.529801	3672.241122
394.913047	3736.687233
395.296230	3733.733117
395.679351	3801.042603
396.062410	3844.817462
396.445408	3852.185109
396.828343	3900.955752
397.211217	3940.377575
397.594028	3890.651633
397.976778	3966.410093
398.359466	4006.683871
398.742092	4047.320612
399.124656	3988.729802
399.507158	4078.795056
399.889598	4112.855612
400.271977	4183.378834
400.654294	4165.568438
401.036549	4181.695089
401.418742	4162.861338
401.800874	4270.215230
402.182944	4295.219353
402.564952	4367.668295
402.946898	4360.046071
403.328783	4358.087582
403.710606	4281.522538
404.092367	4471.306857
404.474067	4439.948359
404.855705	4452.689875
405.237282	4382.650604
405.618797	4491.995752
406.000250	4528.869272
406.381642	4609.449595
406.762972	4573.662444
407.144240	4587.460082
407.525447	4588.208694
407.906593	4645.350172
408.287677	4688.595711
408.668700	4622.959888
409.049661	4671.153318
409.430560	4710.718814
409.811399	4638.194255
410.192176	4800.950427
410.572891	4739.972630
410.953545	4839.285882
411.334138	4723.815732
411.714669	4792.377945
412.095139	4686.944733
412.475547	4832.492927
412.855894	4808.703722
413.236180	4824.061597
413.616405	4775.326242
413.996568	4861.020816
414.376670	4801.081497
414.756711	4759.164303
415.136691	4789.383500
415.516609	4868.557341
415.896466	4904.062188
416.276262	4940.610553
416.655997	4917.857305
417.035670	5101.942600
417.415283	5192.622875
417.794834	5139.922653
418.174324	5090.259726
418.553753	4998.266230
418.933121	5182.704405
419.312428	5249.197224
419.691674	5191.753276
420.070859	5317.814890
420.449983	5228.662084
420.829045	5347.121638
421.208047	5251.095219
421.586988	5318.490404
421.965867	5334.644782
422.344686	5461.757476
422.723444	5318.581145
423.102141	5140.101614
423.480777	5438.752171
423.859352	5206.589392
424.237866	5466.385255
424.616319	5456.557526
424.994712	5565.073404
425.373044	5442.737203
425.751314	5585.134675
426.129524	5387.100508
426.507673	5585.031332
426.885762	5664.633672
427.263789	5598.586994
427.641756	5479.199868
428.019662	5605.140494
428.397508	5608.628973
428.775292	5551.689140
429.153016	5652.842413
429.530679	5581.268110
429.908282	5665.047046
430.285824	5538.035175
430.663305	5810.814530
431.040726	5543.832502
431.418086	5546.020363
431.795385	5651.534233
432.172624	5666.123332
432.549802	5660.565460
432.926920	5670.078118
433.303977	5678.958110
433.680974	5716.562597
434.057910	5729.742694
434.434786	5740.271144
434.811601	5706.245876
435.188355	5944.664727
435.565050	5813.322504
435.941683	5802.778931
436.318257	6015.127454
436.694770	5995.681203
437.071222	6032.847110
437.447614	5964.564681
437.823946	5882.852619
438.200218	6032.705958
438.576429	5896.183950
438.952580	5992.079299
439.328670	6039.957658
439.704700	5947.664213
440.080670	5934.400937
440.456580	6202.250044
440.832429	6093.197283
441.208218	5933.233910
441.583947	6090.918682
441.959616	6093.020843
442.335224	6019.881263
442.710773	6156.930071
443.086261	6181.833371
443.461689	5980.479604
443.837057	6129.004599
444.212365	6280.037568
444.587612	6175.194171
444.962800	6328.578839
445.337927	6309.351878
445.712995	5919.201858
446.088002	6499.209294
446.462949	6326.108673
446.837837	6258.857161
447.212664	6427.304796
447.587431	6576.449853
447.962139	7117.726103
448.336786	8038.152575
448.711374	7783.286960
449.085901	6851.774991
449.460369	6777.702797
449.834776	6708.976746
450.209124	7108.813343
450.583412	7251.881289
450.957640	7399.196408
451.331808	7165.004564
451.705917	6713.309618
452.079965	6638.849255
452.453954	6849.715679
452.827883	6732.072793
453.201752	6824.845147
453.575562	6618.298992
453.949311	6821.530588
454.323001	6711.164607
454.696632	6781.783611
455.070202	6928.801301
455.443713	7083.347954
455.817164	7184.765887
456.190556	7266.296469
456.563888	7339.080648
456.937160	7383.319293
457.310373	7040.606532
457.683526	7065.333391
458.056619	6956.837678
458.429653	6940.963085
458.802628	6875.334823
459.175542	6985.506720
459.548398	7341.339085
459.921194	7504.286821
460.293930	7508.314703
460.666607	8033.804580
461.039224	8348.609514
461.411782	8464.861043
461.784280	8487.410124
462.156719	8375.677990
462.529099	8256.404290
462.901419	7848.033020
463.273680	7731.683189
463.645882	7747.446877
464.018024	7612.094417
464.390106	7783.213863
464.762130	8170.238368
465.134094	8638.700192
465.505999	9663.965020
465.877845	10886.706968
466.249631	11533.711337
466.621358	11152.579942
466.993026	10524.051401
467.364634	10265.498182
467.736184	9900.934539
468.107674	9565.959948
468.479105	9608.353531
468.850477	9363.739103
469.221790	9141.956060
469.593043	8810.361562
469.964238	8668.054831
470.335373	8687.680042
470.706449	8739.934123
471.077467	8725.831495
471.448425	10031.873469
471.819324	11107.791811
472.190164	11122.169181
472.560945	9878.473678
472.931667	9088.776928
473.302330	8955.100651
473.672934	8599.777443
474.043479	8962.312022
474.413965	8903.643073
474.784393	8776.646326
475.154761	8932.107948
475.525070	9021.739664
475.895321	8857.516516
476.265513	9027.138740
476.635645	9205.686327
477.005719	9204.340338
477.375734	9320.087751
477.745691	9548.446979
478.115588	9685.402527
478.485427	9937.215723
478.855207	10470.020314
479.224928	11285.152206
479.594591	11913.552197
479.964194	11721.244781
480.333739	11661.418888
480.703226	11580.697412
481.072653	11664.783858
481.442022	11909.073132
481.811333	12097.576998
482.180584	11898.915207
482.549777	11603.871596
482.918912	11433.715010
483.287988	11455.797784
483.657005	11467.931841
484.025964	11145.608026
484.394864	11271.722572
484.763706	11241.818447
485.132489	11003.923877
485.501213	10972.653599
485.869879	11047.822244
486.238487	10889.507328
486.607036	11006.512509
486.975527	10779.670668
487.343959	10975.161573
487.712333	11007.724907
488.080648	10949.925557
488.448905	10991.242854
488.817104	10932.344533
489.185244	11196.069976
489.553326	11347.856598
489.921350	11889.460523
490.289315	12950.578037
490.657222	13289.857773
491.025070	13198.993496
491.392861	13076.531266
491.760593	12695.823328
492.128267	12345.488341
492.495883	12012.124399
492.863440	11681.651559
493.230939	11343.450629
493.598380	11279.760692
493.965763	11147.117852
494.333088	11045.125227
494.700354	10965.898453
495.067563	11023.614624
495.434713	10856.119767
495.801805	10981.969652
496.168839	10909.258569
496.535815	10843.451347
496.902733	10842.453198
497.269593	10775.199165
497.636395	10877.733714
498.003139	10864.767866
498.369825	10731.557896
498.736453	10894.939172
499.103023	10816.897069
499.469535	10852.974087
499.835989	10833.913484
500.202385	10803.452312
500.568723	10655.736422
500.935003	10873.700791
501.301226	10685.902686
501.667390	10935.694380
502.033497	11028.270129
502.399546	10890.298790
502.765537	10802.189503
503.131470	10870.814730
503.497345	11047.590351
503.863163	10658.526700
504.228923	10968.272837
504.594625	11029.807681
504.960269	10782.496235
505.325856	11002.091417
505.691385	10797.024841
506.056856	10945.980854
506.422270	10972.782149
506.787625	10866.101251
507.152924	10976.386574
507.518164	10956.726074
507.883347	10875.747499
508.248472	10801.624893
508.613540	11037.190451
508.978550	10921.748028
509.343503	10896.751467
509.708398	11012.443427
510.073236	11125.894594
510.438016	11130.608073
510.802738	11078.636297
511.167403	11133.005142
511.532010	11041.601461
511.896561	11262.018351
512.261053	11325.720891
512.625488	11201.113651
512.989866	11184.916423
513.354186	11172.868066
513.718449	11075.604043
514.082655	11268.264340
514.446803	11163.105871
514.810894	11287.811414
515.174927	11152.834520
515.538904	11176.454847
515.902822	11331.740029
516.266684	11210.780063
516.630488	11151.054993
516.994235	11210.845598
517.357925	11272.887078
517.721558	11358.253978
518.085133	11375.131761
518.448651	11384.430169
518.812112	11267.445153
519.175516	11282.659355
519.538863	11406.296174
519.902152	11319.815180
520.265385	11481.578245
520.628560	11392.947198
520.991678	11367.975843
521.354739	11432.706779
521.717743	11369.712520
522.080690	11351.768533
522.443580	11479.491207
522.806413	11439.275402
523.169189	11467.468055
523.531908	11520.896724
523.894569	11343.432985
524.257174	11351.173677
524.619722	11470.684311
524.982213	11415.957545
525.344647	11466.512757
525.707025	11421.119687
526.069345	11509.327276
526.431608	11432.179978
526.793815	11540.247193
527.155964	11327.868423
527.518057	11380.029242
527.880093	11333.045688
528.242072	11396.733105
528.603995	11304.162397
528.965860	11226.299255
529.327669	11272.022521
529.689421	11224.854965
530.051117	11196.231293
530.412755	11308.737244
530.774337	11189.138390
531.135862	11168.207519
531.497331	11191.767351
531.858743	11041.689681
532.220098	11213.230064
532.581396	11078.275855
532.942638	11062.471838
533.303824	11026.765345
533.664953	11040.227746
534.026025	10957.363780
534.387040	11053.982534
534.747999	11057.972608
535.108902	11116.633994
535.469748	10875.528209
535.830537	10980.898407
536.191270	10960.590118
536.551947	10981.273973
536.912567	10981.911678
537.273131	10904.471994
537.633638	10887.047245
537.994089	10865.801303
538.354483	10821.421505
538.714821	10965.926180
539.075103	10976.305915
539.435328	10944.047572
539.795497	10762.253482
540.155609	10924.911352
540.515665	11010.968889
540.875665	10751.528427
541.235609	10812.763323
541.595496	10812.037397
541.955328	10957.043667
542.315102	10845.876142
542.674821	10800.566251
543.034483	10805.753598
543.394090	10807.041613
543.753640	10730.000180
544.113134	10955.652308
544.472571	10806.028341
544.831953	10946.351379
545.191278	10748.455844
545.550548	10780.978848
545.909761	10924.278687
546.268918	10895.569316
546.628019	10976.386574
546.987064	10836.613022
547.346053	10760.811712
547.704986	10864.472958
548.063863	10855.035918
548.422684	10845.689619
548.781449	10762.301373
549.140158	10858.088337
549.498811	10741.425955
549.857408	10597.934552
550.215949	10830.714872
550.574434	10677.877169
550.932864	10772.935687
551.291237	10837.212919
551.649555	10783.673345
552.007817	10793.937134
552.366022	10757.131670
552.724173	10749.156564
553.082267	10736.941848
553.440305	10873.305060
553.798288	10672.301653
554.156215	10824.075672
554.514086	10803.270830
554.871902	10650.274332
555.229661	10685.822028
555.587365	10661.571557
555.945014	10563.780734
556.302606	10684.206338
556.660143	10579.514176
557.017625	10730.859696
557.375050	10630.515529
557.732421	10765.313462
558.089735	10677.249546
558.446994	10679.971769
558.804197	10715.383354
559.161345	10716.147089
559.518437	10567.450694
559.875474	10657.624334
560.232455	10680.463281
560.589381	10633.391507
560.946251	10630.094593
561.303065	10738.076108
561.659825	10667.477269
562.016528	10603.237846
562.373177	10483.182767
562.729770	10597.168296
563.086307	10512.302992
563.442789	10609.882086
563.799216	10480.001799
564.155587	10534.542042
564.511904	10495.069807
564.868164	10478.376027
565.224370	10495.180713
565.580520	10414.502087
565.936615	10418.550133
566.292654	10287.167582
566.648638	10421.645402
567.004567	10380.814576
567.360441	10366.706907
567.716260	10274.569738
568.072023	10370.719666
568.427732	10314.465430
568.783385	10227.598787
569.138982	10295.863572
569.494525	10313.472322
569.850013	10190.437922
570.205445	10272.961610
570.560823	10161.448767
570.916145	10080.046735
571.271412	10153.680348
571.626625	10100.949879
571.981782	10076.880890
572.336884	10048.436180
572.691931	10045.489625
573.046923	10002.123099
573.401860	9957.917221
573.756743	9887.807374
574.111570	9940.384088
574.466342	9915.763093
574.821059	9947.383730
575.175722	9845.499490
575.530330	9845.000416
575.884882	9847.831024
576.239380	9772.337225
576.593823	9747.985931
576.948211	9764.523436
577.302544	9649.156630
577.656823	9655.979832
578.011047	9659.042333
578.365216	9630.330441
578.719330	9555.557527
579.073389	9569.619826
579.427394	9522.810192
579.781344	9493.964709
580.135239	9443.502759
580.489080	9456.219070
580.842866	9353.974388
581.196597	9356.195016
581.550273	9403.228981
581.903895	9367.824958
582.257463	9431.711500
582.610975	9311.147265
582.964434	9340.416204
583.317837	9254.010827
583.671186	9238.010205
584.024481	9236.039114
584.377721	9150.039550
584.730906	9129.718659
585.084037	9168.558228
585.437113	9102.564483
585.790135	9118.852452
586.143103	9019.584571
586.496016	8990.219849
586.848874	9056.500940
587.201679	9036.900934
587.554428	8920.195702
587.907124	8973.906676
588.259765	8936.168598
588.612352	8943.090102
588.964884	8812.461203
589.317362	8833.434924
589.669786	8832.028442
590.022155	8880.471410
590.374470	8900.878000
590.726731	8832.802259
591.078937	8690.172893
591.431090	8799.424779
591.783188	8665.325046
592.135232	8660.770363
592.487222	8660.276330
592.839157	8718.705824
593.191038	8649.563878
593.542866	8594.474149
593.894639	8492.078232
594.246358	8547.208291
594.598022	8562.624139
594.949633	8459.237635
595.301190	8436.025643
595.652692	8471.422104
596.004141	8572.603103
596.355535	8352.917180
596.706876	8335.409253
597.058162	8265.732945
597.409395	8346.714040
597.760573	8405.544306
598.111698	8311.025192
598.462768	8300.887431
598.813785	8268.389633
599.164748	8233.923264
599.515657	8224.551759
599.866511	8133.148078
600.217312	8260.381760
600.568060	8117.770038
600.918753	8219.727375
601.269392	8189.818209
601.619978	8103.541382
601.970510	8166.099580
602.320988	8161.098756
602.671412	8225.335659
603.021783	8151.903691
603.372100	8122.849001
603.722363	8134.541957
604.072572	8103.286803
604.422728	8116.663505
604.772830	8046.437712
605.122878	8053.195378
605.472872	8046.934265
605.822813	8076.777896
606.172701	8021.945266
606.522534	8095.755320
606.872314	8095.036955
607.222041	8064.391781
607.571714	8118.866489
607.921333	8079.893329
608.270899	8089.337931
608.620411	8174.379676
608.969870	8079.016168
609.319276	8074.837052
609.668627	8088.526305
610.017926	8125.528374
610.367171	8174.261208
610.716362	8150.426633
611.065500	8133.359807
611.414585	8169.686361
611.763616	8155.402252
612.112594	8133.463150
612.461518	8153.718507
612.810389	8208.775468
613.159207	8149.090727
613.507971	8100.289837
613.856682	8217.111016
614.205340	8174.525869
614.553945	8251.718537
614.902496	8149.680542
615.250994	8193.813324
615.599439	8186.924587
615.947830	8201.617030
616.296169	8175.990324
616.644454	8189.848456
616.992686	8183.483999
617.340864	8244.144204
617.688990	8150.615676
618.037063	8238.619099
618.385082	8186.475924
618.733048	8272.067155
619.080961	8214.310655
619.428821	8221.809372
619.776628	8230.860763
620.124382	8177.288421
620.472083	8166.157554
620.819731	8193.987243
621.167326	8083.749812
621.514868	8092.526461
621.862357	7982.568813
622.209793	8000.308633
622.557176	7934.151051
622.904506	7906.999396
623.251783	7838.137235
623.599007	7791.902292
623.946179	7795.889845
624.293297	7751.202537
624.640363	7669.293869
624.987376	7650.598750
625.334336	7599.577232
625.681243	7547.176958
626.028097	7537.439969
626.374899	7516.501537
626.721647	7510.971391
627.068343	7435.722088
627.414987	7412.416833
627.761577	7366.164247
628.108115	7401.525421
628.454600	7297.349976
628.801032	7344.240269
629.147412	7307.197870
629.493739	7294.980634
629.840014	7232.946715
630.186236	7290.655324
630.532405	7167.555388
630.878521	7226.753658
631.224585	7179.986874
631.570597	7106.900225
631.916556	7137.724360
632.262462	7134.450131
632.608316	7096.533092
632.954117	7069.469658
633.299866	7057.459109
633.645562	7051.878552
633.991206	6973.561706
634.336797	6914.154228
634.682336	6874.936572
635.027823	6840.457600
635.373257	6829.457803
635.718639	6762.806187
636.063968	6777.007118
636.409245	6673.050963
636.754470	6664.312123
637.099642	6627.730990
637.444762	6564.514921
637.789829	6580.618887
638.134845	6523.676534
638.479808	6508.505181
638.824719	6510.836715
639.169577	6439.574964
639.514383	6457.372758
639.859137	6386.874742
640.203839	6393.360186
640.548489	6383.923146
