Dividing Wavelength (nm)	Counts (n)	Blue Motor Position (mm): 16.200000	Red Motor Position (mm): 0.000000	
326.493990	2175.278049
326.888308	2175.278049
327.282561	2175.278049
327.676750	2134.016205
328.070874	2128.803652
328.464933	2130.973869
328.858929	2136.599796
329.252859	2138.961577
329.646726	2149.237969
330.040528	2161.941677
330.434265	2173.891732
330.827938	2191.787828
331.221547	2208.405992
331.615091	2227.053220
332.008571	2247.081724
332.401986	2264.062851
332.795338	2280.796961
333.188625	2300.853192
333.581847	2317.365491
333.975006	2337.683862
334.368100	2354.337313
334.761129	2375.099305
335.154095	2390.270658
335.546996	2413.578433
335.939833	2439.376537
336.332606	2457.083590
336.725315	2468.204376
337.117960	2483.804226
337.510540	2492.308653
337.903056	2503.502535
338.295508	2513.337826
338.687896	2519.276305
339.080220	2525.759229
339.472480	2534.422452
339.864676	2539.451003
340.256807	2548.976263
340.648875	2547.715975
341.040879	2551.355688
341.432818	2557.584033
341.824694	2560.212995
342.216506	2559.623180
342.608253	2560.192831
342.999937	2556.401883
343.391557	2561.841288
343.783113	2559.355999
344.174605	2559.673592
344.566033	2559.260217
344.957397	2557.420196
345.348697	2554.957592
345.739934	2552.850390
346.131106	2554.158569
346.522215	2548.696479
346.913260	2549.636654
347.304241	2547.186654
347.695159	2543.705737
348.086012	2544.570295
348.476802	2538.891435
348.867528	2539.377906
349.258191	2534.409849
349.648789	2534.603934
350.039324	2531.286854
350.429796	2531.067564
350.820203	2533.210055
351.210548	2532.637884
351.600828	2529.449354
351.991045	2526.555732
352.381198	2524.493900
352.771288	2527.175793
353.161314	2529.550177
353.551276	2526.742254
353.941175	2523.775535
354.331010	2524.889630
354.720782	2526.641431
355.110490	2526.344003
355.500135	2524.229239
355.889717	2524.115813
356.279235	2524.292253
356.668689	2527.034641
357.058080	2524.945083
357.447408	2522.545494
357.836672	2526.875845
358.225873	2527.148067
358.615010	2526.293592
359.004084	2527.619415
359.393095	2527.778211
359.782043	2529.015815
360.170927	2527.463139
360.559748	2530.240815
360.948505	2529.552697
361.337199	2529.852646
361.725830	2529.504807
362.114398	2532.998326
362.502903	2529.219981
362.891344	2533.741896
363.279722	2533.144520
363.668037	2532.874818
364.056289	2534.445137
364.444478	2533.270548
364.832603	2534.767771
365.220665	2533.363810
365.608665	2534.467822
365.996601	2537.285827
366.384474	2534.881197
366.772284	2534.712318
367.160031	2536.065868
367.547715	2537.220293
367.935336	2536.632998
368.322893	2537.580735
368.710388	2535.367668
369.097820	2535.718029
369.485189	2533.535209
369.872495	2540.449152
370.259738	2541.664070
370.646918	2539.327495
371.034035	2539.060314
371.421090	2540.557536
371.808081	2540.786909
372.195010	2540.479398
372.581875	2541.132228
372.968678	2544.310675
373.355418	2541.152393
373.742096	2541.243133
374.128710	2542.493339
374.515262	2542.034594
374.901751	2541.628782
375.288177	2541.938813
375.674540	2543.050387
376.060841	2543.509132
376.447079	2542.354708
376.833254	2543.733463
377.219367	2543.249512
377.605417	2545.472661
377.991404	2542.962167
378.377329	2542.213555
378.763191	2546.546427
379.148991	2544.159441
379.534727	2546.233876
379.920402	2545.109698
380.306013	2546.248999
380.691563	2548.734288
381.077049	2547.209339
381.462474	2548.358722
381.847835	2546.904349
382.233134	2543.070552
382.618371	2544.973587
383.003545	2545.480223
383.388657	2544.232537
383.773706	2547.950388
384.158693	2548.537683
384.543618	2549.644216
384.928480	2546.596839
385.313280	2546.919472
385.698017	2548.305790
386.082692	2547.090872
386.467305	2550.168496
386.851856	2548.966181
387.236344	2551.927859
387.620770	2545.628937
388.005133	2548.920811
388.389435	2550.808723
388.773674	2543.425953
389.157851	2551.297715
389.541965	2548.825029
389.926018	2552.106820
390.310008	2552.583209
390.693936	2551.060780
391.077802	2553.987170
391.461606	2553.215874
391.845348	2554.511450
392.229027	2550.629762
392.612645	2553.543549
392.996200	2550.937272
393.379694	2554.491286
393.763125	2554.776111
394.146494	2552.076573
394.529801	2552.230328
394.913047	2553.165462
395.296230	2552.321069
395.679351	2554.445915
396.062410	2552.258054
396.445408	2555.955741
396.828343	2553.576316
397.211217	2554.065308
397.594028	2557.077397
397.976778	2554.239228
398.359466	2556.651420
398.742092	2555.436502
399.124656	2555.827191
399.507158	2557.740309
399.889598	2558.322563
400.271977	2553.548590
400.654294	2555.587737
401.036549	2556.353992
401.418742	2552.477345
401.800874	2555.890206
402.182944	2555.197047
402.564952	2557.483210
402.946898	2557.818447
403.328783	2558.292316
403.710606	2557.450443
404.092367	2557.032027
404.474067	2560.008828
404.855705	2557.392470
405.237282	2559.960937
405.618797	2557.752912
406.000250	2559.718962
406.381642	2560.454971
406.762972	2558.380536
407.144240	2555.549928
407.525447	2557.498334
407.906593	2555.996070
408.287677	2558.448591
408.668700	2560.654096
409.049661	2559.872717
409.430560	2560.843139
409.811399	2561.498489
410.192176	2562.564693
410.572891	2560.606205
410.953545	2561.753068
411.334138	2559.517316
411.714669	2561.899261
412.095139	2560.248283
412.475547	2561.435475
412.855894	2563.146947
413.236180	2563.731721
413.616405	2562.075702
413.996568	2563.308264
414.376670	2560.641493
414.756711	2563.648542
415.136691	2563.373799
415.516609	2564.268603
415.896466	2565.581824
416.276262	2564.681978
416.655997	2564.611402
417.035670	2564.001422
417.415283	2567.807493
417.794834	2564.969324
418.174324	2563.802297
418.553753	2563.840105
418.933121	2565.417987
419.312428	2565.642318
419.691674	2566.020404
420.070859	2565.440672
420.449983	2563.706515
420.829045	2565.702812
421.208047	2566.821948
421.586988	2566.632905
421.965867	2563.789694
422.344686	2568.190621
422.723444	2568.699778
423.102141	2563.663665
423.480777	2565.039900
423.859352	2566.660631
424.237866	2568.465364
424.616319	2567.779767
424.994712	2567.222720
425.373044	2566.413614
425.751314	2563.628377
426.129524	2564.848336
426.507673	2565.763306
426.885762	2562.700805
427.263789	2567.247925
427.641756	2567.913358
428.019662	2567.043759
428.397508	2567.411763
428.775292	2570.247412
429.153016	2567.696588
429.530679	2568.997206
429.908282	2567.522668
430.285824	2565.904458
430.663305	2566.635425
431.040726	2569.168605
431.418086	2566.597617
431.795385	2568.316650
432.172624	2568.117524
432.549802	2567.492421
432.926920	2568.364541
433.303977	2567.739438
433.680974	2569.188770
434.057910	2570.270097
434.434786	2567.620971
434.811601	2570.277659
435.188355	2569.304716
435.565050	2568.820765
435.941683	2568.984603
436.318257	2566.857236
436.694770	2571.207752
437.071222	2571.255643
437.447614	2569.307237
437.823946	2572.442834
438.200218	2569.982751
438.576429	2571.757237
438.952580	2569.332442
439.328670	2569.675241
439.704700	2571.863102
440.080670	2569.942422
440.456580	2571.127093
440.832429	2572.296641
441.208218	2570.552402
441.583947	2571.910993
441.959616	2574.514749
442.335224	2569.960066
442.710773	2573.607341
443.086261	2569.652556
443.461689	2571.948801
443.837057	2571.255643
444.212365	2571.167422
444.587612	2570.749007
444.962800	2566.721125
445.337927	2573.340160
445.712995	2567.832699
446.088002	2573.695561
446.462949	2573.567012
446.837837	2572.682289
447.212664	2574.663463
447.587431	2574.038360
447.962139	2572.178174
448.336786	2575.777558
448.711374	2572.878894
449.085901	2579.134966
449.460369	2574.910479
449.834776	2575.522979
450.209124	2574.169430
450.583412	2577.201684
450.957640	2577.947774
451.331808	2576.803432
451.705917	2577.070614
452.079965	2576.586663
452.453954	2575.341498
452.827883	2578.605645
453.201752	2576.410223
453.575562	2574.734039
453.949311	2576.984914
454.323001	2576.203535
454.696632	2579.432394
455.070202	2579.628999
455.443713	2578.908114
455.817164	2577.287383
456.190556	2577.481468
456.563888	2581.121181
456.937160	2580.687642
457.310373	2577.063052
457.683526	2578.444328
458.056619	2578.824935
458.429653	2578.691345
458.802628	2576.606828
459.175542	2579.986921
459.548398	2580.024730
459.921194	2580.854000
460.293930	2581.211922
460.666607	2582.991449
461.039224	2581.970615
461.411782	2582.305852
461.784280	2581.239648
462.156719	2580.554051
462.529099	2583.016655
462.901419	2581.877354
463.273680	2577.746128
463.645882	2575.301169
464.018024	2580.065059
464.390106	2578.756880
464.762130	2581.882395
465.134094	2582.757035
465.505999	2587.286512
465.877845	2588.592171
466.249631	2586.306008
466.621358	2588.637541
466.993026	2586.764752
467.364634	2591.382449
467.736184	2589.224836
468.107674	2585.958168
468.479105	2586.928590
468.850477	2587.798189
469.221790	2585.494382
469.593043	2585.335585
469.964238	2586.618559
470.335373	2586.984043
470.706449	2585.622931
471.077467	2587.460432
471.448425	2588.355237
471.819324	2592.103334
472.190164	2591.402614
472.560945	2590.248190
472.931667	2589.648292
473.302330	2588.113261
473.672934	2586.691656
474.043479	2590.205340
474.413965	2587.019331
474.784393	2587.467993
475.154761	2588.090576
475.525070	2589.151739
475.895321	2588.025041
476.265513	2590.361616
476.635645	2588.811461
477.005719	2589.993612
477.375734	2591.148036
477.745691	2591.984867
478.115588	2594.722214
478.485427	2594.770105
478.855207	2591.420258
479.224928	2592.811617
479.594591	2595.301947
479.964194	2593.812286
480.333739	2597.731783
480.703226	2595.233891
481.072653	2596.733634
481.442022	2596.776484
481.811333	2597.179776
482.180584	2593.590475
482.549777	2593.356061
482.918912	2591.974785
483.287988	2597.814962
483.657005	2598.316557
484.025964	2594.881010
484.394864	2600.068357
484.763706	2596.902513
485.132489	2595.596854
485.501213	2598.407297
485.869879	2596.393356
486.238487	2598.966865
486.607036	2600.063316
486.975527	2599.415528
487.343959	2595.972420
487.712333	2599.997781
488.080648	2602.049531
488.448905	2600.116248
488.817104	2598.853439
489.185244	2599.251691
489.553326	2601.560539
489.921350	2600.625405
490.289315	2603.405601
490.657222	2605.391816
491.025070	2604.116404
491.392861	2606.069851
491.760593	2609.558330
492.128267	2603.965169
492.495883	2603.866867
492.863440	2603.198914
493.230939	2604.451641
493.598380	2605.653956
493.965763	2603.201435
494.333088	2604.565067
494.700354	2603.405601
495.067563	2601.651280
495.434713	2602.984665
495.801805	2603.645056
496.168839	2606.415170
496.535815	2605.212855
496.902733	2603.997937
497.269593	2605.212855
497.636395	2601.696650
498.003139	2604.771754
498.369825	2605.641353
498.736453	2604.940633
499.103023	2607.413319
499.469535	2606.153030
499.835989	2606.208483
500.202385	2604.628081
500.568723	2604.577670
500.935003	2606.621857
501.301226	2604.917947
501.667390	2608.371138
502.033497	2610.720316
502.399546	2611.269801
502.765537	2610.929523
503.131470	2613.508074
503.497345	2614.027312
503.863163	2610.725357
504.228923	2612.648557
504.594625	2613.893722
504.960269	2613.591253
505.325856	2618.302211
505.691385	2615.237189
506.056856	2617.883795
506.422270	2620.447222
506.787625	2619.456635
507.152924	2622.383025
507.518164	2621.992336
507.883347	2620.429578
508.248472	2621.745319
508.613540	2624.911164
508.978550	2624.253293
509.343503	2624.371760
509.708398	2627.214971
510.073236	2626.486524
510.438016	2629.783439
510.802738	2630.779067
511.167403	2632.218316
511.532010	2630.882410
511.896561	2639.036477
512.261053	2636.929274
512.625488	2638.275262
512.989866	2639.717032
513.354186	2641.753659
513.718449	2643.628968
514.082655	2647.677014
514.446803	2647.939154
514.810894	2650.648775
515.174927	2652.844197
515.538904	2654.648930
515.902822	2656.667912
516.266684	2656.700680
516.630488	2662.389622
516.994235	2665.295847
517.357925	2666.120076
517.721558	2672.093843
518.085133	2672.844975
518.448651	2675.332784
518.812112	2675.486540
519.175516	2682.574402
519.538863	2680.678928
519.902152	2689.072449
520.265385	2694.398428
520.628560	2694.111083
520.991678	2700.803214
521.354739	2706.928216
521.717743	2708.380068
522.080690	2714.091696
522.443580	2718.840463
522.806413	2728.219529
523.169189	2729.084087
523.531908	2739.715881
523.894569	2737.870818
524.257174	2749.178127
524.619722	2755.053591
524.982213	2760.981988
525.344647	2764.672113
525.707025	2779.026798
526.069345	2778.847837
526.431608	2789.066256
526.793815	2800.658390
527.155964	2804.797177
527.518057	2815.073569
527.880093	2824.064467
528.242072	2835.943946
528.603995	2845.617920
528.965860	2850.182685
529.327669	2866.674820
529.689421	2878.057745
530.051117	2885.259033
530.412755	2900.755540
530.774337	2908.718043
531.135862	2920.592481
531.497331	2939.738783
531.858743	2946.753549
532.220098	2974.759679
532.581396	2982.480206
532.942638	3002.680109
533.303824	3017.067563
533.664953	3040.196376
534.026025	3051.365053
534.387040	3075.239957
534.747999	3099.719800
535.108902	3121.933645
535.469748	3129.205509
535.830537	3160.460663
536.191270	3191.410827
536.551947	3212.737428
536.912567	3217.430743
537.273131	3257.492792
537.633638	3271.991151
537.994089	3318.808347
538.354483	3327.562310
538.714821	3375.037377
539.075103	3414.368459
539.435328	3438.026594
539.795497	3448.118984
540.155609	3502.709639
540.515665	3548.193449
540.875665	3554.008420
541.235609	3595.529884
541.595496	3641.038900
541.955328	3692.012528
542.315102	3732.543404
542.674821	3749.290118
543.034483	3781.770272
543.394090	3825.121674
543.753640	3855.731560
544.113134	3929.846604
544.472571	3963.950010
544.831953	4045.283986
545.191278	4054.310172
545.550548	4109.578862
545.909761	4147.679903
546.268918	4227.337696
546.628019	4272.655148
546.987064	4335.185620
547.346053	4366.145867
547.704986	4420.693672
548.063863	4498.579499
548.422684	4526.978839
548.781449	4574.559770
549.140158	4661.885157
549.498811	4714.867684
549.857408	4726.280856
550.215949	4832.127443
550.574434	4862.991907
550.932864	4951.537254
551.291237	5018.123335
551.649555	5091.088996
552.007817	5167.820398
552.366022	5218.068099
552.724173	5275.249907
553.082267	5354.353173
553.440305	5478.736082
553.798288	5469.420030
554.156215	5609.886741
554.514086	5698.479978
554.871902	5686.078740
555.229661	5796.631244
555.587365	5873.871803
555.945014	5918.758237
556.302606	6066.761473
556.660143	6107.231856
557.017625	6247.786787
557.375050	6268.997442
557.732421	6393.425721
558.089735	6473.438915
558.446994	6544.627569
558.804197	6651.623539
559.161345	6752.552480
559.518437	6749.631132
559.875474	6908.918990
560.232455	6990.232802
560.589381	7086.503717
560.946251	7147.080742
561.303065	7324.831827
561.659825	7432.420132
562.016528	7439.560926
562.373177	7490.968093
562.729770	7633.098384
563.086307	7751.565500
563.442789	7874.322637
563.799216	7933.778005
564.155587	8005.120415
564.511904	8139.588152
564.868164	8192.003549
565.224370	8324.608581
565.580520	8352.322324
565.936615	8522.584775
566.292654	8517.972119
566.648638	8742.248012
567.004567	8755.007173
567.360441	8857.791258
567.716260	8876.453610
568.072023	9105.190925
568.427732	9127.561045
568.783385	9151.753542
569.138982	9322.966250
569.494525	9465.323394
569.850013	9507.205300
570.205445	9617.694789
570.560823	9633.226584
570.916145	9690.284884
571.271412	9816.855654
571.626625	9888.903825
571.981782	9989.580708
572.336884	10011.010653
572.691931	10181.066417
573.046923	10150.196911
573.401860	10259.083314
573.756743	10374.666889
574.111570	10420.775803
574.466342	10489.010341
574.821059	10639.405604
575.175722	10610.050965
575.530330	10753.194528
575.884882	10837.996818
576.239380	10924.490416
576.593823	10967.990532
576.948211	11034.039730
577.302544	11068.962323
577.656823	11119.157092
578.011047	11274.104517
578.365216	11309.327059
578.719330	11361.208094
579.073389	11397.716130
579.427394	11595.435225
579.781344	11556.540202
580.135239	11635.870320
580.489080	11685.886128
580.842866	11647.807772
581.196597	11886.826520
581.550273	11904.962071
581.903895	12015.333093
582.257463	12236.352402
582.610975	12111.591406
582.964434	12342.322497
583.317837	12297.065538
583.671186	12440.932507
584.024481	12522.294209
584.377721	12460.978655
584.730906	12592.225096
585.084037	12730.816497
585.437113	12759.137699
585.790135	12939.467334
586.143103	12751.586051
586.496016	12809.481182
586.848874	13108.136780
587.201679	13133.846665
587.554428	13009.975433
587.907124	13300.156851
588.259765	13247.907812
588.612352	13406.739446
588.964884	13227.067682
589.317362	13408.317327
589.669786	13520.082228
590.022155	13628.459474
590.374470	13827.600175
590.726731	13809.242813
591.078937	13728.370102
591.431090	13853.874669
591.783188	13757.119803
592.135232	13815.100634
592.487222	13993.827182
592.839157	14068.700919
593.191038	14094.758643
593.542866	14073.366507
593.894639	13998.467564
594.246358	14202.500704
594.598022	14209.003793
594.949633	14137.174912
595.301190	14149.750070
595.652692	14343.794164
596.004141	14587.475979
596.355535	14193.797152
596.706876	14270.314306
597.058162	14271.138534
597.409395	14476.759638
597.760573	14635.568587
598.111698	14550.655392
598.462768	14562.517227
598.813785	14585.958592
599.164748	14526.684705
599.515657	14605.581283
599.866511	14534.803483
600.217312	14850.195712
600.568060	14565.357917
600.918753	14865.631725
601.269392	14866.443351
601.619978	14736.235388
601.970510	14987.640251
602.320988	14981.598428
602.671412	15196.442323
603.021783	15181.323902
603.372100	15041.073961
603.722363	15205.365165
604.072572	15213.856989
604.422728	15357.093813
604.772830	15260.611170
605.122878	15224.705552
605.472872	15293.320697
605.822813	15351.573750
606.172701	15353.375962
606.522534	15575.360652
606.872314	15644.414377
607.222041	15527.194947
607.571714	15765.046668
607.921333	15676.521486
608.270899	15784.351767
608.620411	16004.577093
608.969870	15829.807851
609.319276	15883.796088
609.668627	15958.072449
610.017926	16117.435925
610.367171	16257.393479
610.716362	16349.724732
611.065500	16218.052314
611.414585	16370.859770
611.763616	16405.953762
612.112594	16400.476548
612.461518	16398.021507
612.810389	16614.050072
613.159207	16510.623239
613.507971	16475.146119
613.856682	16777.443951
614.205340	16749.493273
614.553945	16919.972493
614.902496	16700.480655
615.250994	16993.500243
615.599439	16942.743385
615.947830	16959.341384
616.296169	17013.138058
616.644454	17031.361829
616.992686	17009.803334
617.340864	17238.376812
617.688990	17063.892395
618.037063	17246.989623
618.385082	17130.813712
618.733048	17411.474911
619.080961	17292.579298
619.428821	17380.280251
619.776628	17313.913461
620.124382	17255.773833
620.472083	17324.683886
620.819731	17381.336373
621.167326	17121.835417
621.514868	17198.803754
621.862357	17001.437540
622.209793	17054.112556
622.557176	16936.512519
622.904506	16797.180068
623.251783	16733.676653
623.599007	16565.914615
623.946179	16534.412444
624.293297	16518.963828
624.640363	16312.563867
624.987376	16332.103379
625.334336	16150.883980
625.681243	16030.985177
626.028097	16043.875408
626.374899	16025.268509
626.721647	15909.279121
627.068343	15750.323978
627.414987	15703.199272
627.761577	15700.865218
628.108115	15766.937101
628.454600	15497.558004
628.801032	15592.868579
629.147412	15544.854109
629.493739	15577.057000
629.840014	15414.406692
630.186236	15525.246541
630.532405	15303.526513
630.878521	15499.002294
631.224585	15393.639658
631.570597	15240.565022
631.916556	15276.586587
632.262462	15266.501758
632.608316	15202.101018
632.954117	15142.784281
633.299866	15157.832125
633.645562	15096.229225
633.991206	14857.727196
634.336797	14744.394496
634.682336	14715.299476
635.027823	14630.522392
635.373257	14534.138051
635.718639	14430.617957
636.063968	14394.729982
636.409245	14165.622143
636.754470	14204.449110
637.099642	14048.606880
637.444762	13840.150127
637.789829	13890.725503
638.134845	13751.226694
638.479808	13772.265950
638.824719	13739.011978
639.169577	13590.247528
639.514383	13640.732163
639.859137	13451.850211
640.203839	13541.199622
640.548489	13389.702867
640.893086	13388.485428
641.237632	13255.822423
641.582125	13409.065938
