Dividing Wavelength (nm)	Counts (n)	Blue Motor Position (mm): 5.000000	Red Motor Position (mm): 0.000000	
326.493990	2103.769282
326.888308	2103.769282
327.282561	2103.769282
327.676750	2078.913873
328.070874	2078.739953
328.464933	2087.133474
328.858929	2096.938518
329.252859	2109.730446
329.646726	2126.182252
330.040528	2140.884777
330.434265	2159.910092
330.827938	2180.039419
331.221547	2198.757223
331.615091	2220.764380
332.008571	2241.932185
332.401986	2260.854156
332.795338	2281.142280
333.188625	2299.431586
333.581847	2323.261120
333.975006	2338.750066
334.368100	2354.846470
334.761129	2373.246681
335.154095	2390.684033
335.546996	2405.578122
335.939833	2419.494227
336.332606	2431.834971
336.725315	2445.834256
337.117960	2449.869699
337.510540	2458.986626
337.903056	2469.714201
338.295508	2475.060345
338.687896	2480.900522
339.080220	2490.032572
339.472480	2493.185814
339.864676	2497.811072
340.256807	2499.270486
340.648875	2503.086640
341.040879	2502.776609
341.432818	2503.951198
341.824694	2506.002947
342.216506	2505.476147
342.608253	2504.941784
342.999937	2504.009171
343.391557	2502.189314
343.783113	2501.355003
344.174605	2499.688902
344.566033	2498.834427
344.957397	2497.422903
345.348697	2496.336535
345.739934	2491.834784
346.131106	2491.146667
346.522215	2490.728251
346.913260	2485.641727
347.304241	2484.280615
347.695159	2484.242807
348.086012	2481.651654
348.476802	2482.765749
348.867528	2479.383134
349.258191	2477.732157
349.648789	2478.332054
350.039324	2475.798874
350.429796	2478.808443
350.820203	2475.783751
351.210548	2473.817701
351.600828	2475.940026
351.991045	2473.895838
352.381198	2474.357104
352.771288	2472.302834
353.161314	2473.621096
353.551276	2474.354583
353.941175	2473.921044
354.331010	2473.863071
354.720782	2473.910962
355.110490	2474.871302
355.500135	2468.947946
355.889717	2475.498925
356.279235	2472.547330
356.668689	2475.219141
357.058080	2473.464820
357.447408	2471.486167
357.836672	2473.096816
358.225873	2476.771817
358.615010	2473.341312
359.004084	2477.921200
359.393095	2478.440439
359.782043	2479.027733
360.170927	2478.831128
360.559748	2479.231900
360.948505	2479.788947
361.337199	2480.401448
361.725830	2479.403299
362.114398	2481.152579
362.502903	2481.845738
362.891344	2482.828763
363.279722	2481.991932
363.668037	2483.501757
364.056289	2480.837507
364.444478	2485.097282
364.832603	2481.447487
365.220665	2483.080821
365.608665	2484.378918
365.996601	2484.903198
366.384474	2484.446973
366.772284	2482.415388
367.160031	2485.263640
367.547715	2487.632983
367.935336	2483.186685
368.322893	2488.772283
368.710388	2486.954948
369.097820	2486.377735
369.485189	2489.029382
369.872495	2487.998466
370.259738	2487.839670
370.646918	2486.309680
371.034035	2488.608446
371.421090	2489.087356
371.808081	2490.145998
372.195010	2490.070381
372.581875	2488.641213
372.968678	2488.121975
373.355418	2492.822851
373.742096	2491.454177
374.128710	2491.648262
374.515262	2491.718838
374.901751	2489.538539
375.288177	2488.583240
375.674540	2491.270175
376.060841	2493.042141
376.447079	2492.472490
376.833254	2490.587099
377.219367	2485.941676
377.605417	2490.934938
377.991404	2488.232880
378.377329	2488.046357
378.763191	2490.355206
379.148991	2491.940649
379.534727	2492.452326
379.920402	2494.330156
380.306013	2491.015597
380.691563	2493.006853
381.077049	2493.266472
381.462474	2494.622542
381.847835	2492.396873
382.233134	2492.336379
382.618371	2494.405773
383.003545	2496.575990
383.388657	2496.913747
383.773706	2496.308808
384.158693	2496.938953
384.543618	2496.797800
384.928480	2497.894251
385.313280	2495.081288
385.698017	2498.877276
386.082692	2494.947697
386.467305	2497.216216
386.851856	2496.633963
387.236344	2499.469612
387.620770	2499.104128
388.005133	2496.207985
388.389435	2499.391474
388.773674	2497.596823
389.157851	2496.535660
389.541965	2500.770230
389.926018	2501.317195
390.310008	2496.233191
390.693936	2498.232009
391.077802	2500.664365
391.461606	2500.548419
391.845348	2502.035559
392.229027	2498.610095
392.612645	2500.719818
392.996200	2502.050683
393.379694	2499.068840
393.763125	2500.404746
394.146494	2499.734273
394.529801	2501.836434
394.913047	2502.990858
395.296230	2500.830723
395.679351	2500.019098
396.062410	2502.466578
396.445408	2501.685199
396.828343	2504.372134
397.211217	2496.691936
397.594028	2504.591424
397.976778	2497.778305
398.359466	2504.868688
398.742092	2499.439365
399.124656	2501.196207
399.507158	2503.883142
399.889598	2504.561177
400.271977	2502.905158
400.654294	2505.708040
401.036549	2503.845333
401.418742	2503.653770
401.800874	2505.670231
402.182944	2505.022443
402.564952	2505.834069
402.946898	2504.863647
403.328783	2504.813235
403.710606	2504.649397
404.092367	2506.065962
404.474067	2506.582680
404.855705	2505.884480
405.237282	2506.318019
405.618797	2507.875736
406.000250	2505.380365
406.381642	2504.818276
406.762972	2505.503873
407.144240	2508.352125
407.525447	2507.056548
407.906593	2509.811539
408.287677	2507.575787
408.668700	2505.236692
409.049661	2508.745335
409.430560	2506.406240
409.811399	2509.428411
410.192176	2505.576970
410.572891	2509.534276
410.953545	2505.723163
411.334138	2508.321878
411.714669	2507.956394
412.095139	2510.902949
412.475547	2509.181395
412.855894	2512.914369
413.236180	2509.032681
413.616405	2512.758093
413.996568	2509.241889
414.376670	2511.200377
414.756711	2506.988493
415.136691	2511.253309
415.516609	2510.149296
415.896466	2510.902949
416.276262	2513.224400
416.655997	2508.407578
417.035670	2505.115704
417.415283	2507.774913
417.794834	2504.818276
418.174324	2511.066786
418.553753	2511.686848
418.933121	2511.611231
419.312428	2509.597290
419.691674	2512.115346
420.070859	2513.191633
420.449983	2510.723988
420.829045	2514.696417
421.208047	2512.836231
421.586988	2513.181550
421.965867	2512.034688
422.344686	2511.258350
422.723444	2511.225583
423.102141	2510.703823
423.480777	2511.250788
423.859352	2513.254647
424.237866	2510.708864
424.616319	2511.800274
424.994712	2512.674914
425.373044	2512.788340
425.751314	2515.132477
426.129524	2513.670542
426.507673	2512.090141
426.885762	2514.754390
427.263789	2514.172137
427.641756	2515.568537
428.019662	2514.789678
428.397508	2514.625841
428.775292	2517.832015
429.153016	2513.393279
429.530679	2514.257837
429.908282	2512.639626
430.285824	2515.006448
430.663305	2515.757580
431.040726	2514.956037
431.418086	2517.758918
431.795385	2512.826149
432.172624	2517.222035
432.549802	2516.977539
432.926920	2515.576098
433.303977	2519.402334
433.680974	2517.705986
434.057910	2515.939062
434.434786	2515.513084
434.811601	2518.769669
435.188355	2516.312107
435.565050	2515.724812
435.941683	2516.014679
436.318257	2513.877230
436.694770	2514.774555
437.071222	2512.637106
437.447614	2514.119205
437.823946	2513.670542
438.200218	2515.923938
438.576429	2516.841428
438.952580	2519.102386
439.328670	2517.529546
439.704700	2514.184740
440.080670	2517.131294
440.456580	2516.904442
440.832429	2518.923425
441.208218	2516.581809
441.583947	2517.635410
441.959616	2517.010307
442.335224	2519.881244
442.710773	2517.700945
443.086261	2522.079187
443.461689	2516.554082
443.837057	2519.180523
444.212365	2517.277488
444.587612	2517.602642
444.962800	2517.090965
445.337927	2520.390400
445.712995	2519.679598
446.088002	2522.270751
446.462949	2517.244720
446.837837	2518.928466
447.212664	2519.430061
447.587431	2519.404855
447.962139	2518.600791
448.336786	2519.901408
448.711374	2520.062725
449.085901	2522.679084
449.460369	2521.494413
449.834776	2521.564989
450.209124	2518.694052
450.583412	2520.413086
450.957640	2520.193795
451.331808	2518.910822
451.705917	2520.314783
452.079965	2520.534073
452.453954	2522.353930
452.827883	2520.133302
453.201752	2520.624814
453.575562	2519.898888
453.949311	2520.859228
454.323001	2520.029958
454.696632	2522.447191
455.070202	2520.062725
455.443713	2522.404341
455.817164	2520.251769
456.190556	2517.380832
456.563888	2519.687159
456.937160	2518.184896
457.310373	2521.736388
457.683526	2520.551717
458.056619	2521.519619
458.429653	2519.727489
458.802628	2522.716893
459.175542	2518.973836
459.548398	2523.278982
459.921194	2522.333765
460.293930	2520.866789
460.666607	2525.023221
461.039224	2522.482479
461.411782	2523.566327
461.784280	2522.447191
462.156719	2521.620442
462.529099	2526.752337
462.901419	2522.414424
463.273680	2522.638755
463.645882	2523.339475
464.018024	2522.253107
464.390106	2521.776718
464.762130	2524.438447
465.134094	2521.781759
465.505999	2525.366019
465.877845	2522.726975
466.249631	2524.249404
466.621358	2521.733868
466.993026	2525.918026
467.364634	2526.953983
467.736184	2525.388704
468.107674	2522.749660
468.479105	2522.590864
468.850477	2522.900895
469.221790	2524.335103
469.593043	2523.871317
469.964238	2522.714372
470.335373	2523.228570
470.706449	2522.527850
471.077467	2523.089938
471.448425	2526.016328
471.819324	2526.076822
472.190164	2525.194620
472.560945	2525.844929
472.931667	2523.253776
473.302330	2523.271420
473.672934	2525.063550
474.043479	2524.814013
474.413965	2523.876358
474.784393	2520.161028
475.154761	2523.309228
475.525070	2519.878723
475.895321	2524.352747
476.265513	2521.703621
476.635645	2524.572038
477.005719	2525.902902
477.375734	2524.335103
477.745691	2522.200175
478.115588	2526.792666
478.485427	2526.417100
478.855207	2528.554549
479.224928	2526.901051
479.594591	2523.122706
479.964194	2525.613036
480.333739	2525.403828
480.703226	2525.144208
481.072653	2525.799558
481.442022	2525.711338
481.811333	2524.574558
482.180584	2527.359796
482.549777	2529.933305
482.918912	2523.352078
483.287988	2527.858870
483.657005	2525.668488
484.025964	2526.573376
484.394864	2525.429034
484.763706	2525.970958
485.132489	2524.778725
485.501213	2524.730834
485.869879	2527.379960
486.238487	2524.224198
486.607036	2527.669827
486.975527	2524.808972
487.343959	2527.143026
487.712333	2528.075639
488.080648	2525.918026
488.448905	2526.631349
488.817104	2526.787625
489.185244	2527.926925
489.553326	2526.328880
489.921350	2525.048427
490.289315	2528.146216
490.657222	2524.672861
491.025070	2527.697553
491.392861	2527.931967
491.760593	2528.420958
492.128267	2526.631349
492.495883	2527.725279
492.863440	2526.349044
493.230939	2526.570855
493.598380	2526.890968
493.965763	2524.496420
494.333088	2528.083201
494.700354	2523.702438
495.067563	2526.384332
495.434713	2524.095648
495.801805	2527.677388
496.168839	2525.567665
496.535815	2527.163191
496.902733	2530.026566
497.269593	2527.551359
497.636395	2528.148736
498.003139	2528.264683
498.369825	2526.144877
498.736453	2527.248890
499.103023	2528.030269
499.469535	2527.521113
499.835989	2527.581606
500.202385	2531.246525
500.568723	2529.656041
500.935003	2529.323325
501.301226	2527.730320
501.667390	2526.492717
502.033497	2530.681916
502.399546	2527.135464
502.765537	2526.573376
503.131470	2528.060516
503.497345	2525.522295
503.863163	2528.564631
504.228923	2528.153777
504.594625	2528.599919
504.960269	2529.504807
505.325856	2530.908768
505.691385	2528.252080
506.056856	2527.390043
506.422270	2529.051103
506.787625	2526.291071
507.152924	2529.653521
507.518164	2529.892975
507.883347	2529.282996
508.248472	2531.541433
508.613540	2529.058664
508.978550	2529.935825
509.343503	2527.460619
509.708398	2529.340969
510.073236	2527.803417
510.438016	2529.761905
510.802738	2528.637728
511.167403	2528.567152
511.532010	2528.219312
511.896561	2530.175280
512.261053	2529.235105
512.625488	2527.233767
512.989866	2525.842408
513.354186	2525.514733
513.718449	2524.942562
514.082655	2529.325846
514.446803	2528.448685
514.810894	2527.372398
515.174927	2528.582275
515.538904	2529.172090
515.902822	2529.441792
516.266684	2529.134282
516.630488	2529.865249
516.994235	2531.206196
517.357925	2530.092101
517.721558	2531.702750
518.085133	2531.274252
518.448651	2531.750641
518.812112	2530.475229
519.175516	2527.919364
519.538863	2528.431041
519.902152	2527.528674
520.265385	2527.072450
520.628560	2530.152595
520.991678	2528.610002
521.354739	2530.276103
521.717743	2525.963396
522.080690	2530.099663
522.443580	2530.991947
522.806413	2530.760054
523.169189	2530.560928
523.531908	2530.419776
523.894569	2528.438603
524.257174	2529.502286
524.619722	2527.324507
524.982213	2532.141330
525.344647	2530.805424
525.707025	2532.481608
526.069345	2527.596730
526.431608	2530.921371
526.793815	2529.154446
527.155964	2530.127389
527.518057	2529.421627
527.880093	2530.928933
528.242072	2531.702750
528.603995	2530.414735
528.965860	2532.113604
529.327669	2530.520599
529.689421	2530.250897
530.051117	2531.468336
530.412755	2529.424148
530.774337	2533.066382
531.135862	2530.444982
531.497331	2528.095804
531.858743	2527.238808
532.220098	2528.022707
532.581396	2526.374250
532.942638	2525.550021
533.303824	2530.021525
533.664953	2530.598737
534.026025	2527.253931
534.387040	2532.579910
534.747999	2529.398942
535.108902	2529.923222
535.469748	2529.446833
535.830537	2530.432379
536.191270	2531.896834
536.551947	2529.938346
536.912567	2530.644107
537.273131	2529.492204
537.633638	2531.463295
537.994089	2530.704601
538.354483	2531.876669
538.714821	2531.049920
539.075103	2532.196783
539.435328	2529.618233
539.795497	2530.462626
540.155609	2532.632843
540.515665	2531.246525
540.875665	2532.882380
541.235609	2532.703419
541.595496	2534.929088
541.955328	2531.813655
542.315102	2533.116793
542.674821	2530.901206
543.034483	2529.754344
543.394090	2533.081505
543.753640	2533.159643
544.113134	2530.913809
544.472571	2532.027904
544.831953	2533.744417
545.191278	2532.756351
545.550548	2532.582431
545.909761	2531.823737
546.268918	2536.083512
546.628019	2533.910775
546.987064	2532.761392
547.346053	2533.053779
547.704986	2533.454551
548.063863	2531.226361
548.422684	2535.029911
548.781449	2533.457071
549.140158	2534.041845
549.498811	2533.504962
549.857408	2533.452030
550.215949	2533.820034
550.574434	2532.095960
550.932864	2532.128727
551.291237	2529.156967
551.649555	2538.064686
552.007817	2533.820034
552.366022	2537.051414
552.724173	2530.739889
553.082267	2534.563604
553.440305	2537.994110
553.798288	2535.110570
554.156215	2536.007895
554.514086	2534.407329
554.871902	2535.942360
555.229661	2536.053265
555.587365	2538.687268
555.945014	2533.580579
556.302606	2536.451517
556.660143	2537.114428
557.017625	2535.425642
557.375050	2537.134593
557.732421	2535.770961
558.089735	2536.335570
558.446994	2535.864222
558.804197	2536.685930
559.161345	2536.189377
559.518437	2536.567463
559.875474	2533.817514
560.232455	2535.816331
560.589381	2539.370345
560.946251	2540.335726
561.303065	2536.995961
561.659825	2537.666435
562.016528	2537.205169
562.373177	2536.701054
562.729770	2537.852957
563.086307	2537.958822
563.442789	2539.088040
563.799216	2538.475540
564.155587	2538.407484
564.511904	2538.755324
564.868164	2537.348842
565.224370	2540.688606
565.580520	2538.384799
565.936615	2536.872453
566.292654	2539.622402
566.648638	2542.977290
567.004567	2538.876312
567.360441	2540.991076
567.716260	2539.682896
568.072023	2537.999151
568.427732	2536.002854
568.783385	2534.258615
569.138982	2535.145858
569.494525	2537.061496
569.850013	2533.129396
570.205445	2541.974101
570.560823	2540.852444
570.916145	2544.061138
571.271412	2539.473688
571.626625	2539.609799
571.981782	2542.168185
572.336884	2541.139790
572.691931	2540.088709
573.046923	2539.261960
573.401860	2539.861857
573.756743	2539.085519
574.111570	2539.075437
574.466342	2540.156765
574.821059	2538.883873
575.175722	2537.921013
575.530330	2541.404450
575.884882	2537.127031
576.239380	2543.430994
576.593823	2542.919317
576.948211	2538.765406
577.302544	2541.341436
577.656823	2540.222300
578.011047	2539.367824
578.365216	2538.745242
578.719330	2537.981507
579.073389	2539.748431
579.427394	2537.003523
579.781344	2537.684079
580.135239	2539.670293
580.489080	2538.629295
580.842866	2537.905889
581.196597	2540.391178
581.550273	2539.864378
581.903895	2538.765406
582.257463	2539.135931
582.610975	2539.229192
582.964434	2534.097298
583.317837	2540.330684
583.671186	2540.456713
584.024481	2538.553678
584.377721	2539.004861
584.730906	2536.779192
585.084037	2539.025026
585.437113	2538.835982
585.790135	2538.783050
586.143103	2535.639891
586.496016	2537.265663
586.848874	2532.698377
587.201679	2534.437576
587.554428	2531.465815
587.907124	2535.954963
588.259765	2531.548994
588.612352	2534.127545
588.964884	2537.656352
589.317362	2536.753986
589.669786	2534.442617
590.022155	2539.153575
590.374470	2536.088553
590.726731	2535.322298
591.078937	2536.577545
591.431090	2532.960518
591.783188	2535.463450
592.135232	2532.534540
592.487222	2535.541588
592.839157	2537.200128
593.191038	2536.781712
593.542866	2537.114428
593.894639	2532.557225
594.246358	2532.900024
594.598022	2534.898841
594.949633	2533.197452
595.301190	2534.180477
595.652692	2535.907072
596.004141	2533.779705
596.355535	2535.871784
596.706876	2533.147040
597.058162	2535.808769
597.409395	2532.537061
597.760573	2534.964376
598.111698	2534.107380
598.462768	2535.854140
598.813785	2535.206352
599.164748	2533.630991
599.515657	2533.260466
599.866511	2534.823224
600.217312	2534.107380
600.568060	2535.692823
600.918753	2535.294572
601.269392	2534.641742
601.619978	2535.307175
601.970510	2534.551002
602.320988	2535.118131
602.671412	2536.345652
603.021783	2534.651825
603.372100	2534.591331
603.722363	2532.320291
604.072572	2536.075951
604.422728	2536.721218
604.772830	2528.695701
605.122878	2531.604447
605.472872	2532.320291
605.822813	2528.670496
606.172701	2531.843902
606.522534	2533.799870
606.872314	2532.905065
607.222041	2532.632842
607.571714	2534.243491
607.921333	2534.039324
608.270899	2534.417411
608.620411	2534.291382
608.969870	2533.850281
609.319276	2533.338604
609.668627	2536.620395
610.017926	2533.585621
610.367171	2535.518903
610.716362	2534.288862
611.065500	2535.531506
611.414585	2533.479756
611.763616	2534.558563
612.112594	2535.143337
612.461518	2533.174767
612.810389	2533.331042
613.159207	2534.293903
613.507971	2533.436907
613.856682	2535.753317
614.205340	2535.450847
614.553945	2533.830117
614.902496	2533.414221
615.250994	2532.413552
615.599439	2535.065199
615.947830	2535.085364
616.296169	2533.943542
616.644454	2534.039324
616.992686	2531.924560
617.340864	2532.806762
617.688990	2533.867925
618.037063	2533.953625
618.385082	2535.425642
618.733048	2531.153264
619.080961	2533.283151
619.428821	2532.053110
619.776628	2531.072605
620.124382	2533.288193
620.472083	2531.569159
620.819731	2536.464119
621.167326	2531.410363
621.514868	2533.131917
621.862357	2531.604447
622.209793	2534.576207
622.557176	2533.774664
622.904506	2533.131917
623.251783	2531.148223
623.599007	2531.710311
623.946179	2529.683768
624.293297	2529.119158
624.640363	2534.112421
624.987376	2532.481608
625.334336	2534.646783
625.681243	2534.649304
626.028097	2534.659386
626.374899	2536.086033
626.721647	2536.501928
627.068343	2536.587628
627.414987	2536.804397
627.761577	2536.058307
628.108115	2536.522093
628.454600	2533.762061
628.801032	2536.539737
629.147412	2534.031763
629.493739	2535.140817
629.840014	2533.880528
630.186236	2535.692823
630.532405	2532.761392
630.878521	2535.720549
631.224585	2533.454551
631.570597	2533.729293
631.916556	2533.837678
632.262462	2533.328522
632.608316	2534.576207
632.954117	2534.916485
633.299866	2536.322967
633.645562	2534.898841
633.991206	2535.027391
634.336797	2535.702905
634.682336	2536.176774
635.027823	2535.279448
635.373257	2537.525282
635.718639	2536.350693
636.063968	2535.344983
636.409245	2534.709798
636.754470	2535.019829
637.099642	2537.351362
637.444762	2540.260108
637.789829	2533.731814
638.134845	2535.952442
638.479808	2533.184849
638.824719	2532.786598
639.169577	2533.935981
639.514383	2535.460930
639.859137	2533.593182
640.203839	2537.817669
640.548489	2533.068902
640.893086	2532.317770
641.237632	2530.795342
641.582125	2535.327339
641.926566	2530.901206
642.270955	2537.210210
642.615292	2534.687113
642.959576	2536.796836
643.303809	2536.116280
643.647990	2536.028060
643.992118	2534.281300
644.336195	2535.231557
