Dividing Wavelength (nm)	Counts (n)	Blue Motor Position (mm): 49.300000	Red Motor Position (mm): 0.000000	
326.493990	2130.925978
326.888308	2130.925978
327.282561	2130.925978
327.676750	2099.670824
328.070874	2094.780905
328.464933	2096.956163
328.858929	2106.705754
329.252859	2113.344954
329.646726	2124.397683
330.040528	2140.126083
330.434265	2158.491007
330.827938	2173.296876
331.221547	2192.256655
331.615091	2211.571836
332.008571	2230.844168
332.401986	2250.179513
332.795338	2266.437234
333.188625	2288.857766
333.581847	2304.858388
333.975006	2325.184321
334.368100	2342.750221
334.761129	2361.626822
335.154095	2377.307331
335.546996	2399.480846
335.939833	2427.144178
336.332606	2438.345622
336.725315	2452.768363
337.117960	2462.197841
337.510540	2471.765951
337.903056	2483.335399
338.295508	2489.394866
338.687896	2498.615136
339.080220	2506.191991
339.472480	2513.413443
339.864676	2520.234125
340.256807	2519.727489
340.648875	2524.516585
341.040879	2528.315094
341.432818	2527.460619
341.824694	2531.546474
342.216506	2529.159487
342.608253	2530.404652
342.999937	2529.794673
343.391557	2530.084539
343.783113	2530.308871
344.174605	2527.198479
344.566033	2525.343334
344.957397	2525.577748
345.348697	2524.239321
345.739934	2524.148581
346.131106	2519.672036
346.522215	2519.883764
346.913260	2517.143897
347.304241	2514.633403
347.695159	2512.949657
348.086012	2513.577281
348.476802	2508.924296
348.867528	2509.476302
349.258191	2504.815756
349.648789	2503.149654
350.039324	2507.147289
350.429796	2505.521517
350.820203	2501.624705
351.210548	2502.393481
351.600828	2500.626557
351.991045	2503.086640
352.381198	2499.328460
352.771288	2500.997082
353.161314	2500.475322
353.551276	2502.068327
353.941175	2499.615805
354.331010	2499.595641
354.720782	2496.754951
355.110490	2497.947183
355.500135	2499.189828
355.889717	2500.792915
356.279235	2499.013388
356.668689	2499.769561
357.058080	2499.225116
357.447408	2500.750065
357.836672	2499.152019
358.225873	2500.490446
358.615010	2497.518685
359.004084	2502.499345
359.393095	2502.340549
359.782043	2503.875580
360.170927	2505.639984
360.559748	2505.574449
360.948505	2504.369613
361.337199	2504.997237
361.725830	2504.561177
362.114398	2509.136024
362.502903	2508.599142
362.891344	2507.573267
363.279722	2508.785664
363.668037	2509.617455
364.056289	2511.172651
364.444478	2512.425377
364.832603	2510.174502
365.220665	2511.371776
365.608665	2514.416633
365.996601	2514.288084
366.384474	2513.501664
366.772284	2517.219515
367.160031	2517.461490
367.547715	2518.061387
367.935336	2519.044412
368.322893	2521.595236
368.710388	2521.030627
369.097820	2529.366175
369.485189	2529.333407
369.872495	2535.506300
370.259738	2539.410674
370.646918	2543.940151
371.034035	2554.259392
371.421090	2561.352296
371.808081	2567.452092
372.195010	2578.358628
372.581875	2588.945052
372.968678	2604.028184
373.355418	2612.076386
373.742096	2630.279992
374.128710	2643.268525
374.515262	2656.869558
374.901751	2673.351611
375.288177	2684.051460
375.674540	2706.572815
376.060841	2725.472101
376.447079	2741.278638
376.833254	2765.587082
377.219367	2776.697785
377.605417	2815.456697
377.991404	2822.335351
378.377329	2845.496932
378.763191	2862.324304
379.148991	2901.771333
379.534727	2925.739499
379.920402	2954.224539
380.306013	2968.191055
380.691563	3017.430526
381.077049	3041.476829
381.462474	3063.299984
381.847835	3104.153495
382.233134	3124.484469
382.618371	3124.890282
383.003545	3193.528112
383.388657	3201.152857
383.773706	3237.807087
384.158693	3253.008686
384.543618	3282.910290
384.928480	3317.684169
385.313280	3361.025489
385.698017	3365.749051
386.082692	3416.195877
386.467305	3421.869696
386.851856	3454.614511
387.236344	3478.446565
387.620770	3515.859489
388.005133	3538.277500
388.389435	3565.134247
388.773674	3575.894590
389.157851	3622.752115
389.541965	3638.261225
389.926018	3600.525668
390.310008	3672.188190
390.693936	3692.282229
391.077802	3735.255545
391.461606	3719.398596
391.845348	3784.653812
392.229027	3784.177423
392.612645	3798.262407
392.996200	3876.914489
393.379694	3914.980242
393.763125	3978.549192
394.146494	3946.923513
394.529801	4010.810056
394.913047	4058.267478
395.296230	4021.353629
395.679351	4079.112649
396.062410	4101.520578
396.445408	4087.044905
396.828343	4115.275366
397.211217	4138.560456
397.594028	4058.905184
397.976778	4126.643168
398.359466	4152.433711
398.742092	4180.863298
399.124656	4103.080815
399.507158	4183.472095
399.889598	4211.390005
400.271977	4267.455198
400.654294	4242.355293
401.036549	4252.304010
401.418742	4219.957446
401.800874	4324.306810
402.182944	4341.945808
402.564952	4408.138678
402.946898	4395.147625
403.328783	4392.218714
403.710606	4303.580106
404.092367	4498.307277
404.474067	4461.264878
404.855705	4475.914471
405.237282	4403.127771
405.618797	4508.064430
406.000250	4541.434348
406.381642	4625.036843
406.762972	4586.739197
407.144240	4596.647585
407.525447	4596.236731
407.906593	4655.162778
408.287677	4694.778686
408.668700	4629.919201
409.049661	4680.713867
409.430560	4718.716605
409.811399	4645.014936
410.192176	4809.147343
410.572891	4743.191407
410.953545	4849.398436
411.334138	4729.386207
411.714669	4796.796516
412.095139	4692.114436
412.475547	4834.186754
412.855894	4810.841171
413.236180	4824.885826
413.616405	4776.213485
413.996568	4867.065160
414.376670	4808.882683
414.756711	4763.051032
415.136691	4797.356084
415.516609	4873.653948
415.896466	4910.053599
416.276262	4945.724804
416.655997	4923.478192
417.035670	5102.310604
417.415283	5194.231003
417.794834	5140.557838
418.174324	5096.190643
418.553753	4997.073997
418.933121	5186.449982
419.312428	5251.006998
419.691674	5189.812432
420.070859	5318.863450
420.449983	5229.335078
420.829045	5344.147357
421.208047	5252.373151
421.586988	5325.805119
421.965867	5344.036452
422.344686	5468.184947
422.723444	5324.121373
423.102141	5142.002129
423.480777	5438.845432
423.859352	5209.712387
424.237866	5466.241582
424.616319	5462.289318
424.994712	5571.097582
425.373044	5443.087563
425.751314	5585.792546
426.129524	5391.572012
426.507673	5586.757927
426.885762	5666.461090
427.263789	5599.423826
427.641756	5483.326053
428.019662	5607.653510
428.397508	5611.315908
428.775292	5560.170882
429.153016	5661.608979
429.530679	5585.364048
429.908282	5664.762221
430.285824	5541.911822
430.663305	5813.897196
431.040726	5546.106062
431.418086	5548.349376
431.795385	5654.178318
432.172624	5667.078631
432.549802	5663.759031
432.926920	5675.696484
433.303977	5684.793246
433.680974	5722.385130
434.057910	5738.970526
434.434786	5741.022276
434.811601	5713.369026
435.188355	5951.429955
435.565050	5821.489173
435.941683	5802.753725
436.318257	6018.167270
436.694770	6002.784189
437.071222	6033.794847
437.447614	5966.709692
437.823946	5885.053082
438.200218	6034.041864
438.576429	5897.116563
438.952580	5998.264795
439.328670	6043.231887
439.704700	5955.291479
440.080670	5943.101969
440.456580	6209.607608
440.832429	6091.621923
441.208218	5933.808602
441.583947	6092.531851
441.959616	6097.888077
442.335224	6023.082395
442.710773	6162.790412
443.086261	6187.852509
443.461689	5979.791487
443.837057	6131.782275
444.212365	6283.838598
444.587612	6178.934707
444.962800	6334.532442
445.337927	6314.816489
445.712995	5922.929792
446.088002	6499.050497
446.462949	6328.135217
446.837837	6264.152893
447.212664	6436.033554
447.587431	6576.991777
447.962139	7118.260465
448.336786	8042.286321
448.711374	7786.019266
449.085901	6865.111363
449.460369	6787.054137
449.834776	6716.349434
450.209124	7107.900894
450.583412	7259.921930
450.957640	7403.650267
451.331808	7167.971283
451.705917	6722.955866
452.079965	6638.221632
452.453954	6856.017122
452.827883	6739.143011
453.201752	6830.657597
453.575562	6626.717718
453.949311	6834.433422
454.323001	6718.355813
454.696632	6790.449354
455.070202	6932.441014
455.443713	7087.083449
455.817164	7190.953904
456.190556	7267.443331
456.563888	7345.359405
456.937160	7387.838688
457.310373	7040.861110
457.683526	7065.192239
458.056619	6961.054603
458.429653	6949.626307
458.802628	6882.649537
459.175542	6988.002091
459.548398	7342.551482
459.921194	7508.292018
460.293930	7511.193202
460.666607	8034.381792
461.039224	8346.648505
461.411782	8468.644428
461.784280	8488.761153
462.156719	8383.476655
462.529099	8260.364116
462.901419	7852.958227
463.273680	7740.548058
463.645882	7762.129237
464.018024	7624.220912
464.390106	7788.015562
464.762130	8177.011158
465.134094	8645.556161
465.505999	9672.076236
465.877845	10889.668645
466.249631	11540.269878
466.621358	11153.416773
466.993026	10532.389469
467.364634	10273.697619
467.736184	9909.499459
468.107674	9580.460827
468.479105	9612.270508
468.850477	9375.510197
469.221790	9150.372266
469.593043	8818.036719
469.964238	8678.941202
470.335373	8688.083335
470.706449	8749.925690
471.077467	8731.119665
471.448425	10041.161795
471.819324	11114.587286
472.190164	11135.601336
472.560945	9890.683352
472.931667	9100.255635
473.302330	8966.193710
473.672934	8607.014019
474.043479	8967.801838
474.413965	8908.129700
474.784393	8791.537894
475.154761	8951.413047
475.525070	9036.492601
475.895321	8861.040282
476.265513	9038.231799
476.635645	9208.017860
477.005719	9207.949805
477.375734	9326.071601
477.745691	9560.795286
478.115588	9694.136326
478.485427	9934.833778
478.855207	10477.156067
479.224928	11286.833431
479.594591	11918.999164
479.964194	11733.555279
480.333739	11667.768221
480.703226	11589.199318
481.072653	11676.318018
481.442022	11917.517065
481.811333	12105.998245
482.180584	11909.657906
482.549777	11614.969696
482.918912	11444.435023
483.287988	11464.637447
483.657005	11473.197327
484.025964	11157.505149
484.394864	11287.234202
484.763706	11260.117836
485.132489	11013.365958
485.501213	10987.361166
485.869879	11058.015457
486.238487	10896.401106
486.607036	11009.781698
486.975527	10790.836824
487.343959	10977.087294
487.712333	11029.336333
488.080648	10952.418408
488.448905	11003.326500
488.817104	10935.223032
489.185244	11203.692201
489.553326	11366.355112
489.921350	11904.316803
490.289315	12967.939771
490.657222	13309.147749
491.025070	13212.856669
491.392861	13092.428545
491.760593	12710.840925
492.128267	12359.560722
492.495883	12029.604600
492.863440	11693.389885
493.230939	11355.957732
493.598380	11285.822679
493.965763	11151.256639
494.333088	11048.933819
494.700354	10975.002777
495.067563	11038.480986
495.434713	10866.128978
495.801805	10991.096661
496.168839	10919.015722
496.535815	10862.713596
496.902733	10849.364620
497.269593	10788.187698
497.636395	10893.731815
498.003139	10878.792356
498.369825	10743.555842
498.736453	10901.326314
499.103023	10827.619603
499.469535	10856.742349
499.835989	10844.739362
500.202385	10807.215533
500.568723	10658.927472
500.935003	10879.364527
501.301226	10682.094095
501.667390	10949.607965
502.033497	11044.066585
502.399546	10909.266131
502.765537	10810.232664
503.131470	10890.228213
503.497345	11064.024513
503.863163	10668.934163
504.228923	10978.866822
504.594625	11042.720597
504.960269	10789.349684
505.325856	11013.645742
505.691385	10805.567076
506.056856	10958.044336
506.422270	10982.221709
506.787625	10869.380522
507.152924	10989.901907
507.518164	10973.651748
507.883347	10886.664118
508.248472	10804.747888
508.613540	11045.813345
508.978550	10923.280539
509.343503	10900.844883
509.708398	11017.756803
510.073236	11137.700976
510.438016	11147.274127
510.802738	11087.208779
511.167403	11147.500979
511.532010	11041.901409
511.896561	11273.492017
512.261053	11346.543377
512.625488	11209.126565
512.989866	11197.801612
513.354186	11187.464727
513.718449	11080.993037
514.082655	11284.887545
514.446803	11172.923518
514.810894	11298.942282
515.174927	11163.688124
515.538904	11185.634788
515.902822	11337.612973
516.266684	11224.686086
516.630488	11170.498723
516.994235	11220.562422
517.357925	11284.963162
517.721558	11362.944771
518.085133	11380.908923
518.448651	11395.429967
518.812112	11277.555187
519.175516	11297.578650
519.538863	11418.044583
519.902152	11323.845582
520.265385	11492.522590
520.628560	11394.520038
520.991678	11382.973276
521.354739	11445.990219
521.717743	11378.214426
522.080690	11354.321878
522.443580	11496.086686
522.806413	11449.156064
523.169189	11485.371713
523.531908	11538.019003
523.894569	11354.760458
524.257174	11362.181037
524.619722	11477.641104
524.982213	11431.401120
525.344647	11473.862759
525.707025	11433.326841
526.069345	11531.551203
526.431608	11437.420258
526.793815	11549.175077
527.155964	11337.076090
527.518057	11391.883515
527.880093	11337.673467
528.242072	11408.098386
528.603995	11309.805969
528.965860	11231.393341
529.327669	11282.790425
529.689421	11236.678991
530.051117	11206.260669
530.412755	11310.022738
530.774337	11200.503671
531.135862	11180.815445
531.497331	11202.366377
531.858743	11053.748121
532.220098	11223.997968
532.581396	11097.228073
532.942638	11072.188662
533.303824	11033.180213
533.664953	11051.547657
534.026025	10965.938783
534.387040	11062.746580
534.747999	11069.358054
535.108902	11129.347784
535.469748	10883.079857
535.830537	10991.464665
536.191270	10964.421395
536.551947	10987.277987
536.912567	10997.884574
537.273131	10910.942315
537.633638	10895.208873
537.994089	10878.338652
538.354483	10831.937352
538.714821	10982.143572
539.075103	10981.828499
539.435328	10946.918509
539.795497	10778.382654
540.155609	10938.033475
540.515665	11019.695127
540.875665	10763.438153
541.235609	10826.780251
541.595496	10822.623820
541.955328	10981.697429
542.315102	10856.200425
542.674821	10804.881479
543.034483	10803.036417
543.394090	10814.056379
543.753640	10741.113403
544.113134	10966.279060
544.472571	10816.765999
544.831953	10959.425612
545.191278	10758.979252
545.550548	10791.328337
545.909761	10931.323700
546.268918	10904.403938
546.628019	10987.819911
546.987064	10850.065341
547.346053	10777.535740
547.704986	10881.943077
548.063863	10861.788544
548.422684	10856.560868
548.781449	10775.050451
549.140158	10876.042407
549.498811	10746.013405
549.857408	10609.262024
550.215949	10838.939514
550.574434	10688.922337
550.932864	10786.569488
551.291237	10842.039824
551.649555	10791.414036
552.007817	10808.743003
552.366022	10770.689853
552.724173	10756.556978
553.082267	10746.300751
553.440305	10882.091791
553.798288	10685.993427
554.156215	10840.877838
554.514086	10815.833386
554.871902	10658.340178
555.229661	10705.512775
555.587365	10678.109063
555.945014	10572.108721
556.302606	10699.793586
556.660143	10590.324930
557.017625	10747.354352
557.375050	10638.755295
557.732421	10770.949472
558.089735	10691.838645
558.446994	10683.581235
558.804197	10725.574047
559.161345	10725.185878
559.518437	10578.286655
559.875474	10662.990642
560.232455	10698.737464
560.589381	10648.648559
560.946251	10646.838785
561.303065	10746.542726
561.659825	10679.676861
562.016528	10617.678231
562.373177	10487.644188
562.729770	10609.710687
563.086307	10528.308655
563.442789	10618.762079
563.799216	10495.841104
564.155587	10547.230626
564.511904	10495.901598
564.868164	10490.459672
565.224370	10505.008442
565.580520	10434.170148
565.936615	10436.300036
566.292654	10299.571341
566.648638	10435.178379
567.004567	10394.864272
567.360441	10380.139062
567.716260	10285.282190
568.072023	10382.168126
568.427732	10325.792902
568.783385	10242.742413
569.138982	10310.288834
569.494525	10324.666205
569.850013	10201.019304
570.205445	10279.653742
570.560823	10179.652373
570.916145	10100.188665
571.271412	10166.063943
571.626625	10110.669224
571.981782	10088.430174
572.336884	10063.889837
572.691931	10062.392614
573.046923	10014.158854
573.401860	9966.696391
573.756743	9903.671885
574.111570	9951.051170
574.466342	9935.388305
574.821059	9964.422830
575.175722	9853.610707
575.530330	9863.932469
575.884882	9853.401499
576.239380	9777.592627
576.593823	9751.817208
576.948211	9779.266291
577.302544	9651.170571
577.656823	9670.584055
578.011047	9675.360548
578.365216	9642.976176
578.719330	9569.382891
579.073389	9572.226102
579.427394	9525.179534
579.781344	9502.330504
580.135239	9455.929203
580.489080	9465.252817
580.842866	9365.843784
581.196597	9371.414259
581.550273	9411.012523
581.903895	9374.174291
582.257463	9446.202297
582.610975	9323.301487
582.964434	9346.062297
583.317837	9266.999360
583.671186	9255.024099
584.024481	9243.794929
584.377721	9164.459770
584.730906	9141.194845
585.084037	9171.804732
585.437113	9107.827448
585.790135	9126.875448
586.143103	9027.005149
586.496016	9000.385336
586.848874	9060.614522
587.201679	9049.975167
587.554428	8933.953011
587.907124	8972.802663
588.259765	8952.214591
588.612352	8954.180641
588.964884	8827.892175
589.317362	8843.144186
589.669786	8841.394906
590.022155	8888.993480
590.374470	8900.807424
590.726731	8846.491512
591.078937	8697.195220
591.431090	8815.057397
591.783188	8683.208539
592.135232	8673.327877
592.487222	8672.937188
592.839157	8730.933142
593.191038	8664.654572
593.542866	8607.238351
593.894639	8499.599634
594.246358	8557.474600
594.598022	8571.196621
594.949633	8474.308165
595.301190	8445.555944
595.652692	8476.075089
596.004141	8588.344106
596.355535	8365.041155
596.706876	8343.258329
597.058162	8276.410109
597.409395	8354.124537
597.760573	8416.753311
598.111698	8324.510278
598.462768	8307.836662
598.813785	8273.433308
599.164748	8242.251250
599.515657	8234.971824
599.866511	8140.886249
600.217312	8267.835106
600.568060	8126.360165
600.918753	8228.945125
601.269392	8206.643060
601.619978	8119.877241
601.970510	8178.773041
602.320988	8176.058380
602.671412	8227.309270
603.021783	8162.056575
603.372100	8141.977659
603.722363	8144.155438
604.072572	8120.671222
604.422728	8129.468036
604.772830	8057.772746
605.122878	8065.959580
605.472872	8056.953558
605.822813	8087.036644
606.172701	8035.871453
606.522534	8103.937112
606.872314	8109.832742
607.222041	8080.309224
607.571714	8131.129096
607.921333	8093.406142
608.270899	8093.905216
608.620411	8188.199999
608.969870	8087.873476
609.319276	8084.881551
609.668627	8104.665559
610.017926	8139.547823
610.367171	8182.074997
610.716362	8158.225298
611.065500	8153.887385
611.414585	8178.314296
611.763616	8159.961976
612.112594	8151.064339
612.461518	8165.527409
612.810389	8232.617605
613.159207	8159.422572
613.507971	8116.030840
613.856682	8234.545847
614.205340	8187.398455
614.553945	8257.657017
614.902496	8161.073550
615.250994	8216.566572
615.599439	8199.600568
615.947830	8213.541879
616.296169	8185.296294
616.644454	8201.425466
616.992686	8198.670475
617.340864	8260.301102
617.688990	8166.339035
618.037063	8260.429651
618.385082	8194.629991
618.733048	8278.640819
619.080961	8213.531797
619.428821	8242.732681
619.776628	8242.936847
620.124382	8192.174949
620.472083	8172.993358
620.819731	8201.337246
621.167326	8101.035928
621.514868	8111.536652
621.862357	7992.323446
622.209793	8014.870006
622.557176	7945.319727
622.904506	7914.445180
623.251783	7851.387907
623.599007	7801.493087
623.946179	7809.125394
624.293297	7769.522090
624.640363	7686.272475
624.987376	7666.589290
625.334336	7613.458049
625.681243	7561.740852
626.028097	7549.934469
626.374899	7523.544029
626.721647	7515.846187
627.068343	7446.071577
627.414987	7419.038389
627.761577	7378.694035
628.108115	7417.740292
628.454600	7300.770399
628.801032	7356.167639
629.147412	7321.776887
629.493739	7311.303890
629.840014	7243.555824
630.186236	7298.769061
630.532405	7182.078952
630.878521	7236.407467
631.224585	7193.900458
631.570597	7118.840198
631.916556	7147.179044
632.262462	7150.584344
632.608316	7105.574402
632.954117	7084.550270
633.299866	7071.634833
633.645562	7066.802888
633.991206	6981.161245
634.336797	6922.658655
634.682336	6878.573765
635.027823	6850.693663
635.373257	6839.335944
635.718639	6773.874040
636.063968	6790.472039
636.409245	6685.706780
636.754470	6677.527508
637.099642	6636.172403
637.444762	6582.932777
637.789829	6590.002995
638.134845	6535.084665
638.479808	6518.337952
638.824719	6519.762078
639.169577	6448.097035
639.514383	6472.735674
639.859137	6398.860085
640.203839	6403.533235
640.548489	6396.687348
