Dividing Wavelength (nm)	Counts (n)	Blue Motor Position (mm): 1.800000	Red Motor Position (mm): 0.000000	
326.493990	2063.240926
326.888308	2063.240926
327.282561	2063.240926
327.676750	2037.641946
328.070874	2040.344005
328.464933	2047.772145
328.858929	2054.721376
329.252859	2066.777295
329.646726	2080.403534
330.040528	2096.293251
330.434265	2109.831269
330.827938	2135.997378
331.221547	2155.942704
331.615091	2174.514314
332.008571	2195.916533
332.401986	2212.580067
332.795338	2236.056721
333.188625	2256.526326
333.581847	2273.361259
333.975006	2293.107459
334.368100	2311.462300
334.761129	2328.287151
335.154095	2339.594459
335.546996	2356.762108
335.939833	2370.237113
336.332606	2383.321427
336.725315	2393.219733
337.117960	2404.796743
337.510540	2415.463824
337.903056	2423.643096
338.295508	2430.057965
338.687896	2439.623554
339.080220	2444.170675
339.472480	2447.480192
339.864676	2451.177879
340.256807	2453.000256
340.648875	2458.580813
341.040879	2458.177521
341.432818	2459.145422
341.824694	2461.267748
342.216506	2459.170628
342.608253	2458.641307
342.999937	2458.936214
343.391557	2457.544856
343.783113	2456.718107
344.174605	2454.310956
344.566033	2452.291974
344.957397	2451.709720
345.348697	2449.879782
345.739934	2447.886005
346.131106	2443.729574
346.522215	2443.487598
346.913260	2442.373503
347.304241	2443.147321
347.695159	2439.908379
348.086012	2440.876281
348.476802	2437.644901
348.867528	2435.565425
349.258191	2428.096956
349.648789	2431.391350
350.039324	2424.915988
350.429796	2430.572162
350.820203	2433.218768
351.210548	2427.290371
351.600828	2429.581576
351.991045	2426.617377
352.381198	2428.664086
352.771288	2429.032090
353.161314	2428.233067
353.551276	2428.699374
353.941175	2428.107038
354.331010	2425.359609
354.720782	2428.228026
355.110490	2426.705597
355.500135	2431.189704
355.889717	2426.314908
356.279235	2427.875145
356.668689	2427.895310
357.058080	2429.899168
357.447408	2430.478901
357.836672	2431.005702
358.225873	2435.525096
358.615010	2432.712132
359.004084	2430.743562
359.393095	2431.199786
359.782043	2434.116093
360.170927	2433.740527
360.559748	2433.523758
360.948505	2433.362441
361.337199	2433.395208
361.725830	2433.821186
362.114398	2435.547781
362.502903	2433.574169
362.891344	2435.930909
363.279722	2436.850919
363.668037	2434.368151
364.056289	2436.457709
364.444478	2439.875612
364.832603	2437.826383
365.220665	2437.798656
365.608665	2439.247988
365.996601	2440.677155
366.384474	2439.242947
366.772284	2439.379058
367.160031	2440.150355
367.547715	2442.721343
367.935336	2440.059614
368.322893	2440.757814
368.710388	2436.180446
369.097820	2439.631116
369.485189	2436.840837
369.872495	2442.512135
370.259738	2441.647577
370.646918	2442.139090
371.034035	2441.191353
371.421090	2443.253185
371.808081	2444.619337
372.195010	2441.821497
372.581875	2444.342074
372.968678	2442.454162
373.355418	2444.813422
373.742096	2444.757969
374.128710	2444.619338
374.515262	2447.845676
374.901751	2446.797116
375.288177	2442.494491
375.674540	2444.684872
376.060841	2445.942640
376.447079	2445.090685
376.833254	2446.671087
377.219367	2447.502877
377.605417	2446.749225
377.991404	2447.954061
378.377329	2444.344595
378.763191	2445.937599
379.148991	2446.497167
379.534727	2448.070007
379.920402	2450.930862
380.306013	2448.362394
380.691563	2449.950358
381.077049	2447.626386
381.462474	2447.986828
381.847835	2450.719134
382.233134	2446.832404
382.618371	2449.771397
383.003545	2445.839297
383.388657	2450.068825
383.773706	2449.766356
384.158693	2450.756942
384.543618	2451.298866
384.928480	2450.262909
385.313280	2452.753239
385.698017	2451.187961
386.082692	2452.203753
386.467305	2451.727364
386.851856	2453.859772
387.236344	2451.230811
387.620770	2449.410954
388.005133	2448.024637
388.389435	2450.028496
388.773674	2446.855089
389.157851	2453.438836
389.541965	2453.390945
389.926018	2453.491768
390.310008	2455.810699
390.693936	2451.137549
391.077802	2455.233487
391.461606	2456.619804
391.845348	2455.152828
392.229027	2456.377829
392.612645	2455.356995
392.996200	2455.263734
393.379694	2457.514609
393.763125	2454.845318
394.146494	2457.617953
394.529801	2457.063426
394.913047	2456.143415
395.296230	2455.188117
395.679351	2455.661985
396.062410	2454.389094
396.445408	2456.642489
396.828343	2458.205247
397.211217	2457.658282
397.594028	2459.170628
397.976778	2457.300360
398.359466	2457.907819
398.742092	2457.504527
399.124656	2457.658282
399.507158	2459.001749
399.889598	2456.990329
400.271977	2457.081070
400.654294	2458.570731
401.036549	2460.327573
401.418742	2459.755402
401.800874	2459.198354
402.182944	2460.882100
402.564952	2458.449743
402.946898	2459.198354
403.328783	2461.900413
403.710606	2461.691205
404.092367	2459.886472
404.474067	2461.418983
404.855705	2462.137347
405.237282	2461.799590
405.618797	2459.843622
406.000250	2463.846298
406.381642	2459.349589
406.762972	2457.998560
407.144240	2456.763477
407.525447	2458.656430
407.906593	2458.439661
408.287677	2462.427213
408.668700	2461.572738
409.049661	2463.841257
409.430560	2460.602316
409.811399	2463.533747
410.192176	2461.391256
410.572891	2465.709005
410.953545	2460.375464
411.334138	2463.006946
411.714669	2460.693057
412.095139	2463.067440
412.475547	2463.579117
412.855894	2461.149281
413.236180	2462.243211
413.616405	2464.431072
413.996568	2467.314612
414.376670	2462.366720
414.756711	2463.566514
415.136691	2463.526185
415.516609	2466.666824
415.896466	2468.721094
416.276262	2461.552573
416.655997	2465.545167
417.035670	2462.943932
417.415283	2466.024077
417.794834	2466.571042
418.174324	2464.806638
418.553753	2465.966103
418.933121	2468.164047
419.312428	2465.000722
419.691674	2467.949798
420.070859	2465.910651
420.449983	2465.512400
420.829045	2467.138172
421.208047	2465.837554
421.586988	2467.990127
421.965867	2466.253449
422.344686	2465.043572
422.723444	2467.727987
423.102141	2468.463995
423.480777	2471.392906
423.859352	2467.579273
424.237866	2464.975517
424.616319	2466.155147
424.994712	2469.688996
425.373044	2466.586165
425.751314	2470.120014
426.129524	2464.491566
426.507673	2466.155147
426.885762	2464.668006
427.263789	2467.705302
427.641756	2467.370065
428.019662	2469.623461
428.397508	2467.503655
428.775292	2471.251753
429.153016	2468.219499
429.530679	2468.751341
429.908282	2469.895683
430.285824	2468.831999
430.663305	2470.112452
431.040726	2470.780405
431.418086	2470.919037
431.795385	2468.156485
432.172624	2468.564818
432.549802	2474.097485
432.926920	2468.521968
433.303977	2471.317288
433.680974	2470.702268
434.057910	2473.343832
434.434786	2473.099336
434.811601	2471.120683
435.188355	2469.260497
435.565050	2471.866774
435.941683	2470.498101
436.318257	2470.790488
436.694770	2470.321660
437.071222	2470.901393
437.447614	2472.380972
437.823946	2470.848461
438.200218	2470.760241
438.576429	2472.451548
438.952580	2474.011785
439.328670	2474.775520
439.704700	2469.878039
440.080670	2472.317957
440.456580	2473.283338
440.832429	2472.234778
441.208218	2473.041363
441.583947	2471.672690
441.959616	2471.891980
442.335224	2472.970787
442.710773	2471.433235
443.086261	2472.958184
443.461689	2472.585138
443.837057	2472.214614
444.212365	2470.818214
444.587612	2469.507514
444.962800	2469.275621
445.337927	2473.643781
445.712995	2468.912658
446.088002	2473.147227
446.462949	2471.904583
446.837837	2474.878863
447.212664	2471.624799
447.587431	2473.374079
447.962139	2472.728811
448.336786	2476.854996
448.711374	2474.379789
449.085901	2474.316775
449.460369	2475.808956
449.834776	2474.276446
450.209124	2474.909110
450.583412	2476.239975
450.957640	2476.277784
451.331808	2475.108236
451.705917	2473.152268
452.079965	2475.236785
452.453954	2473.167392
452.827883	2477.638895
453.201752	2474.515900
453.575562	2478.238793
453.949311	2473.235447
454.323001	2476.713843
454.696632	2474.455407
455.070202	2474.427680
455.443713	2477.061683
455.817164	2476.000520
456.190556	2476.091261
456.563888	2475.889615
456.937160	2477.407002
457.310373	2475.962712
457.683526	2476.277784
458.056619	2476.217290
458.429653	2474.563791
458.802628	2477.306179
459.175542	2474.788123
459.548398	2476.121508
459.921194	2479.252064
460.293930	2476.721405
460.666607	2478.422795
461.039224	2475.735860
461.411782	2477.656539
461.784280	2475.141003
462.156719	2476.534883
462.529099	2478.891622
462.901419	2476.918010
463.273680	2474.105046
463.645882	2474.475571
464.018024	2474.810808
464.390106	2471.244192
464.762130	2476.620582
465.134094	2476.950778
465.505999	2478.853813
465.877845	2479.178968
466.249631	2477.545634
466.621358	2475.138483
466.993026	2478.281642
467.364634	2482.594349
467.736184	2476.723926
468.107674	2476.673514
468.479105	2477.976652
468.850477	2477.840541
469.221790	2477.280973
469.593043	2476.635706
469.964238	2481.467652
470.335373	2478.067393
470.706449	2478.145531
471.077467	2476.993627
471.448425	2475.695530
471.819324	2478.337095
472.190164	2478.453042
472.560945	2482.024699
472.931667	2479.524287
473.302330	2480.164513
473.672934	2477.880871
474.043479	2480.658546
474.413965	2479.536890
474.784393	2479.022692
475.154761	2478.271560
475.525070	2478.566468
475.895321	2476.242496
476.265513	2478.024543
476.635645	2478.967239
477.005719	2482.241469
477.375734	2481.460090
477.745691	2478.352218
478.115588	2480.628299
478.485427	2479.133597
478.855207	2480.582929
479.224928	2479.947744
479.594591	2479.040336
479.964194	2480.509832
480.333739	2478.269039
480.703226	2481.450007
481.072653	2478.919348
481.442022	2479.700727
481.811333	2479.204173
482.180584	2473.472382
482.549777	2479.231900
482.918912	2475.708133
483.287988	2481.460090
483.657005	2477.412043
484.025964	2479.383134
484.394864	2480.202322
484.763706	2481.233238
485.132489	2478.437918
485.501213	2480.098978
485.869879	2480.761890
486.238487	2480.419092
486.607036	2482.009576
486.975527	2481.162662
487.343959	2479.052939
487.712333	2481.263485
488.080648	2480.033443
488.448905	2479.269708
488.817104	2481.931438
489.185244	2482.211222
489.553326	2480.605614
489.921350	2481.661736
490.289315	2480.351036
490.657222	2480.832466
491.025070	2480.658546
491.392861	2480.174596
491.760593	2481.245841
492.128267	2479.914976
492.495883	2481.167703
492.863440	2481.422281
493.230939	2483.153918
493.598380	2485.422437
493.965763	2481.923876
494.333088	2484.048722
494.700354	2479.819194
495.067563	2481.651654
495.434713	2481.628968
495.801805	2482.622076
496.168839	2483.070738
496.535815	2484.078969
496.902733	2481.737353
497.269593	2479.829277
497.636395	2481.785244
498.003139	2484.641058
498.369825	2481.366828
498.736453	2483.196767
499.103023	2480.610655
499.469535	2481.139977
499.835989	2482.531335
500.202385	2479.005048
500.568723	2476.784420
500.935003	2481.291211
501.301226	2478.914307
501.667390	2481.608804
502.033497	2486.561738
502.399546	2481.409678
502.765537	2483.516881
503.131470	2482.511170
503.497345	2484.245327
503.863163	2481.240800
504.228923	2485.533342
504.594625	2482.642240
504.960269	2481.868423
505.325856	2480.434215
505.691385	2482.128043
506.056856	2484.946048
506.422270	2483.993270
506.787625	2480.903042
507.152924	2485.583754
507.518164	2484.532673
507.883347	2485.051912
508.248472	2482.412868
508.613540	2482.879175
508.978550	2486.649958
509.343503	2482.964874
509.708398	2482.324648
510.073236	2484.938486
510.438016	2483.045533
510.802738	2483.748774
511.167403	2481.596201
511.532010	2483.854638
511.896561	2485.311531
512.261053	2483.239617
512.625488	2482.022178
512.989866	2484.424288
513.354186	2482.659884
513.718449	2483.731130
514.082655	2484.958651
514.446803	2481.482775
514.810894	2484.920842
515.174927	2483.728609
515.538904	2484.850266
515.902822	2485.893785
516.266684	2486.841522
516.630488	2481.034112
516.994235	2485.278764
517.357925	2483.108547
517.721558	2485.803044
518.085133	2482.886736
518.448651	2484.134422
518.812112	2480.638382
519.175516	2484.457056
519.538863	2478.722743
519.902152	2484.754484
520.265385	2482.354895
520.628560	2486.032416
520.991678	2484.603249
521.354739	2485.263640
521.717743	2484.114257
522.080690	2484.588126
522.443580	2482.155769
522.806413	2485.253558
523.169189	2484.179792
523.531908	2485.465287
523.894569	2482.531335
524.257174	2483.980667
524.619722	2485.435040
524.982213	2485.198105
525.344647	2483.879844
525.707025	2485.616521
526.069345	2481.777683
526.431608	2485.306490
526.793815	2487.504433
527.155964	2486.395379
527.518057	2485.245996
527.880093	2483.305152
528.242072	2483.877323
528.603995	2486.912098
528.965860	2482.445635
529.327669	2483.111068
529.689421	2485.382108
530.051117	2485.823208
530.412755	2482.327168
530.774337	2484.578043
531.135862	2485.757673
531.497331	2484.777169
531.858743	2486.539052
532.220098	2486.274392
532.581396	2484.462097
532.942638	2484.930924
533.303824	2485.591315
533.664953	2484.129381
534.026025	2484.656181
534.387040	2486.992756
534.747999	2484.212560
535.108902	2485.132570
535.469748	2484.628455
535.830537	2484.976295
536.191270	2483.607621
536.551947	2482.191057
536.912567	2482.649802
537.273131	2484.462097
537.633638	2480.199801
537.994089	2483.998311
538.354483	2483.577374
538.714821	2488.426964
539.075103	2483.393372
539.435328	2486.871768
539.795497	2484.704072
540.155609	2484.217601
540.515665	2485.084679
540.875665	2484.991418
541.235609	2483.698362
541.595496	2484.905718
541.955328	2485.740029
542.315102	2487.638024
542.674821	2484.288177
543.034483	2484.257930
543.394090	2483.262302
543.753640	2483.083341
544.113134	2485.316573
544.472571	2486.844042
544.831953	2485.150214
545.191278	2485.674494
545.550548	2486.554176
545.909761	2485.437560
546.268918	2488.109372
546.628019	2485.077118
546.987064	2483.645430
547.346053	2486.229021
547.704986	2485.225832
548.063863	2486.259268
548.422684	2483.164000
548.781449	2486.105513
549.140158	2483.836994
549.498811	2487.539721
549.857408	2484.862869
550.215949	2484.136943
550.574434	2484.943527
550.932864	2487.365802
551.291237	2486.201295
551.649555	2483.736171
552.007817	2483.504278
552.366022	2485.588795
552.724173	2486.579382
553.082267	2486.745740
553.440305	2485.997128
553.798288	2486.841522
554.156215	2484.416727
554.514086	2483.161479
554.871902	2481.505460
555.229661	2482.727940
555.587365	2478.833649
555.945014	2486.753301
556.302606	2487.078456
556.660143	2487.207005
557.017625	2486.718013
557.375050	2485.959320
557.732421	2485.639206
558.089735	2486.511326
558.446994	2485.278764
558.804197	2487.433857
559.161345	2484.671305
559.518437	2484.630976
559.875474	2486.594505
560.232455	2484.525111
560.589381	2486.493682
560.946251	2487.920328
561.303065	2486.372694
561.659825	2487.970740
562.016528	2485.112406
562.373177	2483.854638
562.729770	2486.218939
563.086307	2483.640389
563.442789	2487.272540
563.799216	2484.860348
564.155587	2485.404793
564.511904	2486.468476
564.868164	2485.394710
565.224370	2485.868579
565.580520	2487.350678
565.936615	2486.221460
566.292654	2483.610142
566.648638	2487.713641
567.004567	2488.575678
567.360441	2487.600215
567.716260	2482.090234
568.072023	2488.368991
568.427732	2484.162148
568.783385	2484.446973
569.138982	2485.210708
569.494525	2486.286995
569.850013	2485.273723
570.205445	2485.538383
570.560823	2486.919659
570.916145	2486.171048
571.271412	2486.846563
571.626625	2487.524598
571.981782	2486.629793
572.336884	2484.353712
572.691931	2480.620738
573.046923	2484.794813
573.401860	2480.071252
573.756743	2485.495533
574.111570	2488.263127
574.466342	2483.453866
574.821059	2485.102323
575.175722	2487.615339
575.530330	2487.438898
575.884882	2484.855307
576.239380	2483.257261
576.593823	2487.716162
576.948211	2487.000318
577.302544	2486.808754
577.656823	2484.749443
578.011047	2485.873620
578.365216	2485.150214
578.719330	2487.607777
579.073389	2486.218939
579.427394	2486.352530
579.781344	2487.501913
580.135239	2484.182313
580.489080	2485.896305
580.842866	2486.302118
581.196597	2487.060812
581.550273	2484.658702
581.903895	2488.711790
582.257463	2486.569299
582.610975	2484.814978
582.964434	2483.763897
583.317837	2485.866058
583.671186	2485.349340
584.024481	2487.050729
584.377721	2489.150370
584.730906	2483.209370
585.084037	2485.392190
585.437113	2484.625934
585.790135	2486.138281
586.143103	2486.034937
586.496016	2485.908908
586.848874	2483.158959
587.201679	2487.640544
587.554428	2488.847901
587.907124	2488.288333
588.259765	2483.773979
588.612352	2488.852942
588.964884	2484.663743
589.317362	2486.254227
589.669786	2485.510657
590.022155	2483.254741
590.374470	2481.437405
590.726731	2486.380256
591.078937	2483.274905
591.431090	2485.833291
591.783188	2485.157776
592.135232	2483.300111
592.487222	2487.413692
592.839157	2486.327324
593.191038	2484.888074
593.542866	2487.128867
593.894639	2485.230873
594.246358	2486.743219
594.598022	2485.359422
594.949633	2485.679536
595.301190	2485.354381
595.652692	2485.553507
596.004141	2483.327837
596.355535	2488.908395
596.706876	2485.077118
597.058162	2488.575678
597.409395	2485.732468
597.760573	2486.637355
598.111698	2488.053919
598.462768	2482.357415
598.813785	2485.566110
599.164748	2485.913949
599.515657	2484.691469
599.866511	2484.169710
600.217312	2486.894454
600.568060	2487.063332
600.918753	2488.293374
601.269392	2486.042499
601.619978	2487.988384
601.970510	2487.375884
602.320988	2487.441419
602.671412	2485.223311
603.021783	2484.898157
603.372100	2485.029227
603.722363	2483.053094
604.072572	2485.626603
604.422728	2484.358753
604.772830	2484.386480
605.122878	2486.297077
605.472872	2486.470997
605.822813	2487.378404
606.172701	2486.208857
606.522534	2488.265647
606.872314	2487.796820
607.222041	2485.646768
607.571714	2485.500575
607.921333	2481.021509
608.270899	2483.320276
608.620411	2481.260964
608.969870	2486.458394
609.319276	2485.961840
609.668627	2485.283805
610.017926	2487.771614
610.367171	2485.412354
610.716362	2486.234063
611.065500	2487.121306
611.414585	2484.545276
611.763616	2485.820688
612.112594	2487.537201
612.461518	2488.195071
612.810389	2486.377735
613.159207	2486.957468
613.507971	2484.464618
613.856682	2487.816985
614.205340	2486.987715
614.553945	2485.389669
614.902496	2486.909577
615.250994	2484.716675
615.599439	2484.532673
615.947830	2487.282622
616.296169	2486.110554
616.644454	2486.057622
616.992686	2484.623414
617.340864	2484.855307
617.688990	2482.937148
618.037063	2486.241624
618.385082	2485.074597
618.733048	2488.928559
619.080961	2485.606439
619.428821	2485.803044
619.776628	2485.896305
620.124382	2490.032572
620.472083	2484.636017
620.819731	2486.881851
621.167326	2482.022178
621.514868	2485.145173
621.862357	2484.058805
622.209793	2487.731285
622.557176	2485.556027
622.904506	2485.770276
623.251783	2484.603249
623.599007	2484.910760
623.946179	2488.104331
624.293297	2487.655668
624.640363	2486.612149
624.987376	2482.813640
625.334336	2482.672487
625.681243	2482.632158
626.028097	2482.044864
626.374899	2484.283136
626.721647	2484.058805
627.068343	2488.618528
627.414987	2486.501244
627.761577	2487.169197
628.108115	2486.980153
628.454600	2483.829432
628.801032	2486.660040
629.147412	2485.757673
629.493739	2486.110554
629.840014	2483.612663
630.186236	2486.274392
630.532405	2486.259268
630.878521	2485.155256
631.224585	2485.954278
631.570597	2485.450163
631.916556	2485.876141
632.262462	2486.042499
632.608316	2489.147849
632.954117	2485.795482
633.299866	2486.047540
633.645562	2484.777169
633.991206	2489.107520
634.336797	2486.493682
634.682336	2486.065184
635.027823	2483.519401
635.373257	2487.537201
635.718639	2485.324134
636.063968	2487.607777
636.409245	2486.065184
636.754470	2483.088382
637.099642	2487.035606
637.444762	2487.222129
637.789829	2485.472848
638.134845	2484.923363
638.479808	2488.681543
638.824719	2485.175420
639.169577	2486.153404
639.514383	2483.423619
639.859137	2487.857314
640.203839	2484.928404
640.548489	2486.362612
640.893086	2486.705410
641.237632	2484.210039
641.582125	2485.278764
641.926566	2484.565441
642.270955	2483.043012
642.615292	2480.905563
642.959576	2483.529483
643.303809	2480.293063
643.647990	2487.819505
643.992118	2485.964361
644.336195	2485.881182
