Dividing Wavelength (nm)	Counts (n)	Blue Motor Position (mm): 2.200000	Red Motor Position (mm): 0.000000	
326.493990	2144.879892
326.888308	2144.879892
327.282561	2144.879892
327.676750	2112.286311
328.070874	2111.731784
328.464933	2112.702207
328.858929	2120.523557
329.252859	2129.622839
329.646726	2140.032822
330.040528	2153.238125
330.434265	2172.691937
330.827938	2189.040399
331.221547	2206.724767
331.615091	2225.245966
332.008571	2244.069635
332.401986	2265.638211
332.795338	2281.669081
333.188625	2303.293110
333.581847	2322.462098
333.975006	2339.972545
334.368100	2356.527695
334.761129	2377.808926
335.154095	2395.458005
335.546996	2409.404357
335.939833	2428.069229
336.332606	2439.053904
336.725315	2451.346757
337.117960	2461.648355
337.510540	2471.168574
337.903056	2479.229379
338.295508	2489.707418
338.687896	2498.050527
339.080220	2503.918430
339.472480	2509.675428
339.864676	2517.244720
340.256807	2521.171779
340.648875	2523.712521
341.040879	2524.672861
341.432818	2527.511030
341.824694	2530.160157
342.216506	2528.612522
342.608253	2529.850126
342.999937	2530.588655
343.391557	2528.748633
343.783113	2527.732841
344.174605	2526.449867
344.566033	2523.354599
344.957397	2525.260155
345.348697	2522.300998
345.739934	2521.509537
346.131106	2518.976357
346.522215	2516.453259
346.913260	2515.797909
347.304241	2512.180881
347.695159	2510.396313
348.086012	2512.284225
348.476802	2507.185098
348.867528	2506.812053
349.258191	2505.592093
349.648789	2506.907834
350.039324	2502.486743
350.429796	2501.344921
350.820203	2501.302071
351.210548	2499.288130
351.600828	2499.877945
351.991045	2497.185969
352.381198	2498.587410
352.771288	2495.824858
353.161314	2497.251504
353.551276	2493.941987
353.941175	2499.595641
354.331010	2498.990702
354.720782	2494.667913
355.110490	2496.631442
355.500135	2496.525578
355.889717	2497.553973
356.279235	2498.736124
356.668689	2499.081443
357.058080	2499.530106
357.447408	2495.729076
357.836672	2494.980464
358.225873	2494.070536
358.615010	2496.681854
359.004084	2499.441886
359.393095	2500.477843
359.782043	2502.542195
360.170927	2499.036073
360.559748	2500.727380
360.948505	2502.005312
361.337199	2503.825169
361.725830	2504.359531
362.114398	2504.573780
362.502903	2502.075888
362.891344	2501.360045
363.279722	2504.586383
363.668037	2506.164264
364.056289	2503.532782
364.444478	2510.184584
364.832603	2503.747031
365.220665	2505.428256
365.608665	2508.029491
365.996601	2506.146620
366.384474	2508.596621
366.772284	2506.249964
367.160031	2511.129801
367.547715	2507.343894
367.935336	2510.746673
368.322893	2508.798267
368.710388	2510.698782
369.097820	2510.482012
369.485189	2509.362876
369.872495	2510.010665
370.259738	2511.187774
370.646918	2510.250119
371.034035	2509.884636
371.421090	2511.200377
371.808081	2512.710203
372.195010	2510.499657
372.581875	2513.942765
372.968678	2514.015861
373.355418	2513.607528
373.742096	2510.902949
374.128710	2512.080058
374.515262	2510.040912
374.901751	2511.868330
375.288177	2514.608197
375.674540	2512.725326
376.060841	2513.254647
376.447079	2507.737104
376.833254	2513.053001
377.219367	2510.139214
377.605417	2513.668022
377.991404	2509.693072
378.377329	2511.903618
378.763191	2513.741118
379.148991	2516.357477
379.534727	2515.263547
379.920402	2517.892509
380.306013	2515.475275
380.691563	2515.460152
381.077049	2514.749349
381.462474	2515.253465
381.847835	2516.223887
382.233134	2517.058198
382.618371	2516.070132
383.003545	2518.815040
383.388657	2515.245903
383.773706	2516.702796
384.158693	2520.564320
384.543618	2518.610873
384.928480	2518.368898
385.313280	2518.651202
385.698017	2515.298835
386.082692	2520.014834
386.467305	2516.470903
386.851856	2517.118692
387.236344	2519.873682
387.620770	2520.002232
388.005133	2519.767818
388.389435	2520.952489
388.773674	2520.108096
389.157851	2523.087418
389.541965	2523.468025
389.926018	2521.842253
390.310008	2522.177489
390.693936	2522.079187
391.077802	2520.178672
391.461606	2524.100690
391.845348	2519.036851
392.229027	2521.602798
392.612645	2520.118178
392.996200	2522.616070
393.379694	2524.425844
393.763125	2523.462984
394.146494	2524.584640
394.529801	2524.491379
394.913047	2523.780576
395.296230	2521.232273
395.679351	2524.065402
396.062410	2521.592716
396.445408	2526.694363
396.828343	2524.322500
397.211217	2522.734537
397.594028	2523.432737
397.976778	2521.005421
398.359466	2522.452232
398.742092	2522.132119
399.124656	2526.124713
399.507158	2525.623118
399.889598	2527.223684
400.271977	2524.919877
400.654294	2528.040351
401.036549	2525.280320
401.418742	2525.255114
401.800874	2528.153777
402.182944	2528.615043
402.564952	2528.504138
402.946898	2525.824764
403.328783	2529.635877
403.710606	2527.271575
404.092367	2528.045393
404.474067	2527.286699
404.855705	2526.744775
405.237282	2531.047400
405.618797	2529.436751
406.000250	2528.904909
406.381642	2527.911802
406.762972	2531.269210
407.144240	2527.750485
407.525447	2530.581093
407.906593	2529.474560
408.287677	2525.618077
408.668700	2529.308202
409.049661	2529.305681
409.430560	2527.778211
409.811399	2534.296423
410.192176	2530.928932
410.572891	2531.634694
410.953545	2530.031607
411.334138	2530.351720
411.714669	2528.625125
412.095139	2531.639735
412.475547	2529.835002
412.855894	2532.806762
413.236180	2532.209386
413.616405	2533.963707
413.996568	2532.325332
414.376670	2531.962369
414.756711	2530.941535
415.136691	2533.162164
415.516609	2532.867256
415.896466	2532.375744
416.276262	2532.176618
416.655997	2529.222502
417.035670	2530.707122
417.415283	2532.612678
417.794834	2528.216792
418.174324	2533.197452
418.553753	2533.562935
418.933121	2534.919006
419.312428	2533.537730
419.691674	2531.982534
420.070859	2534.127545
420.449983	2535.413039
420.829045	2533.993954
421.208047	2533.777184
421.586988	2534.858512
421.965867	2537.404295
422.344686	2536.086033
422.723444	2535.856660
423.102141	2536.106198
423.480777	2537.001002
423.859352	2535.082843
424.237866	2534.099818
424.616319	2534.321629
424.994712	2535.292051
425.373044	2537.444624
425.751314	2535.592000
426.129524	2534.069571
426.507673	2537.399253
426.885762	2536.716177
427.263789	2534.770292
427.641756	2539.977804
428.019662	2536.852288
428.397508	2538.684748
428.775292	2541.059131
429.153016	2537.555529
429.530679	2539.030067
429.908282	2536.426311
430.285824	2539.246836
430.663305	2535.140817
431.040726	2536.270035
431.418086	2536.610313
431.795385	2537.961342
432.172624	2538.243647
432.549802	2539.229192
432.926920	2538.944367
433.303977	2538.168029
433.680974	2537.588297
434.057910	2540.474357
434.434786	2538.525951
434.811601	2539.203987
435.188355	2539.138452
435.565050	2538.805735
435.941683	2539.831610
436.318257	2541.245654
436.694770	2534.472864
437.071222	2538.682227
437.447614	2536.726259
437.823946	2534.684592
438.200218	2539.229192
438.576429	2536.484284
438.952580	2535.874304
439.328670	2540.731456
439.704700	2540.282793
440.080670	2540.159285
440.456580	2540.875129
440.832429	2541.671631
441.208218	2542.309337
441.583947	2541.855633
441.959616	2541.107022
442.335224	2541.212886
442.710773	2540.852444
443.086261	2540.310520
443.461689	2538.276414
443.837057	2540.093750
444.212365	2541.883360
444.587612	2540.015612
444.962800	2540.118956
445.337927	2542.878988
445.712995	2541.701878
446.088002	2543.151210
446.462949	2541.626261
446.837837	2543.544420
447.212664	2542.813453
447.587431	2541.890922
447.962139	2543.158772
448.336786	2544.315717
448.711374	2542.090047
449.085901	2545.109698
449.460369	2542.332023
449.834776	2544.524924
450.209124	2542.243802
450.583412	2543.597352
450.957640	2543.539379
451.331808	2544.063659
451.705917	2542.064841
452.079965	2544.918134
452.453954	2543.383103
452.827883	2545.344112
453.201752	2544.033412
453.575562	2544.106509
453.949311	2544.524924
454.323001	2541.832948
454.696632	2546.097764
455.070202	2546.304452
455.443713	2543.675490
455.817164	2542.301776
456.190556	2540.975952
456.563888	2540.388658
456.937160	2539.307330
457.310373	2542.455531
457.683526	2544.540048
458.056619	2542.848741
458.429653	2545.366797
458.802628	2545.913762
459.175542	2547.514329
459.548398	2543.942671
459.921194	2545.626417
460.293930	2545.870912
460.666607	2544.512322
461.039224	2546.067517
461.411782	2547.443752
461.784280	2546.218752
462.156719	2543.546941
462.529099	2547.398382
462.901419	2545.923845
463.273680	2545.591128
463.645882	2544.015768
464.018024	2545.465100
464.390106	2547.123639
464.762130	2547.799154
465.134094	2546.987528
465.505999	2544.323278
465.877845	2546.692621
466.249631	2545.543238
466.621358	2545.341591
466.993026	2550.171017
467.364634	2549.187992
467.736184	2548.653629
468.107674	2543.640202
468.479105	2545.258412
468.850477	2548.177240
469.221790	2548.003321
469.593043	2544.557692
469.964238	2545.543238
470.335373	2545.933927
470.706449	2545.439894
471.077467	2545.649102
471.448425	2548.174720
471.819324	2545.550799
472.190164	2546.775800
472.560945	2548.893084
472.931667	2548.613300
473.302330	2547.531973
473.672934	2545.739843
474.043479	2546.677497
474.413965	2547.670604
474.784393	2541.033925
475.154761	2544.386293
475.525070	2541.296065
475.895321	2544.129194
476.265513	2542.468134
476.635645	2546.455686
477.005719	2545.891077
477.375734	2550.251675
477.745691	2547.410985
478.115588	2546.904349
478.485427	2548.799823
478.855207	2549.694628
479.224928	2548.580533
479.594591	2546.455686
479.964194	2549.170348
480.333739	2547.131201
480.703226	2550.675132
481.072653	2548.144473
481.442022	2548.363763
481.811333	2547.393341
482.180584	2549.739998
482.549777	2546.914431
482.918912	2548.436860
483.287988	2549.263609
483.657005	2547.589946
484.025964	2552.552962
484.394864	2549.374514
484.763706	2549.803012
485.132489	2547.121119
485.501213	2548.207487
485.869879	2547.252189
486.238487	2548.484751
486.607036	2547.068187
486.975527	2552.326110
487.343959	2548.935934
487.712333	2547.199257
488.080648	2547.587425
488.448905	2547.579864
488.817104	2550.692776
489.185244	2553.210832
489.553326	2546.369987
489.921350	2551.368291
490.289315	2548.940975
490.657222	2550.765873
491.025070	2552.275698
491.392861	2550.251675
491.760593	2551.670760
492.128267	2549.929041
492.495883	2548.933413
492.863440	2550.561706
493.230939	2549.480379
493.598380	2550.483568
493.965763	2546.301931
494.333088	2547.665563
494.700354	2547.607590
495.067563	2550.039947
495.434713	2545.402085
495.801805	2551.348126
496.168839	2550.959957
496.535815	2551.862324
496.902733	2550.561706
497.269593	2552.958775
497.636395	2547.451314
498.003139	2550.133208
498.369825	2550.208825
498.736453	2551.872406
499.103023	2550.022303
499.469535	2553.036913
499.835989	2551.658157
500.202385	2549.324103
500.568723	2550.654967
500.935003	2551.065822
501.301226	2549.291335
501.667390	2550.357539
502.033497	2549.951727
502.399546	2549.815615
502.765537	2550.569268
503.131470	2552.943651
503.497345	2549.639175
503.863163	2548.298228
504.228923	2548.900646
504.594625	2551.501881
504.960269	2553.268806
505.325856	2551.128836
505.691385	2551.075904
506.056856	2549.180430
506.422270	2550.382745
506.787625	2552.189999
507.152924	2549.145142
507.518164	2553.016748
507.883347	2551.254865
508.248472	2552.177396
508.613540	2550.851572
508.978550	2550.786037
509.343503	2552.847869
509.708398	2553.762839
510.073236	2552.411810
510.438016	2551.146480
510.802738	2547.289997
511.167403	2551.007848
511.532010	2549.140101
511.896561	2550.589433
512.261053	2552.502550
512.625488	2549.520708
512.989866	2548.555327
513.354186	2551.217056
513.718449	2546.798485
514.082655	2549.019113
514.446803	2551.191850
514.810894	2551.348126
515.174927	2555.244938
515.538904	2549.999617
515.902822	2551.451470
516.266684	2550.261758
516.630488	2551.527087
516.994235	2551.292673
517.357925	2551.045657
517.721558	2553.437684
518.085133	2552.338713
518.448651	2551.340564
518.812112	2550.566747
519.175516	2555.202088
519.538863	2551.307797
519.902152	2554.713096
520.265385	2552.283260
520.628560	2549.056922
520.991678	2550.297046
521.354739	2552.900802
521.717743	2552.124464
522.080690	2551.101110
522.443580	2550.334854
522.806413	2553.619166
523.169189	2552.658826
523.531908	2552.989022
523.894569	2550.609597
524.257174	2551.320400
524.619722	2552.799978
524.982213	2554.909701
525.344647	2553.906512
525.707025	2554.085473
526.069345	2551.950544
526.431608	2554.203940
526.793815	2548.930893
527.155964	2552.467262
527.518057	2551.355688
527.880093	2553.457849
528.242072	2555.098745
528.603995	2553.493137
528.965860	2553.939279
529.327669	2551.113712
529.689421	2553.649413
530.051117	2551.219577
530.412755	2550.975081
530.774337	2551.501881
531.135862	2554.100596
531.497331	2549.994576
531.858743	2547.269833
532.220098	2551.577499
532.581396	2548.184802
532.942638	2550.501212
533.303824	2552.502550
533.664953	2551.534649
534.026025	2552.668908
534.387040	2553.294012
534.747999	2553.916594
535.108902	2554.627397
535.469748	2556.696790
535.830537	2553.848538
536.191270	2554.488765
536.551947	2553.097407
536.912567	2551.753939
537.273131	2552.142108
537.633638	2553.954403
537.994089	2550.181099
538.354483	2553.654454
538.714821	2554.428271
539.075103	2553.639331
539.435328	2551.890050
539.795497	2553.331820
540.155609	2553.735112
540.515665	2552.598332
540.875665	2552.391645
541.235609	2553.049516
541.595496	2554.153528
541.955328	2554.171172
542.315102	2550.869217
542.674821	2551.985832
543.034483	2556.921122
543.394090	2555.885165
543.753640	2555.993549
544.113134	2550.987684
544.472571	2554.997922
544.831953	2553.457849
545.191278	2555.030689
545.550548	2553.571275
545.909761	2552.457180
546.268918	2552.084135
546.628019	2553.878785
546.987064	2555.053374
547.346053	2552.880637
547.704986	2553.120092
548.063863	2553.268806
548.422684	2552.137067
548.781449	2555.181924
549.140158	2551.610266
549.498811	2555.973385
549.857408	2553.939279
550.215949	2550.171017
550.574434	2549.482899
550.932864	2552.091696
551.291237	2548.273022
551.649555	2550.783517
552.007817	2552.820143
552.366022	2554.534135
552.724173	2555.234856
553.082267	2554.640000
553.440305	2552.931048
553.798288	2553.523384
554.156215	2553.936759
554.514086	2555.244938
554.871902	2554.453477
555.229661	2554.024979
555.587365	2554.592109
555.945014	2555.910370
556.302606	2555.560010
556.660143	2552.714279
557.017625	2553.793086
557.375050	2555.693601
557.732421	2554.516491
558.089735	2554.410627
558.446994	2555.348282
558.804197	2552.797458
559.161345	2556.487582
559.518437	2554.352654
559.875474	2555.358364
560.232455	2554.609753
560.589381	2553.041954
560.946251	2555.063457
561.303065	2554.498847
561.659825	2554.607232
562.016528	2554.193858
562.373177	2551.121274
562.729770	2551.290153
563.086307	2554.173693
563.442789	2552.258054
563.799216	2555.648230
564.155587	2555.625545
564.511904	2554.516491
564.868164	2555.123950
565.224370	2556.724517
565.580520	2556.175031
565.936615	2553.856100
566.292654	2553.478014
566.648638	2555.300391
567.004567	2551.832077
567.360441	2551.572458
567.716260	2554.483724
568.072023	2555.600339
568.427732	2550.092879
568.783385	2551.401058
569.138982	2549.155224
569.494525	2552.021120
569.850013	2548.618341
570.205445	2555.209650
570.560823	2552.437015
570.916145	2555.612942
571.271412	2553.689742
571.626625	2551.486758
571.981782	2558.521688
572.336884	2554.710576
572.691931	2553.490617
573.046923	2553.828374
573.401860	2554.387942
573.756743	2555.615463
574.111570	2554.871893
574.466342	2555.615463
574.821059	2555.368446
575.175722	2554.014897
575.530330	2553.304094
575.884882	2553.649413
576.239380	2553.291491
576.593823	2554.687891
576.948211	2554.224104
577.302544	2552.293342
577.656823	2553.435164
578.011047	2552.497509
578.365216	2554.355174
578.719330	2557.193344
579.073389	2555.922973
579.427394	2554.108158
579.781344	2553.979608
580.135239	2556.003632
580.489080	2553.427602
580.842866	2554.080432
581.196597	2558.405742
581.550273	2555.544887
581.903895	2553.903991
582.257463	2555.554969
582.610975	2555.592778
582.964434	2554.251831
583.317837	2558.685526
583.671186	2555.547407
584.024481	2555.171841
584.377721	2554.198899
584.730906	2553.515822
585.084037	2556.606050
585.437113	2555.136553
585.790135	2555.277706
586.143103	2555.653272
586.496016	2555.948179
586.848874	2553.089845
587.201679	2554.725699
587.554428	2553.906512
587.907124	2549.971891
588.259765	2549.498023
588.612352	2554.781152
588.964884	2553.956923
589.317362	2554.791234
589.669786	2554.529094
590.022155	2557.561348
590.374470	2552.076573
590.726731	2553.258723
591.078937	2554.660164
591.431090	2555.870041
591.783188	2555.030689
592.135232	2554.307283
592.487222	2555.234856
592.839157	2556.759805
593.191038	2555.416337
593.542866	2555.272664
593.894639	2554.861810
594.246358	2555.950700
594.598022	2555.305432
594.949633	2556.812737
595.301190	2553.067160
595.652692	2555.716286
596.004141	2554.322407
596.355535	2557.848694
596.706876	2553.130174
597.058162	2553.969526
597.409395	2554.145967
597.760573	2554.009855
598.111698	2553.195709
598.462768	2556.384239
598.813785	2552.590771
599.164748	2554.108158
599.515657	2552.429454
599.866511	2555.532284
600.217312	2553.838456
600.568060	2555.552448
600.918753	2555.895247
601.269392	2555.111347
601.619978	2554.093034
601.970510	2555.985988
602.320988	2553.543549
602.671412	2554.972716
603.021783	2556.611091
603.372100	2554.687891
603.722363	2555.693601
604.072572	2555.812068
604.422728	2555.597819
604.772830	2551.534649
605.122878	2549.586243
605.472872	2550.559186
605.822813	2552.444577
606.172701	2552.084135
606.522534	2556.230484
606.872314	2554.312325
607.222041	2557.823488
607.571714	2554.017417
607.921333	2556.351471
608.270899	2552.918446
608.620411	2555.527243
608.969870	2554.571944
609.319276	2557.047151
609.668627	2561.072512
610.017926	2557.558828
610.367171	2562.037893
610.716362	2561.712738
611.065500	2561.385063
611.414585	2558.385577
611.763616	2557.132850
612.112594	2555.902809
612.461518	2554.887016
612.810389	2556.696790
613.159207	2555.585216
613.507971	2557.989846
613.856682	2557.072356
614.205340	2556.469938
614.553945	2555.585216
614.902496	2553.961964
615.250994	2553.828374
615.599439	2554.617314
615.947830	2553.762839
616.296169	2555.675957
616.644454	2555.880123
616.992686	2554.312325
617.340864	2554.614794
617.688990	2556.391801
618.037063	2553.732592
618.385082	2554.014897
618.733048	2554.670247
619.080961	2554.042623
619.428821	2556.714434
619.776628	2557.571431
620.124382	2555.098745
620.472083	2556.129661
620.819731	2554.740823
621.167326	2557.258879
621.514868	2554.597150
621.862357	2553.891388
622.209793	2551.479196
622.557176	2555.577654
622.904506	2550.390307
623.251783	2551.217056
623.599007	2552.444577
623.946179	2551.269988
624.293297	2550.806202
624.640363	2552.290822
624.987376	2554.869372
625.334336	2553.120092
625.681243	2554.539177
626.028097	2554.730740
626.374899	2556.694270
626.721647	2554.970195
627.068343	2554.944989
627.414987	2555.993549
627.761577	2555.862479
628.108115	2553.707386
628.454600	2555.686039
628.801032	2554.733261
629.147412	2555.325597
629.493739	2555.544887
629.840014	2556.301060
630.186236	2556.114537
630.532405	2553.780483
630.878521	2553.500699
631.224585	2554.319886
631.570597	2554.350133
631.916556	2557.707542
632.262462	2553.009186
632.608316	2555.048333
632.954117	2553.848538
633.299866	2552.129505
633.645562	2554.692932
633.991206	2554.140925
634.336797	2554.687891
634.682336	2555.146636
635.027823	2552.885678
635.373257	2555.159238
635.718639	2554.642520
636.063968	2554.670247
636.409245	2552.638662
636.754470	2556.353992
637.099642	2552.608415
637.444762	2553.989691
637.789829	2552.822664
638.134845	2554.166131
638.479808	2554.370298
638.824719	2554.176213
639.169577	2555.517160
639.514383	2553.593960
639.859137	2554.322407
640.203839	2555.378529
640.548489	2553.417520
640.893086	2551.602704
641.237632	2548.946016
641.582125	2552.880637
641.926566	2549.147663
642.270955	2554.796275
642.615292	2555.345761
642.959576	2556.537994
643.303809	2554.050185
643.647990	2553.087324
643.992118	2557.619322
644.336195	2553.977088
