Dividing Wavelength (nm)	Counts (n)	Blue Motor Position (mm): 6.500000	Red Motor Position (mm): 0.000000	
326.493990	2102.859354
326.888308	2102.859354
327.282561	2102.859354
327.676750	2079.438153
328.070874	2082.183061
328.464933	2085.971488
328.858929	2096.966245
329.252859	2108.127359
329.646726	2124.924484
330.040528	2140.131125
330.434265	2159.824392
330.827938	2181.511436
331.221547	2199.092460
331.615091	2216.212218
332.008571	2242.466548
332.401986	2262.815165
332.795338	2281.830398
333.188625	2301.022070
333.581847	2318.232569
333.975006	2337.557833
334.368100	2355.426203
334.761129	2374.789274
335.154095	2387.341748
335.546996	2407.997875
335.939833	2428.643921
336.332606	2439.832762
336.725315	2454.174845
337.117960	2462.331432
337.510540	2467.967442
337.903056	2475.551858
338.295508	2480.898001
338.687896	2491.043323
339.080220	2497.785867
339.472480	2501.097905
339.864676	2506.537310
340.256807	2509.236848
340.648875	2509.690551
341.040879	2512.836231
341.432818	2515.321520
341.824694	2513.426046
342.216506	2513.378155
342.608253	2512.206087
342.999937	2512.929493
343.391557	2510.373628
343.783113	2510.335819
344.174605	2507.749707
344.566033	2505.095540
344.957397	2504.271311
345.348697	2501.178563
345.739934	2501.302071
346.131106	2500.866012
346.522215	2496.220588
346.913260	2497.564056
347.304241	2492.651451
347.695159	2492.757316
348.086012	2492.033910
348.476802	2489.112561
348.867528	2486.793631
349.258191	2488.305977
349.648789	2488.815133
350.039324	2486.932262
350.429796	2486.029896
350.820203	2485.220791
351.210548	2483.348002
351.600828	2483.526963
351.991045	2484.653661
352.381198	2480.771972
352.771288	2480.713999
353.161314	2484.179792
353.551276	2483.554689
353.941175	2480.729122
354.331010	2480.325830
354.720782	2480.159472
355.110490	2481.540748
355.500135	2482.685090
355.889717	2482.332209
356.279235	2483.993270
356.668689	2483.085862
357.058080	2483.443784
357.447408	2483.806747
357.836672	2479.272229
358.225873	2483.277426
358.615010	2481.162662
359.004084	2485.770276
359.393095	2486.150883
359.782043	2488.857983
360.170927	2487.590133
360.559748	2489.818323
360.948505	2490.803868
361.337199	2488.585761
361.725830	2491.313025
362.114398	2489.039465
362.502903	2490.970227
362.891344	2491.285299
363.279722	2491.930566
363.668037	2490.309835
364.056289	2491.166832
364.444478	2493.994919
364.832603	2493.780670
365.220665	2492.752274
365.608665	2492.364106
365.996601	2493.712614
366.384474	2494.012563
366.772284	2494.771257
367.160031	2494.410814
367.547715	2495.194713
367.935336	2492.593478
368.322893	2491.708756
368.710388	2498.945332
369.097820	2496.558346
369.485189	2495.224960
369.872495	2496.361741
370.259738	2496.946514
370.646918	2496.495331
371.034035	2495.693788
371.421090	2498.337873
371.808081	2495.892913
372.195010	2497.770743
372.581875	2497.763181
372.968678	2499.951042
373.355418	2495.983654
373.742096	2500.913903
374.128710	2498.605054
374.515262	2501.291989
374.901751	2496.863335
375.288177	2499.673779
375.674540	2497.899292
376.060841	2500.802997
376.447079	2498.879797
376.833254	2500.533295
377.219367	2497.185969
377.605417	2499.300733
377.991404	2497.067502
378.377329	2499.255363
378.763191	2496.379385
379.148991	2499.681340
379.534727	2501.760816
379.920402	2503.568070
380.306013	2499.809890
380.691563	2502.761485
381.077049	2501.702843
381.462474	2504.626712
381.847835	2501.861639
382.233134	2500.986999
382.618371	2504.636795
383.003545	2503.931033
383.388657	2503.489932
383.773706	2506.638133
384.158693	2503.568070
384.543618	2504.725015
384.928480	2505.309789
385.313280	2504.835920
385.698017	2505.400529
386.082692	2507.452279
386.467305	2504.311640
386.851856	2508.687362
387.236344	2506.675941
387.620770	2506.413801
388.005133	2507.500170
388.389435	2506.093688
388.773674	2506.086126
389.157851	2506.817094
389.541965	2507.908503
389.926018	2506.862464
390.310008	2507.790036
390.693936	2507.026302
391.077802	2509.496467
391.461606	2508.863802
391.845348	2508.233658
392.229027	2507.439676
392.612645	2507.177536
392.996200	2509.314985
393.379694	2508.455469
393.763125	2510.527383
394.146494	2508.417660
394.529801	2511.099554
394.913047	2509.320027
395.296230	2510.630727
395.679351	2510.887825
396.062410	2511.855727
396.445408	2513.854544
396.828343	2511.671725
397.211217	2506.875067
397.594028	2509.584687
397.976778	2507.434635
398.359466	2510.469410
398.742092	2509.430932
399.124656	2513.277332
399.507158	2510.940758
399.889598	2513.993176
400.271977	2511.485202
400.654294	2513.564678
401.036549	2512.942096
401.418742	2511.011334
401.800874	2511.807836
402.182944	2514.751870
402.564952	2511.457476
402.946898	2511.470079
403.328783	2515.155162
403.710606	2515.329082
404.092367	2514.492250
404.474067	2513.020233
404.855705	2513.995697
405.237282	2514.252796
405.618797	2515.218177
406.000250	2516.307066
406.381642	2513.189112
406.762972	2514.759432
407.144240	2517.529546
407.525447	2514.835049
407.906593	2518.487365
408.287677	2516.125584
408.668700	2517.126253
409.049661	2516.486027
409.430560	2516.067611
409.811399	2517.406037
410.192176	2516.465862
410.572891	2519.009124
410.953545	2516.314628
411.334138	2515.505522
411.714669	2518.459638
412.095139	2516.291942
412.475547	2519.873682
412.855894	2517.443846
413.236180	2517.675739
413.616405	2520.034999
413.996568	2515.455111
414.376670	2519.747653
414.756711	2516.841428
415.136691	2519.160359
415.516609	2518.406706
415.896466	2520.100534
416.276262	2519.727489
416.655997	2515.497961
417.035670	2514.837569
417.415283	2519.281347
417.794834	2516.269257
418.174324	2515.523166
418.553753	2520.879392
418.933121	2520.942407
419.312428	2522.127078
419.691674	2519.803106
420.070859	2522.532891
420.449983	2521.325534
420.829045	2519.293949
421.208047	2519.672036
421.586988	2520.786131
421.965867	2519.452746
422.344686	2519.944258
422.723444	2522.089269
423.102141	2522.953827
423.480777	2521.398631
423.859352	2521.781759
424.237866	2524.884589
424.616319	2521.794362
424.994712	2522.971471
425.373044	2522.336286
425.751314	2520.241686
426.129524	2519.936697
426.507673	2526.223015
426.885762	2519.639268
427.263789	2523.213447
427.641756	2525.446678
428.019662	2520.881913
428.397508	2521.920391
428.775292	2526.434744
429.153016	2522.472397
429.530679	2526.094466
429.908282	2523.576410
430.285824	2523.800741
430.663305	2524.009949
431.040726	2521.799403
431.418086	2523.256296
431.795385	2523.805782
432.172624	2524.060360
432.549802	2522.598426
432.926920	2522.888292
433.303977	2525.663447
433.680974	2526.437264
434.057910	2522.900895
434.434786	2525.920546
434.811601	2523.384846
435.188355	2524.052799
435.565050	2525.013138
435.941683	2522.986595
436.318257	2522.313601
436.694770	2521.189423
437.071222	2522.013652
437.447614	2521.391069
437.823946	2521.237314
438.200218	2525.668488
438.576429	2525.529857
438.952580	2524.577079
439.328670	2527.369878
439.704700	2528.471370
440.080670	2526.280989
440.456580	2528.095804
440.832429	2527.571524
441.208218	2526.132275
441.583947	2528.320135
441.959616	2526.835516
442.335224	2526.301153
442.710773	2526.212933
443.086261	2527.314425
443.461689	2525.534898
443.837057	2528.047913
444.212365	2526.706966
444.587612	2528.375588
444.962800	2527.823582
445.337927	2528.713345
445.712995	2525.623118
446.088002	2526.240659
446.462949	2526.611184
446.837837	2527.090094
447.212664	2527.107738
447.587431	2530.439941
447.962139	2529.265352
448.336786	2529.524971
448.711374	2526.283509
449.085901	2526.502799
449.460369	2528.357944
449.834776	2531.997657
450.209124	2526.364168
450.583412	2528.090763
450.957640	2525.174455
451.331808	2526.999353
451.705917	2526.157480
452.079965	2529.645959
452.453954	2526.401976
452.827883	2529.809796
453.201752	2531.095291
453.575562	2528.037831
453.949311	2530.815507
454.323001	2528.804086
454.696632	2528.683098
455.070202	2528.461288
455.443713	2529.711494
455.817164	2525.539939
456.190556	2524.057840
456.563888	2528.025228
456.937160	2525.928108
457.310373	2530.301309
457.683526	2530.560928
458.056619	2531.453213
458.429653	2529.124199
458.802628	2528.037831
459.175542	2530.394570
459.548398	2531.637215
459.921194	2527.621936
460.293930	2530.291227
460.666607	2531.942204
461.039224	2532.400949
461.411782	2529.330887
461.784280	2532.143851
462.156719	2532.441279
462.529099	2528.978006
462.901419	2529.540095
463.273680	2533.366330
463.645882	2531.642256
464.018024	2533.066382
464.390106	2531.473377
464.762130	2533.938501
465.134094	2530.381967
465.505999	2532.098480
465.877845	2532.181659
466.249631	2532.383305
466.621358	2532.607637
466.993026	2532.799201
467.364634	2534.445137
467.736184	2532.269879
468.107674	2532.305167
468.479105	2530.203006
468.850477	2532.703419
469.221790	2532.337935
469.593043	2528.887265
469.964238	2531.440610
470.335373	2531.410363
470.706449	2533.356248
471.077467	2533.585621
471.448425	2531.377595
471.819324	2535.017308
472.190164	2535.486136
472.560945	2534.498069
472.931667	2533.066382
473.302330	2534.780374
473.672934	2532.554705
474.043479	2534.402288
474.413965	2533.094108
474.784393	2529.030938
475.154761	2530.717204
475.525070	2531.828778
475.895321	2530.054292
476.265513	2531.506145
476.635645	2533.842719
477.005719	2533.073943
477.375734	2532.925229
477.745691	2534.571166
478.115588	2533.217616
478.485427	2534.697195
478.855207	2534.422452
479.224928	2534.568646
479.594591	2536.569984
479.964194	2532.370703
480.333739	2533.971269
480.703226	2534.944212
481.072653	2535.367668
481.442022	2536.073430
481.811333	2535.813811
482.180584	2538.069727
482.549777	2535.788605
482.918912	2536.602751
483.287988	2536.023018
483.657005	2534.228368
484.025964	2536.501928
484.394864	2534.654345
484.763706	2536.262473
485.132489	2534.868594
485.501213	2535.995292
485.869879	2536.635519
486.238487	2534.760209
486.607036	2535.929757
486.975527	2534.825744
487.343959	2535.826413
487.712333	2533.862884
488.080648	2534.949253
488.448905	2537.305992
488.817104	2536.030580
489.185244	2540.033256
489.553326	2539.531662
489.921350	2538.591486
490.289315	2537.076620
490.657222	2539.019984
491.025070	2536.973276
491.392861	2536.234747
491.760593	2538.188194
492.128267	2538.467978
492.495883	2535.723070
492.863440	2538.863709
493.230939	2538.301620
493.598380	2536.370858
493.965763	2533.073943
494.333088	2535.350024
494.700354	2533.331042
495.067563	2535.105528
495.434713	2532.980682
495.801805	2538.785571
496.168839	2537.749614
496.535815	2537.406815
496.902733	2536.275076
497.269593	2539.292207
497.636395	2533.086546
498.003139	2539.995448
498.369825	2538.147865
498.736453	2538.924202
499.103023	2537.288348
499.469535	2536.431352
499.835989	2536.234747
500.202385	2537.855478
500.568723	2539.967721
500.935003	2536.552340
501.301226	2538.851106
501.667390	2539.821528
502.033497	2538.450334
502.399546	2538.223482
502.765537	2538.997299
503.131470	2538.886394
503.497345	2538.089892
503.863163	2538.402443
504.228923	2537.457227
504.594625	2538.044521
504.960269	2539.859337
505.325856	2536.396064
505.691385	2537.369007
506.056856	2539.733308
506.422270	2537.701723
506.787625	2539.067875
507.152924	2536.471681
507.518164	2537.230375
507.883347	2539.045190
508.248472	2539.604758
508.613540	2539.982845
508.978550	2539.249357
509.343503	2536.091074
509.708398	2538.856147
510.073236	2539.403112
510.438016	2538.410005
510.802738	2540.733977
511.167403	2538.873791
511.532010	2539.070396
511.896561	2538.286497
512.261053	2543.002496
512.625488	2536.622916
512.989866	2535.917154
513.354186	2537.512679
513.718449	2530.669313
514.082655	2537.505118
514.446803	2542.838658
514.810894	2541.709440
515.174927	2541.931251
515.538904	2541.202804
515.902822	2539.231713
516.266684	2541.817825
516.630488	2541.512835
516.994235	2541.777496
517.357925	2538.694830
517.721558	2542.049718
518.085133	2543.199101
518.448651	2542.092568
518.812112	2544.242620
519.175516	2542.878988
519.538863	2541.512835
519.902152	2544.172044
520.265385	2545.328988
520.628560	2543.688093
520.991678	2544.461910
521.354739	2546.473330
521.717743	2548.061294
522.080690	2545.137425
522.443580	2545.810419
522.806413	2546.952240
523.169189	2548.842673
523.531908	2546.475851
523.894569	2546.959802
524.257174	2552.449618
524.619722	2550.569268
524.982213	2553.828374
525.344647	2549.505584
525.707025	2551.935421
526.069345	2553.858621
526.431608	2553.052036
526.793815	2553.208312
527.155964	2556.366595
527.518057	2555.451625
527.880093	2556.485062
528.242072	2556.616132
528.603995	2554.355174
528.965860	2557.521019
529.327669	2556.742161
529.689421	2558.599826
530.051117	2559.706359
530.412755	2558.589744
530.774337	2561.682492
531.135862	2558.355330
531.497331	2560.039075
531.858743	2557.601677
532.220098	2559.527398
532.581396	2559.187120
532.942638	2559.940773
533.303824	2566.436300
533.664953	2566.436300
534.026025	2564.883624
534.387040	2566.726166
534.747999	2567.678944
535.108902	2568.898903
535.469748	2568.362020
535.830537	2570.343194
536.191270	2571.313616
536.551947	2571.676579
536.912567	2571.011147
537.273131	2573.473750
537.633638	2572.662125
537.994089	2572.140365
538.354483	2572.775551
538.714821	2572.941909
539.075103	2575.454924
539.435328	2577.998186
539.795497	2576.727815
540.155609	2576.541292
540.515665	2575.923751
540.875665	2577.426015
541.235609	2580.760738
541.595496	2579.719740
541.955328	2579.031622
542.315102	2580.060018
542.674821	2578.829976
543.034483	2582.439443
543.394090	2580.725450
543.753640	2582.842735
544.113134	2581.650502
544.472571	2580.604463
544.831953	2581.985739
545.191278	2583.644278
545.550548	2586.064032
545.909761	2585.794330
546.268918	2588.498909
546.628019	2583.881212
546.987064	2584.970102
547.346053	2583.677046
547.704986	2585.819536
548.063863	2586.139649
548.422684	2588.100658
548.781449	2586.855493
549.140158	2588.118302
549.498811	2588.813982
549.857408	2588.912284
550.215949	2589.227356
550.574434	2586.547983
550.932864	2590.654003
551.291237	2587.407500
551.649555	2591.233735
552.007817	2589.239959
552.366022	2590.522933
552.724173	2589.892788
553.082267	2593.787080
553.440305	2595.569128
553.798288	2594.921339
554.156215	2594.429827
554.514086	2593.693818
554.871902	2593.272882
555.229661	2599.140785
555.587365	2595.823706
555.945014	2595.493510
556.302606	2595.163315
556.660143	2600.587596
557.017625	2599.392843
557.375050	2597.114241
557.732421	2599.793615
558.089735	2599.844026
558.446994	2600.133892
558.804197	2602.210848
559.161345	2599.723038
559.518437	2599.967534
559.875474	2600.769078
560.232455	2601.537854
560.589381	2605.152361
560.946251	2606.236209
561.303065	2603.302258
561.659825	2603.748400
562.016528	2603.813935
562.373177	2604.486929
562.729770	2604.688575
563.086307	2607.090685
563.442789	2604.887701
563.799216	2607.302413
564.155587	2605.963987
564.511904	2606.624378
564.868164	2608.124121
565.224370	2609.104626
565.580520	2608.603031
565.936615	2608.643360
566.292654	2609.165120
566.648638	2607.504059
567.004567	2610.748042
567.360441	2612.285594
567.716260	2609.770058
568.072023	2609.961622
568.427732	2606.495829
568.783385	2608.582866
569.138982	2606.594131
569.494525	2605.704368
569.850013	2606.873915
570.205445	2608.529934
570.560823	2608.981117
570.916145	2608.655963
571.271412	2605.049017
571.626625	2608.850047
571.981782	2607.176384
572.336884	2606.122783
572.691931	2605.217896
573.046923	2606.780654
573.401860	2606.052207
573.756743	2603.392998
574.111570	2606.755448
574.466342	2604.224789
574.821059	2600.799325
575.175722	2601.931064
575.530330	2599.448296
575.884882	2602.480550
576.239380	2599.332349
576.593823	2599.498707
576.948211	2595.932091
577.302544	2597.444437
577.656823	2596.990733
578.011047	2594.076946
578.365216	2592.322625
578.719330	2592.541915
579.073389	2591.533684
579.427394	2590.165011
579.781344	2589.083683
580.135239	2591.072418
580.489080	2588.166193
580.842866	2588.297263
581.196597	2587.634352
581.550273	2585.859865
581.903895	2585.305338
582.257463	2586.583271
582.610975	2584.143352
582.964434	2581.978177
583.317837	2585.338106
583.671186	2583.830801
584.024481	2583.488002
584.377721	2581.383321
584.730906	2582.905749
585.084037	2584.052612
585.437113	2581.083372
585.790135	2582.068918
586.143103	2576.750500
586.496016	2581.153948
586.848874	2574.847465
587.201679	2573.872002
587.554428	2574.608010
587.907124	2576.621951
588.259765	2572.372258
588.612352	2577.456262
588.964884	2576.009451
589.317362	2574.973494
589.669786	2573.824111
590.022155	2575.936354
590.374470	2573.819069
590.726731	2572.369738
591.078937	2572.546178
591.431090	2572.263873
591.783188	2570.733883
592.135232	2572.397464
592.487222	2573.309913
592.839157	2570.403688
593.191038	2571.858061
593.542866	2570.413770
593.894639	2566.942936
594.246358	2572.137845
594.598022	2568.959397
594.949633	2568.578790
595.301190	2570.930488
595.652692	2572.667166
596.004141	2567.341187
596.355535	2569.234140
596.706876	2566.625343
597.058162	2568.634243
597.409395	2567.436969
597.760573	2569.962587
598.111698	2565.982596
598.462768	2568.868656
598.813785	2567.633574
599.164748	2565.511248
599.515657	2567.825138
599.866511	2566.781619
600.217312	2568.566187
600.568060	2567.910837
600.918753	2567.222720
601.269392	2569.337484
601.619978	2563.530074
601.970510	2567.205076
602.320988	2567.709191
602.671412	2566.579972
603.021783	2567.820096
603.372100	2566.988306
603.722363	2568.102401
604.072572	2567.850343
604.422728	2567.956207
604.772830	2563.731721
605.122878	2564.326577
605.472872	2566.774057
605.822813	2562.615105
606.172701	2567.671382
606.522534	2568.477967
606.872314	2569.246743
607.222041	2568.341856
607.571714	2568.961918
607.921333	2568.180539
608.270899	2567.273131
608.620411	2570.985941
608.969870	2571.875705
609.319276	2571.260684
609.668627	2570.713719
610.017926	2569.617268
610.367171	2572.132803
610.716362	2571.568194
611.065500	2570.665828
611.414585	2572.460478
611.763616	2571.699264
612.112594	2574.280335
612.461518	2574.456775
612.810389	2576.468196
613.159207	2575.583473
613.507971	2574.973494
613.856682	2577.756211
614.205340	2574.401323
614.553945	2578.240161
614.902496	2579.361818
615.250994	2579.644123
615.599439	2576.813515
615.947830	2578.056159
616.296169	2580.014647
616.644454	2583.803075
616.992686	2582.421798
617.340864	2584.690318
617.688990	2583.051943
618.037063	2586.464804
618.385082	2583.901377
618.733048	2588.662747
619.080961	2587.573858
619.428821	2589.620566
619.776628	2589.499578
620.124382	2593.381267
620.472083	2594.006370
620.819731	2593.262800
621.167326	2591.831112
621.514868	2592.345310
621.862357	2591.846236
622.209793	2593.729107
622.557176	2592.158787
622.904506	2591.470670
623.251783	2589.434043
623.599007	2590.507809
623.946179	2587.031934
624.293297	2592.365474
624.640363	2593.335897
624.987376	2595.682554
625.334336	2596.713470
625.681243	2597.414190
626.028097	2593.177100
626.374899	2597.288161
626.721647	2597.454519
627.068343	2601.394181
627.414987	2603.161105
627.761577	2603.498863
628.108115	2605.338884
628.454600	2605.205293
628.801032	2607.226796
629.147412	2607.428442
629.493739	2610.254009
629.840014	2610.216200
630.186236	2615.421192
630.532405	2615.887498
630.878521	2617.503188
631.224585	2620.898405
631.570597	2619.446553
631.916556	2626.045423
632.262462	2628.180352
632.608316	2631.058851
632.954117	2631.777215
633.299866	2634.340642
633.645562	2634.693523
633.991206	2636.054634
634.336797	2633.952473
634.682336	2637.854326
635.027823	2636.594038
635.373257	2638.413894
635.718639	2635.613533
636.063968	2639.933802
636.409245	2637.997999
636.754470	2639.792650
637.099642	2642.706437
637.444762	2641.413381
637.789829	2641.657877
638.134845	2645.095944
638.479808	2647.722385
638.824719	2644.979997
639.169577	2648.077786
639.514383	2651.382262
639.859137	2652.118271
640.203839	2659.483397
640.548489	2658.185300
640.893086	2659.400218
641.237632	2658.770073
641.582125	2662.765188
641.926566	2662.767708
642.270955	2669.588390
642.615292	2671.231806
642.959576	2676.111643
643.303809	2679.748835
643.647990	2682.632375
643.992118	2681.477951
644.336195	2687.862572
