Dividing Wavelength (nm)	Counts (n)	Blue Motor Position (mm): 35.700000	Red Motor Position (mm): 0.000000	
326.493990	2231.421380
326.888308	2231.421380
327.282561	2231.421380
327.676750	2191.006449
328.070874	2185.614935
328.464933	2185.746005
328.858929	2190.807324
329.252859	2196.821420
329.646726	2204.040353
330.040528	2217.729606
330.434265	2230.208982
330.827938	2248.881416
331.221547	2265.484456
331.615091	2284.187137
332.008571	2301.712708
332.401986	2318.411530
332.795338	2337.691423
333.188625	2356.479804
333.581847	2377.125849
333.975006	2397.575290
334.368100	2418.057498
334.761129	2434.794129
335.154095	2452.191151
335.546996	2477.364152
335.939833	2516.498630
336.332606	2531.117976
336.725315	2544.804708
337.117960	2556.033879
337.510540	2569.135838
337.903056	2579.452559
338.295508	2589.973447
338.687896	2596.907554
339.080220	2600.615323
339.472480	2611.247116
339.864676	2615.486727
340.256807	2621.543673
340.648875	2626.420989
341.040879	2629.284365
341.432818	2632.281331
341.824694	2633.428193
342.216506	2635.651342
342.608253	2636.583955
342.999937	2635.520272
343.391557	2636.208389
343.783113	2636.291568
344.174605	2635.421969
344.566033	2631.701598
344.957397	2632.916516
345.348697	2632.036835
345.739934	2631.232771
346.131106	2629.276803
346.522215	2626.481483
346.913260	2624.003756
347.304241	2621.480658
347.695159	2620.285905
348.086012	2621.752881
348.476802	2619.224742
348.867528	2612.761983
349.258191	2613.203084
349.648789	2611.030347
350.039324	2606.170674
350.429796	2610.853906
350.820203	2608.161930
351.210548	2609.434821
351.600828	2605.621188
351.991045	2606.188318
352.381198	2605.918617
352.771288	2606.465582
353.161314	2606.185798
353.551276	2604.872577
353.941175	2603.571959
354.331010	2603.045159
354.720782	2603.186311
355.110490	2604.582711
355.500135	2603.342587
355.889717	2605.296034
356.279235	2602.692278
356.668689	2601.268152
357.058080	2603.793770
357.447408	2601.767226
357.836672	2601.210179
358.225873	2603.345107
358.615010	2602.896445
359.004084	2604.638163
359.393095	2603.992896
359.782043	2603.501383
360.170927	2605.969028
360.559748	2605.059100
360.948505	2604.917948
361.337199	2606.561364
361.725830	2609.122270
362.114398	2607.549430
362.502903	2606.785695
362.891344	2611.216869
363.279722	2608.502208
363.668037	2609.107146
364.056289	2609.926334
364.444478	2611.728546
364.832603	2612.396499
365.220665	2612.419184
365.608665	2610.984976
365.996601	2611.148814
366.384474	2613.911366
366.772284	2614.972529
367.160031	2613.641664
367.547715	2618.118209
367.935336	2616.678959
368.322893	2615.033023
368.710388	2611.358022
369.097820	2614.596963
369.485189	2613.278701
369.872495	2618.539145
370.259738	2618.355143
370.646918	2619.680967
371.034035	2619.028137
371.421090	2619.229783
371.808081	2618.224073
372.195010	2620.636265
372.581875	2618.067797
372.968678	2621.193313
373.355418	2619.421347
373.742096	2621.089969
374.128710	2623.529887
374.515262	2623.534929
374.901751	2619.277674
375.288177	2623.078704
375.674540	2622.279681
376.060841	2621.831019
376.447079	2623.711369
376.833254	2625.145577
377.219367	2622.756070
377.605417	2624.081894
377.991404	2622.166255
378.377329	2625.102727
378.763191	2625.959724
379.148991	2625.826133
379.534727	2626.884775
379.920402	2629.503655
380.306013	2628.024076
380.691563	2629.682616
381.077049	2627.835033
381.462474	2628.563480
381.847835	2631.618419
382.233134	2629.140692
382.618371	2630.824437
383.003545	2629.470887
383.388657	2633.329891
383.773706	2634.539767
384.158693	2631.280662
384.543618	2633.919706
384.928480	2636.813328
385.313280	2633.808800
385.698017	2633.491207
386.082692	2635.316105
386.467305	2633.246712
386.851856	2640.568987
387.236344	2640.599234
387.620770	2635.248050
388.005133	2636.556229
388.389435	2636.921713
388.773674	2635.827782
389.157851	2640.153092
389.541965	2640.717702
389.926018	2639.911117
390.310008	2642.734163
390.693936	2642.129225
391.077802	2644.853968
391.461606	2645.400933
391.845348	2644.659884
392.229027	2646.847745
392.612645	2646.046201
392.996200	2645.869761
393.379694	2645.083341
393.763125	2648.967550
394.146494	2648.707930
394.529801	2648.859165
394.913047	2649.723723
395.296230	2650.537869
395.679351	2652.912253
396.062410	2653.643220
396.445408	2653.002993
396.828343	2653.912922
397.211217	2656.425937
397.594028	2655.137922
397.976778	2655.236225
398.359466	2658.316370
398.742092	2655.836122
399.124656	2657.973571
399.507158	2660.269817
399.889598	2662.394663
400.271977	2665.610919
400.654294	2666.087308
401.036549	2675.118535
401.418742	2677.830676
401.800874	2686.456090
402.182944	2693.072605
402.564952	2703.500232
402.946898	2718.689228
403.328783	2732.012998
403.710606	2746.783578
404.092367	2775.306427
404.474067	2797.258131
404.855705	2825.501196
405.237282	2855.901874
405.618797	2903.502969
406.000250	2948.512911
406.381642	3014.199146
406.762972	3069.069585
407.144240	3127.463791
407.525447	3189.916125
407.906593	3255.625045
408.287677	3351.328830
408.668700	3409.065165
409.049661	3503.259125
409.430560	3583.882298
409.811399	3618.822535
410.192176	3769.701749
410.572891	3855.124101
410.953545	4010.051362
411.334138	4009.693440
411.714669	4148.877177
412.095139	4160.701203
412.475547	4335.538501
412.855894	4453.902273
413.236180	4621.795381
413.616405	4575.550356
413.996568	4767.693935
414.376670	4864.549624
414.756711	4902.431375
415.136691	5041.899937
415.516609	5237.955451
415.896466	5328.875181
416.276262	5530.884298
416.655997	5604.303663
417.035670	5822.109235
417.415283	6128.487881
417.794834	6248.490028
418.174324	6250.854329
418.553753	6284.229288
418.933121	6607.059739
419.312428	6753.144816
419.691674	6678.966757
420.070859	7120.287009
420.449983	6962.826569
420.829045	7319.634397
421.208047	7219.113789
421.586988	7533.570884
421.965867	7614.362936
422.344686	7786.793083
422.723444	7871.260136
423.102141	7378.714199
423.480777	8097.975948
423.859352	7719.022331
424.237866	8337.501332
424.616319	8259.222295
424.994712	8672.334770
425.373044	8332.122421
425.751314	8787.719220
426.129524	8694.858646
426.507673	8868.231488
426.885762	9038.002426
427.263789	8978.302562
427.641756	8925.907329
428.019662	9052.848624
428.397508	9300.139906
428.775292	9024.708903
429.153016	9409.805166
429.530679	9258.920911
429.908282	9330.777518
430.285824	9057.937669
430.663305	9739.151309
431.040726	9207.876708
431.418086	9199.032003
431.795385	9527.531232
432.172624	9613.994582
432.549802	9545.858347
432.926920	9634.335638
433.303977	9518.449593
433.680974	9728.680832
434.057910	9810.728132
434.434786	9877.430159
434.811601	9734.722655
435.188355	10297.328027
435.565050	10021.249237
435.941683	9962.197161
436.318257	10457.702255
436.694770	10569.958668
437.071222	10644.754268
437.447614	10497.887812
437.823946	10391.489219
438.200218	10539.898268
438.576429	10348.415080
438.952580	10581.235730
439.328670	10642.594134
439.704700	10429.741495
440.080670	10415.006202
440.456580	10990.600107
440.832429	10733.009748
441.208218	10335.547535
441.583947	10671.648824
441.959616	10806.736623
442.335224	10610.653383
442.710773	10766.936714
443.086261	10960.847217
443.461689	10252.262633
443.837057	10891.785930
444.212365	11176.936277
444.587612	10824.163892
444.962800	11056.571167
445.337927	10828.776548
445.712995	10407.832640
446.088002	11493.273722
446.462949	11148.642801
446.837837	11122.184305
447.212664	11121.372679
447.587431	11614.352155
447.962139	12334.904439
448.336786	14595.262041
448.711374	15151.671835
449.085901	13011.588602
449.460369	12618.476904
449.834776	12071.826784
450.209124	12932.162702
450.583412	13344.423223
450.957640	14290.567141
451.331808	13443.776803
451.705917	12431.727360
452.079965	11747.108421
452.453954	12642.175368
452.827883	12272.222732
453.201752	12551.253118
453.575562	12075.153946
453.949311	12498.545334
454.323001	12444.655399
454.696632	12679.984022
455.070202	12961.608082
455.443713	13209.637892
455.817164	13656.246314
456.190556	13658.824865
456.563888	14022.392880
456.937160	14199.365106
457.310373	13530.628322
457.683526	13611.768214
458.056619	13166.962004
458.429653	13308.799909
458.802628	12749.168818
459.175542	13111.847069
459.548398	14066.248398
459.921194	14399.743410
460.293930	14469.371827
460.666607	15346.827504
461.039224	16384.392747
461.411782	17079.323367
461.784280	16968.087786
462.156719	17010.526740
462.529099	16700.115171
462.901419	15620.073166
463.273680	15411.082051
463.645882	15277.380568
464.018024	15017.735939
464.390106	15233.474639
464.762130	15964.139477
465.134094	16724.128708
465.505999	18713.373057
465.877845	21975.541519
466.249631	24805.693179
466.621358	24490.789943
466.993026	23038.246997
467.364634	22482.023725
467.736184	21025.286540
468.107674	20217.618076
468.479105	20357.164776
468.850477	19814.713937
469.221790	19388.784328
469.593043	18720.223985
469.964238	18163.035332
470.335373	17817.925502
470.706449	18253.582017
471.077467	17813.229667
471.448425	19646.311672
471.819324	23688.719680
472.190164	25690.778642
472.560945	22141.551756
472.931667	19771.740621
473.302330	19136.787130
473.672934	18651.412235
474.043479	18995.145830
474.413965	18798.371952
474.784393	18435.330737
475.154761	19125.225243
475.525070	19108.513818
475.895321	18783.472821
476.265513	19361.864567
476.635645	19946.467014
477.005719	19730.446010
477.375734	19915.136243
477.745691	20407.838455
478.115588	20912.399982
478.485427	21438.227616
478.855207	22493.464624
479.224928	24266.113277
479.594591	26495.109862
479.964194	26523.423502
480.333739	26719.143780
480.703226	26291.119572
481.072653	25970.328267
481.442022	26541.974949
481.811333	27450.032950
482.180584	27379.146765
482.549777	26415.013489
482.918912	26075.658136
483.287988	26203.123711
483.657005	25879.640430
484.025964	25601.202380
484.394864	25531.959611
484.763706	25217.608381
485.132489	24646.566638
485.501213	24826.855943
485.869879	24735.545523
486.238487	24563.213679
486.607036	24694.906262
486.975527	24396.850561
487.343959	24731.487395
487.712333	24665.433156
488.080648	24327.998482
488.448905	24811.858510
488.817104	24572.761625
489.185244	25230.511214
489.553326	25207.253851
489.921350	26209.833486
490.289315	28499.651592
490.657222	30272.990883
491.025070	30782.202875
491.392861	30549.490610
491.760593	29696.774396
492.128267	28790.732856
492.495883	27761.054498
492.863440	26873.753448
493.230939	26007.859658
493.598380	25856.393149
493.965763	25454.613188
494.333088	24993.781150
494.700354	24934.971049
495.067563	24810.457070
495.434713	24548.564086
495.801805	24717.586413
496.168839	24521.588872
496.535815	24359.984603
496.902733	24572.721295
497.269593	24250.410083
497.636395	24438.790441
498.003139	24402.998248
498.369825	24140.409586
498.736453	24345.095555
499.103023	24216.062181
499.469535	24232.569440
499.835989	24443.554331
500.202385	24478.217305
500.568723	23976.869514
500.935003	24218.660896
501.301226	23841.965716
501.667390	24682.389077
502.033497	24916.618728
502.399546	24630.709688
502.765537	24205.745460
503.131470	24594.158802
503.497345	24729.604524
503.863163	23947.955976
504.228923	24544.823550
504.594625	24742.346040
504.960269	24278.199444
505.325856	24771.413333
505.691385	24174.407127
506.056856	24786.942607
506.422270	24746.971299
506.787625	24310.258662
507.152924	24728.160233
507.518164	24765.038794
507.883347	24578.700104
508.248472	24258.228913
508.613540	25045.473141
508.978550	24823.218751
509.343503	24821.172042
509.708398	25065.221862
510.073236	25228.348559
510.438016	25443.656240
510.802738	25120.455264
511.167403	25369.291659
511.532010	25078.991773
511.896561	25843.041653
512.261053	25816.361346
512.625488	25646.565203
512.989866	25546.049636
513.354186	25372.696958
513.718449	25500.013819
514.082655	25862.167791
514.446803	25620.638548
514.810894	26083.789517
515.174927	25556.212602
515.538904	25594.704332
515.902822	26080.762304
516.266684	25840.243813
516.630488	25746.211170
516.994235	25720.725617
517.357925	26020.286102
517.721558	26198.838730
518.085133	26295.003781
518.448651	26218.368160
518.812112	25950.077952
519.175516	26149.001883
519.538863	26296.269110
519.902152	26090.615239
520.265385	26362.890479
520.628560	26155.492368
520.991678	26175.457858
521.354739	26237.645532
521.717743	26314.913818
522.080690	26096.916681
522.443580	26431.850943
522.806413	26418.882575
523.169189	26509.595617
523.531908	26560.279378
523.894569	26179.228641
524.257174	26260.476918
524.619722	26433.527127
524.982213	26124.562369
525.344647	26174.162282
525.707025	26315.914487
526.069345	26298.575438
526.431608	26245.850010
526.793815	26429.302640
527.155964	25914.711737
527.518057	26078.100575
527.880093	25995.607133
528.242072	26228.274027
528.603995	25933.502638
528.965860	25734.868574
529.327669	25780.251561
529.689421	25770.020540
530.051117	25600.753717
530.412755	25783.419927
530.774337	25575.895787
531.135862	25455.119823
531.497331	25649.063094
531.858743	25210.001279
532.220098	25697.876587
532.581396	25373.087648
532.942638	25299.575022
533.303824	25407.228862
533.664953	25406.888584
534.026025	25065.204218
534.387040	25321.249463
534.747999	25370.582194
535.108902	25538.077051
535.469748	25029.984196
535.830537	25199.906369
536.191270	25338.137328
536.551947	25197.075761
536.912567	24828.872405
537.273131	25216.022938
537.633638	24903.549537
537.994089	25117.906960
538.354483	24647.983202
538.714821	25153.936087
539.075103	25175.184550
539.435328	24974.203829
539.795497	24549.322780
540.155609	24929.120790
540.515665	25231.264866
540.875665	24458.350118
541.235609	24778.929693
541.595496	24716.318563
541.955328	25079.263996
542.315102	24994.925492
542.674821	24526.705643
543.034483	24408.966974
543.394090	24582.619601
543.753640	24381.689291
544.113134	25011.339489
544.472571	24607.260761
544.831953	24907.423664
545.191278	24531.275449
545.550548	24446.011893
545.909761	24637.454752
546.268918	24873.106009
546.628019	24849.180693
546.987064	24536.344329
547.346053	24292.042452
547.704986	24406.612756
548.063863	24552.113058
548.422684	24575.199022
548.781449	24104.987918
549.140158	24510.765515
549.498811	24080.712242
549.857408	23838.179810
550.215949	24254.183387
550.574434	23948.460091
550.932864	24155.525485
551.291237	24309.079032
551.649555	24161.592514
552.007817	24219.291040
552.366022	24078.884823
552.724173	24130.705364
553.082267	24075.850049
553.440305	24548.551483
553.798288	23808.663854
554.156215	24316.671009
554.514086	24420.087760
554.871902	23800.608090
555.229661	24082.660648
555.587365	23937.344347
555.945014	23804.131857
556.302606	24056.497059
556.660143	24007.852445
557.017625	24248.166770
557.375050	23781.728969
557.732421	24172.554503
558.089735	23980.549556
558.446994	24050.309043
558.804197	24076.772580
559.161345	24007.524770
559.518437	23774.532722
559.875474	23959.293531
560.232455	24144.666840
560.589381	23956.747748
560.946251	23942.582106
561.303065	24274.922694
561.659825	24358.842782
562.016528	23959.308654
562.373177	23691.457027
562.729770	24053.260638
563.086307	23914.568414
563.442789	24080.918929
563.799216	23918.157715
564.155587	23926.168109
564.511904	23909.272682
564.868164	23842.878165
565.224370	23821.644825
565.580520	23742.934769
565.936615	23863.246947
566.292654	23561.785947
566.648638	23839.687115
567.004567	23666.442822
567.360441	23614.529019
567.716260	23350.065047
568.072023	23670.397607
568.427732	23430.448766
568.783385	23214.064799
569.138982	23449.716056
569.494525	23485.861129
569.850013	23240.505651
570.205445	23323.334329
570.560823	23140.506802
570.916145	22897.041757
571.271412	23073.106576
571.626625	22824.197084
571.981782	22945.245270
572.336884	22743.825968
572.691931	22888.325602
573.046923	22623.710395
573.401860	22501.548114
573.756743	22506.838805
574.111570	22412.312129
574.466342	22337.506447
574.821059	22436.781890
575.175722	22143.432107
575.530330	22119.952933
575.884882	22149.683137
576.239380	22045.517776
576.593823	21943.331067
576.948211	21928.857914
577.302544	21764.783480
577.656823	21623.545472
578.011047	21734.355075
578.365216	21603.229622
578.719330	21478.839151
579.073389	21363.769773
579.427394	21518.379441
579.781344	21284.356477
580.135239	21170.807007
580.489080	21129.275461
580.842866	20908.422511
581.196597	21109.695620
581.550273	21089.921694
581.903895	20968.974331
582.257463	21285.397475
582.610975	20809.439455
582.964434	21126.381839
583.317837	20815.456073
583.671186	20900.709546
584.024481	20881.331350
584.377721	20655.296094
584.730906	20721.756146
585.084037	20723.480221
585.437113	20643.318313
585.790135	20834.529278
586.143103	20312.931172
586.496016	20330.550005
586.848874	20573.715102
587.201679	20494.884058
587.554428	20176.290697
587.907124	20512.699496
588.259765	20272.957343
588.612352	20352.151349
588.964884	19923.887686
589.317362	20094.495455
589.669786	20146.474793
590.022155	20176.207518
590.374470	20392.503265
590.726731	20157.242697
591.078937	19934.431259
591.431090	20028.121103
591.783188	19795.537388
592.135232	19762.359034
592.487222	19853.740030
592.839157	19869.604541
593.191038	19750.303115
593.542866	19635.009406
593.894639	19351.953658
594.246358	19566.195135
594.598022	19470.650146
594.949633	19228.556294
595.301190	19194.430203
595.652692	19365.363128
596.004141	19595.963148
596.355535	18918.588347
596.706876	18941.228169
597.058162	18827.081323
597.409395	19055.790911
597.760573	19131.728332
598.111698	18897.450789
598.462768	18843.142439
598.813785	18815.095979
599.164748	18620.557852
599.515657	18662.132248
599.866511	18472.292477
600.217312	18806.727664
600.568060	18338.611159
600.918753	18647.986771
601.269392	18553.346669
601.619978	18333.517073
601.970510	18535.758083
602.320988	18488.953490
602.671412	18689.765333
603.021783	18599.689996
603.372100	18325.383171
603.722363	18469.096385
604.072572	18407.112878
604.422728	18556.106701
604.772830	18305.921797
605.122878	18261.163913
605.472872	18260.692565
605.822813	18243.477024
606.172701	18213.494762
606.522534	18406.737312
606.872314	18430.909645
607.222041	18267.692207
607.571714	18478.203230
607.921333	18317.299681
608.270899	18386.691164
608.620411	18553.150064
608.969870	18330.252926
609.319276	18331.805601
609.668627	18356.955918
610.017926	18490.359972
610.367171	18611.551831
610.716362	18665.834976
611.065500	18476.151480
611.414585	18616.983674
611.763616	18594.467361
612.112594	18526.205097
612.461518	18501.379934
612.810389	18695.242547
613.159207	18559.464109
613.507971	18464.077917
613.856682	18738.790554
614.205340	18661.698709
614.553945	18805.628692
614.902496	18557.888748
615.250994	18779.525598
615.599439	18730.530624
615.947830	18706.786789
616.296169	18773.115771
616.644454	18732.400892
616.992686	18704.528352
617.340864	18931.269370
617.688990	18676.895267
618.037063	18846.971195
618.385082	18698.589873
618.733048	18977.441298
619.080961	18861.348566
619.428821	18892.933915
619.776628	18778.202295
620.124382	18704.233445
620.472083	18741.308611
620.819731	18761.684954
621.167326	18453.801524
621.514868	18495.658225
621.862357	18270.018699
622.209793	18271.861241
622.557176	18107.754039
622.904506	17928.823325
623.251783	17847.993464
623.599007	17600.117409
623.946179	17551.863484
624.293297	17489.159092
624.640363	17230.875575
624.987376	17259.179133
625.334336	17049.346145
625.681243	16895.114564
626.028097	16912.073005
626.374899	16832.914287
626.721647	16697.758432
627.068343	16529.875406
627.414987	16472.491952
627.761577	16431.582988
628.108115	16475.688043
628.454600	16195.072214
628.801032	16294.448480
629.147412	16228.018675
629.493739	16243.875625
629.840014	16057.894857
630.186236	16152.797098
630.532405	15911.565284
630.878521	16118.935668
631.224585	16012.945408
631.570597	15834.135681
631.916556	15862.953437
632.262462	15839.595251
632.608316	15766.652275
632.954117	15699.098293
633.299866	15694.331882
633.645562	15613.020591
633.991206	15370.266348
634.336797	15245.230610
634.682336	15214.522421
635.027823	15096.037662
635.373257	14968.831706
635.718639	14879.449528
636.063968	14821.209077
