Dividing Wavelength (nm)	Counts (n)	Blue Motor Position (mm): 14.600000	Red Motor Position (mm): 0.000000	
326.493990	2171.136741
326.888308	2171.136741
327.282561	2171.136741
327.676750	2133.287758
328.070874	2127.918929
328.464933	2128.183590
328.858929	2131.782974
329.252859	2136.365383
329.646726	2144.113636
330.040528	2156.555204
330.434265	2169.316885
330.827938	2188.702642
331.221547	2205.207380
331.615091	2220.245142
332.008571	2241.317165
332.401986	2259.112438
332.795338	2279.282094
333.188625	2297.873870
333.581847	2315.994297
333.975006	2332.806545
334.368100	2349.255830
334.761129	2367.406505
335.154095	2387.999618
335.546996	2409.250602
335.939833	2435.283121
336.332606	2450.711572
336.725315	2462.981740
337.117960	2477.533031
337.510540	2487.685915
337.903056	2498.146309
338.295508	2504.868688
338.687896	2516.639782
339.080220	2519.873682
339.472480	2527.216123
339.864676	2535.740714
340.256807	2541.238092
340.648875	2544.179605
341.040879	2547.789072
341.432818	2548.167158
341.824694	2552.058929
342.216506	2555.625545
342.608253	2556.739640
342.999937	2555.297870
343.391557	2557.258879
343.783113	2555.126471
344.174605	2553.979608
344.566033	2548.900646
344.957397	2550.798640
345.348697	2549.808054
345.739934	2546.932075
346.131106	2546.067518
346.522215	2547.584905
346.913260	2543.400747
347.304241	2539.589635
347.695159	2538.725077
348.086012	2536.411187
348.476802	2536.103677
348.867528	2531.274252
349.258191	2527.795855
349.648789	2530.210568
350.039324	2520.599608
350.429796	2529.857687
350.820203	2524.239321
351.210548	2524.708149
351.600828	2524.909795
351.991045	2521.086080
352.381198	2523.183200
352.771288	2522.394259
353.161314	2520.823940
353.551276	2520.644979
353.941175	2523.538601
354.331010	2519.964423
354.720782	2520.952489
355.110490	2520.682787
355.500135	2517.887468
355.889717	2518.520132
356.279235	2519.157838
356.668689	2520.206398
357.058080	2519.929135
357.447408	2518.590708
357.836672	2521.015503
358.225873	2522.583302
358.615010	2521.597757
359.004084	2521.605318
359.393095	2523.140350
359.782043	2521.484331
360.170927	2522.051461
360.559748	2522.026255
360.948505	2522.318642
361.337199	2524.241842
361.725830	2525.234949
362.114398	2524.824095
362.502903	2525.855011
362.891344	2524.496420
363.279722	2525.628159
363.668037	2529.154446
364.056289	2525.360978
364.444478	2528.171421
364.832603	2529.784591
365.220665	2528.441123
365.608665	2530.167718
365.996601	2529.824920
366.384474	2531.100332
366.772284	2527.742923
367.160031	2534.356917
367.547715	2531.964890
367.935336	2532.879859
368.322893	2529.900537
368.710388	2526.084384
369.097820	2532.126207
369.485189	2529.860208
369.872495	2534.130065
370.259738	2532.723583
370.646918	2536.133924
371.034035	2533.799870
371.421090	2534.598893
371.808081	2535.304654
372.195010	2536.070909
372.581875	2537.018646
372.968678	2535.501259
373.355418	2535.372710
373.742096	2536.295241
374.128710	2536.330529
374.515262	2540.449152
374.901751	2538.742721
375.288177	2538.155427
375.674540	2537.323636
376.060841	2538.198276
376.447079	2540.857485
376.833254	2536.970755
377.219367	2538.354552
377.605417	2538.455375
377.991404	2540.731456
378.377329	2538.800694
378.763191	2538.384799
379.148991	2537.346321
379.534727	2538.238606
379.920402	2540.791950
380.306013	2539.851775
380.691563	2540.905376
381.077049	2539.909748
381.462474	2538.019315
381.847835	2542.377393
382.233134	2542.810932
382.618371	2539.972762
383.003545	2543.579708
383.388657	2542.291693
383.773706	2541.452341
384.158693	2539.612320
384.543618	2543.564585
384.928480	2542.001827
385.313280	2543.388144
385.698017	2541.492670
386.082692	2543.526776
386.467305	2542.122815
386.851856	2542.745397
387.236344	2543.458720
387.620770	2539.892104
388.005133	2538.087371
388.389435	2543.869574
388.773674	2542.279090
389.157851	2546.811088
389.541965	2546.624565
389.926018	2544.504760
390.310008	2543.761190
390.693936	2545.094575
391.077802	2545.926365
391.461606	2547.201777
391.845348	2547.184133
392.229027	2548.376366
392.612645	2545.777651
392.996200	2546.218752
393.379694	2546.745553
393.763125	2547.113557
394.146494	2547.315203
394.529801	2548.033567
394.913047	2549.992056
395.296230	2546.163299
395.679351	2548.719164
396.062410	2549.097251
396.445408	2548.182282
396.828343	2548.109185
397.211217	2548.845193
397.594028	2549.747560
397.976778	2547.489123
398.359466	2544.797147
398.742092	2548.499874
399.124656	2548.472148
399.507158	2551.867365
399.889598	2550.236552
400.271977	2551.869886
400.654294	2550.627241
401.036549	2551.320400
401.418742	2551.567416
401.800874	2551.925338
402.182944	2550.717982
402.564952	2552.268137
402.946898	2552.767211
403.328783	2552.810061
403.710606	2552.928528
404.092367	2554.428271
404.474067	2550.856614
404.855705	2555.867521
405.237282	2554.599670
405.618797	2551.922818
406.000250	2554.304763
406.381642	2553.162942
406.762972	2551.791748
407.144240	2550.528939
407.525447	2552.699155
407.906593	2550.584391
408.287677	2555.902809
408.668700	2553.888868
409.049661	2553.515822
409.430560	2553.747715
409.811399	2556.162428
410.192176	2554.566903
410.572891	2554.753426
410.953545	2555.320555
411.334138	2556.404403
411.714669	2556.656461
412.095139	2558.052861
412.475547	2556.926163
412.855894	2557.757953
413.236180	2557.079918
413.616405	2557.321893
413.996568	2556.946328
414.376670	2556.772408
414.756711	2558.945145
415.136691	2556.268292
415.516609	2557.931873
415.896466	2557.246276
416.276262	2558.867007
416.655997	2557.861297
417.035670	2556.157387
417.415283	2559.804662
417.794834	2556.855587
418.174324	2560.719631
418.553753	2560.933880
418.933121	2558.947666
419.312428	2560.523026
419.691674	2559.260217
420.070859	2560.535629
420.449983	2558.194013
420.829045	2559.749209
421.208047	2559.275341
421.586988	2559.565207
421.965867	2558.609908
422.344686	2560.719631
422.723444	2559.071174
423.102141	2558.002449
423.480777	2558.035217
423.859352	2561.354817
424.237866	2559.292985
424.616319	2559.396328
424.994712	2561.092677
425.373044	2560.533108
425.751314	2558.748540
426.129524	2556.482541
426.507673	2558.345248
426.885762	2556.974054
427.263789	2559.605536
427.641756	2561.606874
428.019662	2562.186607
428.397508	2563.139385
428.775292	2561.133006
429.153016	2560.260886
429.530679	2562.680640
429.908282	2562.519323
430.285824	2563.547718
430.663305	2561.881617
431.040726	2563.139385
431.418086	2564.654252
431.795385	2563.595609
432.172624	2561.495969
432.549802	2561.964796
432.926920	2561.838767
433.303977	2564.500497
433.680974	2564.066957
434.057910	2562.894889
434.434786	2562.320197
434.811601	2562.292471
435.188355	2564.319015
435.565050	2562.723490
435.941683	2564.828172
436.318257	2567.066444
436.694770	2563.719118
437.071222	2565.453275
437.447614	2560.391956
437.823946	2565.387740
438.200218	2565.513768
438.576429	2566.456464
438.952580	2562.042934
439.328670	2562.710887
439.704700	2565.324725
440.080670	2564.742472
440.456580	2566.547205
440.832429	2565.158367
441.208218	2566.514438
441.583947	2564.263562
441.959616	2562.892368
442.335224	2565.617112
442.710773	2564.346741
443.086261	2567.167267
443.461689	2567.915878
443.837057	2565.740620
444.212365	2565.165929
444.587612	2564.273645
444.962800	2564.971844
445.337927	2563.895558
445.712995	2561.642162
446.088002	2567.666341
446.462949	2566.547205
446.837837	2570.781774
447.212664	2566.206927
447.587431	2570.529717
447.962139	2568.319171
448.336786	2568.268759
448.711374	2568.523337
449.085901	2570.408729
449.460369	2566.837071
449.834776	2568.629202
450.209124	2567.648697
450.583412	2567.499983
450.957640	2567.028635
451.331808	2569.632391
451.705917	2568.689695
452.079965	2568.818245
452.453954	2567.197514
452.827883	2568.566187
453.201752	2569.871846
453.575562	2569.471074
453.949311	2565.317163
454.323001	2570.743966
454.696632	2569.062741
455.070202	2570.988462
455.443713	2570.446538
455.817164	2571.684141
456.190556	2571.777402
456.563888	2568.946794
456.937160	2569.304716
457.310373	2571.147258
457.683526	2571.306054
458.056619	2570.297823
458.429653	2569.014850
458.802628	2571.202711
459.175542	2572.044583
459.548398	2571.056517
459.921194	2569.733214
460.293930	2570.701116
460.666607	2575.137331
461.039224	2574.282856
461.411782	2572.667166
461.784280	2575.278483
462.156719	2573.536765
462.529099	2575.016343
462.901419	2575.046590
463.273680	2571.598441
463.645882	2569.869325
464.018024	2575.122208
464.390106	2565.501166
464.762130	2575.326374
465.134094	2574.779409
465.505999	2574.769327
465.877845	2577.814184
466.249631	2580.299473
466.621358	2578.353587
466.993026	2579.354256
467.364634	2580.891808
467.736184	2578.968608
468.107674	2577.005079
468.479105	2578.335943
468.850477	2577.862075
469.221790	2578.547672
469.593043	2580.153279
469.964238	2577.647826
470.335373	2577.078175
470.706449	2576.311920
471.077467	2575.691858
471.448425	2579.681931
471.819324	2580.133115
472.190164	2580.733012
472.560945	2581.194277
472.931667	2579.127404
473.302330	2577.627661
473.672934	2577.806622
474.043479	2576.964749
474.413965	2577.794019
474.784393	2577.456262
475.154761	2581.234607
475.525070	2580.831314
475.895321	2578.656057
476.265513	2581.363156
476.635645	2581.030440
477.005719	2578.976170
477.375734	2578.792168
477.745691	2580.715368
478.115588	2583.840883
478.485427	2583.019175
478.855207	2582.593198
479.224928	2581.196798
479.594591	2586.532859
479.964194	2586.656368
480.333739	2584.584453
480.703226	2583.545976
481.072653	2587.531008
481.442022	2585.431367
481.811333	2585.073445
482.180584	2582.900708
482.549777	2584.397931
482.918912	2579.278639
483.287988	2584.060173
483.657005	2585.312900
484.025964	2585.764083
484.394864	2585.958168
484.763706	2585.262489
485.132489	2584.904567
485.501213	2588.642582
485.869879	2584.692838
486.238487	2585.582602
486.607036	2586.921028
486.975527	2586.946234
487.343959	2587.107551
487.712333	2589.509661
488.080648	2585.612849
488.448905	2586.495051
488.817104	2586.316090
489.185244	2589.345823
489.553326	2587.291553
489.921350	2588.869434
490.289315	2591.367326
490.657222	2591.672316
491.025070	2592.642738
491.392861	2592.196596
491.760593	2592.163828
492.128267	2592.652820
492.495883	2592.219281
492.863440	2588.698035
493.230939	2588.246852
493.598380	2592.546956
493.965763	2590.447315
494.333088	2591.609301
494.700354	2587.193251
495.067563	2589.030751
495.434713	2591.372367
495.801805	2591.634507
496.168839	2591.861359
496.535815	2589.673498
496.902733	2589.970926
497.269593	2590.228025
497.636395	2590.573344
498.003139	2590.207861
498.369825	2590.926225
498.736453	2590.326328
499.103023	2591.453026
499.469535	2591.700042
499.835989	2591.780701
500.202385	2589.035792
500.568723	2590.933787
500.935003	2589.386152
501.301226	2585.265009
501.667390	2594.959148
502.033497	2594.001329
502.399546	2596.355548
502.765537	2593.719024
503.131470	2592.080649
503.497345	2595.518716
503.863163	2593.789600
504.228923	2592.577203
504.594625	2595.377564
504.960269	2593.623242
505.325856	2597.545260
505.691385	2596.035434
506.056856	2598.291351
506.422270	2595.758171
506.787625	2599.284458
507.152924	2598.669437
507.518164	2599.483584
507.883347	2601.429469
508.248472	2601.177411
508.613540	2603.009871
508.978550	2601.789912
509.343503	2600.459047
509.708398	2604.610437
510.073236	2601.999119
510.438016	2604.129007
510.802738	2606.705037
511.167403	2603.952567
511.532010	2604.214707
511.896561	2605.807711
512.261053	2608.860130
512.625488	2610.127980
512.989866	2612.073865
513.354186	2610.281735
513.718449	2612.051180
514.082655	2613.530759
514.446803	2609.979266
514.810894	2613.946654
515.174927	2615.395986
515.538904	2616.106788
515.902822	2619.557458
516.266684	2615.791716
516.630488	2617.218363
516.994235	2619.738940
517.357925	2622.355299
517.721558	2623.660957
518.085133	2623.822274
518.448651	2621.314300
518.812112	2621.079887
519.175516	2623.539970
519.538863	2620.013683
519.902152	2628.588685
520.265385	2629.493572
520.628560	2633.125724
520.991678	2628.876031
521.354739	2630.302678
521.717743	2630.849643
522.080690	2635.162350
522.443580	2635.968935
522.806413	2640.148051
523.169189	2634.633029
523.531908	2640.518576
523.894569	2637.607310
524.257174	2639.948926
524.619722	2645.705923
524.982213	2642.461941
525.344647	2644.664925
525.707025	2646.363794
526.069345	2649.721202
526.431608	2646.159627
526.793815	2650.190030
527.155964	2650.079124
527.518057	2650.830256
527.880093	2650.903353
528.242072	2657.872748
528.603995	2658.770073
528.965860	2660.504230
529.327669	2657.981133
529.689421	2662.482883
530.051117	2663.574293
530.412755	2663.080260
530.774337	2666.656959
531.135862	2666.341887
531.497331	2670.407577
531.858743	2671.766168
532.220098	2674.309430
532.581396	2675.118535
532.942638	2677.971828
533.303824	2681.120029
533.664953	2682.400482
534.026025	2679.474092
534.387040	2684.921059
534.747999	2689.359795
535.108902	2693.785928
535.469748	2692.452543
535.830537	2695.855322
536.191270	2703.641384
536.551947	2697.481094
536.912567	2700.886393
537.273131	2708.785881
537.633638	2705.453679
537.994089	2713.471634
538.354483	2716.700493
538.714821	2723.503530
539.075103	2725.202399
539.435328	2726.964282
539.795497	2730.170456
540.155609	2739.032804
540.515665	2742.188567
540.875665	2740.799729
541.235609	2745.760224
541.595496	2753.153076
541.955328	2755.726585
542.315102	2765.990375
542.674821	2769.158740
543.034483	2769.539347
543.394090	2774.419184
543.753640	2779.301541
544.113134	2790.863428
544.472571	2792.605146
544.831953	2806.990079
545.191278	2806.559060
545.550548	2814.781182
545.909761	2820.558344
546.268918	2832.952021
546.628019	2837.103411
546.987064	2847.384845
547.346053	2852.592357
547.704986	2857.827595
548.063863	2869.487784
548.422684	2875.171685
548.781449	2881.475647
549.140158	2896.281516
549.498811	2905.232085
549.857408	2903.825603
550.215949	2923.324786
550.574434	2930.523554
550.932864	2947.386213
551.291237	2955.865434
551.649555	2972.375213
552.007817	2984.151348
552.366022	2992.945641
552.724173	3004.207579
553.082267	3018.393386
553.440305	3044.418343
553.798288	3041.849875
554.156215	3072.842889
554.514086	3087.000969
554.871902	3087.079107
555.229661	3106.611058
555.587365	3125.283492
555.945014	3141.795791
556.302606	3171.808300
556.660143	3184.138963
557.017625	3219.084241
557.375050	3229.469018
557.732421	3249.258067
558.089735	3273.138013
558.446994	3290.164510
558.804197	3321.913697
559.161345	3350.658357
559.518437	3354.509798
559.875474	3392.212588
560.232455	3411.734456
560.589381	3443.236626
560.946251	3464.384267
561.303065	3504.496728
561.659825	3544.692368
562.016528	3560.103175
562.373177	3577.394333
562.729770	3609.385495
563.086307	3649.722288
563.442789	3684.710416
563.799216	3716.545303
564.155587	3742.013212
564.511904	3783.759007
564.868164	3800.785504
565.224370	3851.754090
565.580520	3868.165566
565.936615	3921.884102
566.292654	3930.406172
566.648638	3999.190196
567.004567	4015.926827
567.360441	4057.196233
567.716260	4074.557967
568.072023	4155.355060
568.427732	4180.696940
568.783385	4206.195096
569.138982	4262.991256
569.494525	4320.785564
569.850013	4356.325699
570.205445	4400.254314
570.560823	4421.066717
570.916145	4467.508347
571.271412	4506.186600
571.626625	4563.151638
571.981782	4608.544708
572.336884	4632.507833
572.691931	4698.458728
573.046923	4705.503741
573.401860	4767.280561
573.756743	4840.122713
574.111570	4874.715111
574.466342	4913.184156
574.821059	4977.166480
575.175722	4990.192822
575.530330	5066.956992
575.884882	5113.459116
576.239380	5171.071942
576.593823	5205.422365
576.948211	5244.874435
577.302544	5281.420280
577.656823	5323.549202
578.011047	5402.748250
578.365216	5441.988591
578.719330	5491.712012
579.073389	5523.307444
579.427394	5633.559999
579.781344	5627.132528
580.135239	5694.936047
580.489080	5737.410289
580.842866	5745.748357
581.196597	5877.468666
581.550273	5897.608076
581.903895	5991.829762
582.257463	6091.571511
582.610975	6086.779895
582.964434	6196.379620
583.317837	6225.736780
583.671186	6304.033461
584.024481	6380.535491
584.377721	6380.311160
584.730906	6468.014634
585.084037	6549.666202
585.437113	6594.552636
585.790135	6685.426996
586.143103	6657.511607
586.496016	6707.633279
586.848874	6862.905858
587.201679	6899.688637
587.554428	6894.402988
587.907124	7040.659464
588.259765	7053.463994
588.612352	7178.782038
588.964884	7136.315358
589.317362	7236.898980
589.669786	7324.557084
590.022155	7395.735655
590.374470	7537.828138
590.726731	7555.721714
591.078937	7558.131385
591.431090	7647.954665
591.783188	7636.271791
592.135232	7692.389915
592.487222	7829.499218
592.839157	7889.874597
593.191038	7949.524049
593.542866	7958.799772
593.894639	7976.637895
594.246358	8099.231195
594.598022	8127.111297
594.949633	8135.116649
595.301190	8177.270777
595.652692	8302.682082
596.004141	8450.057694
596.355535	8302.263666
596.706876	8374.213535
597.058162	8418.164834
597.409395	8534.844861
597.760573	8657.952358
598.111698	8655.915732
598.462768	8704.754431
598.813785	8749.421574
599.164748	8761.366588
599.515657	8828.897885
599.866511	8832.729162
600.217312	9026.269141
600.568060	8909.299248
600.918753	9114.501936
601.269392	9165.311725
601.619978	9119.033933
601.970510	9309.534096
602.320988	9323.334254
602.671412	9484.522628
603.021783	9513.789047
603.372100	9476.424014
603.722363	9616.384089
604.072572	9660.542076
604.422728	9755.900542
604.772830	9774.139437
605.122878	9769.158777
605.472872	9867.652841
605.822813	9943.731414
606.172701	9987.607097
606.522534	10143.998813
606.872314	10225.451256
607.222041	10189.028919
607.571714	10372.594975
607.921333	10374.850891
608.270899	10479.943825
608.620411	10656.981587
608.969870	10560.730836
609.319276	10645.593620
609.668627	10747.140103
610.017926	10879.467871
610.367171	11005.106027
610.716362	11122.733791
611.065500	11058.960674
611.414585	11201.000225
611.763616	11280.060640
612.112594	11327.553351
612.461518	11347.564211
612.810389	11521.814214
613.159207	11484.449182
613.507971	11517.017556
613.856682	11780.329625
614.205340	11782.663679
614.553945	11956.709515
614.902496	11830.627737
615.250994	12084.719535
615.599439	12100.372318
615.947830	12143.479224
616.296169	12206.836446
616.644454	12286.146399
616.992686	12287.603292
617.340864	12497.219510
617.688990	12431.364397
618.037063	12613.690329
618.385082	12572.796489
618.733048	12807.552941
619.080961	12772.776541
619.428821	12881.229404
619.776628	12891.838513
620.124382	12882.368705
620.472083	12980.341010
620.819731	13072.473137
621.167326	12906.064649
621.514868	13009.131039
621.862357	12919.625353
622.209793	12991.912978
622.557176	12949.416051
622.904506	12862.166281
623.251783	12870.806819
623.599007	12821.199344
623.946179	12828.788802
624.293297	12846.652130
624.640363	12740.077097
624.987376	12790.463429
625.334336	12693.718646
625.681243	12641.953558
626.028097	12684.853777
626.374899	12736.749935
626.721647	12643.201243
627.068343	12567.268863
627.414987	12575.614494
627.761577	12623.076957
628.108115	12710.989639
628.454600	12517.008560
628.801032	12625.768933
629.147412	12627.303965
629.493739	12689.839478
629.840014	12588.585383
630.186236	12702.843134
630.532405	12567.964543
630.878521	12763.674738
631.224585	12702.669215
631.570597	12633.681024
631.916556	12676.145184
632.262462	12688.427955
632.608316	12684.694981
632.954117	12666.125890
633.299866	12710.006614
633.645562	12700.433463
633.991206	12521.747244
634.336797	12442.109616
634.682336	12482.078405
635.027823	12424.236205
635.373257	12386.084753
635.718639	12318.646717
636.063968	12318.465236
636.409245	12167.666680
636.754470	12224.714898
637.099642	12143.428813
637.444762	11977.358082
637.789829	12059.632233
638.134845	11957.259001
638.479808	12014.092970
638.824719	12011.388391
639.169577	11907.331413
639.514383	11977.474028
639.859137	11853.189421
640.203839	11951.166767
640.548489	11831.141935
640.893086	11869.197605
641.237632	11758.960173
641.582125	11932.799323
641.926566	11818.526447
642.270955	11852.329904
642.615292	11837.592091
642.959576	11876.376208
