Dividing Wavelength (nm)	Counts (n)	Blue Motor Position (mm): 27.500000	Red Motor Position (mm): 0.000000	
326.493990	2132.150978
326.888308	2132.150978
327.282561	2132.150978
327.676750	2102.440938
328.070874	2100.855495
328.464933	2103.280290
328.858929	2107.018306
329.252859	2119.036416
329.646726	2129.703498
330.040528	2145.257978
330.434265	2159.897489
330.827938	2175.507422
331.221547	2196.559280
331.615091	2215.214070
332.008571	2232.293499
332.401986	2253.299987
332.795338	2272.872267
333.188625	2291.398508
333.581847	2309.919707
333.975006	2326.931080
334.368100	2345.984121
334.761129	2364.086905
335.154095	2380.652136
335.546996	2400.020249
335.939833	2426.511513
336.332606	2442.199584
336.725315	2451.495471
337.117960	2463.075002
337.510540	2470.619088
337.903056	2483.048053
338.295508	2489.677171
338.687896	2496.694457
339.080220	2505.662669
339.472480	2512.974863
339.864676	2513.597446
340.256807	2518.585667
340.648875	2525.953314
341.040879	2526.704446
341.432818	2528.756195
341.824694	2529.961031
342.216506	2529.285516
342.608253	2530.359282
342.999937	2531.783408
343.391557	2529.852646
343.783113	2530.112266
344.174605	2526.379291
344.566033	2527.130423
344.957397	2523.268899
345.348697	2522.588343
345.739934	2524.141019
346.131106	2520.070287
346.522215	2518.454597
346.913260	2515.298835
347.304241	2515.039216
347.695159	2510.177023
348.086012	2509.932527
348.476802	2508.210973
348.867528	2507.729543
349.258191	2506.197032
349.648789	2504.939264
350.039324	2503.469768
350.429796	2503.991527
350.820203	2501.879283
351.210548	2502.201917
351.600828	2498.801659
351.991045	2502.602689
352.381198	2500.583707
352.771288	2496.797800
353.161314	2498.163953
353.551276	2495.958448
353.941175	2498.330311
354.331010	2497.755620
354.720782	2495.731596
355.110490	2496.817965
355.500135	2494.922491
355.889717	2495.940804
356.279235	2497.422903
356.668689	2497.934581
357.058080	2499.209993
357.447408	2494.844353
357.836672	2497.201093
358.225873	2496.817965
358.615010	2494.710763
359.004084	2499.482215
359.393095	2499.605723
359.782043	2501.841475
360.170927	2501.670076
360.559748	2500.651763
360.948505	2500.467760
361.337199	2501.775940
361.725830	2502.375837
362.114398	2503.973883
362.502903	2504.525889
362.891344	2506.754079
363.279722	2505.796260
363.668037	2505.458503
364.056289	2505.549243
364.444478	2505.682834
364.832603	2508.185767
365.220665	2506.645694
365.608665	2507.830366
365.996601	2507.159892
366.384474	2507.618637
366.772284	2510.048473
367.160031	2508.541168
367.547715	2508.021929
367.935336	2509.587208
368.322893	2509.020078
368.710388	2510.464368
369.097820	2514.257837
369.485189	2510.003103
369.872495	2513.005110
370.259738	2513.811695
370.646918	2510.149296
371.034035	2512.760614
371.421090	2513.133659
371.808081	2513.627693
372.195010	2514.058711
372.581875	2511.210459
372.968678	2513.012672
373.355418	2512.808505
373.742096	2515.296314
374.128710	2514.709020
374.515262	2513.572240
374.901751	2515.586181
375.288177	2514.905625
375.674540	2514.194822
376.060841	2515.147600
376.447079	2517.327899
376.833254	2516.049967
377.219367	2511.233144
377.605417	2514.051149
377.991404	2511.059225
378.377329	2514.643485
378.763191	2513.960409
379.148991	2516.896881
379.534727	2518.290760
379.920402	2516.309586
380.306013	2519.810668
380.691563	2519.419978
381.077049	2519.036851
381.462474	2518.363857
381.847835	2516.811181
382.233134	2519.505678
382.618371	2516.007117
383.003545	2521.557427
383.388657	2523.059691
383.773706	2521.030627
384.158693	2519.989629
384.543618	2521.837212
384.928480	2519.727489
385.313280	2520.531553
385.698017	2521.305370
386.082692	2522.628673
386.467305	2522.290915
386.851856	2520.927283
387.236344	2522.815195
387.620770	2522.699249
388.005133	2523.755371
388.389435	2522.542973
388.773674	2526.011287
389.157851	2522.825278
389.541965	2522.084228
389.926018	2522.502644
390.310008	2522.580782
390.693936	2524.786287
391.077802	2523.916687
391.461606	2523.957017
391.845348	2522.094310
392.229027	2524.814013
392.612645	2523.596574
392.996200	2525.121523
393.379694	2524.214116
393.763125	2524.652696
394.146494	2525.116482
394.529801	2526.457429
394.913047	2527.200999
395.296230	2528.133613
395.679351	2527.624456
396.062410	2529.479601
396.445408	2527.911802
396.828343	2527.377440
397.211217	2524.604805
397.594028	2525.257634
397.976778	2522.578261
398.359466	2526.323838
398.742092	2525.111441
399.124656	2529.721576
399.507158	2529.724097
399.889598	2529.958510
400.271977	2529.545136
400.654294	2530.573531
401.036549	2529.320804
401.418742	2531.281813
401.800874	2529.383819
402.182944	2531.710311
402.564952	2529.091432
402.946898	2531.385157
403.328783	2531.881711
403.710606	2532.758871
404.092367	2531.039838
404.474067	2530.976823
404.855705	2533.628470
405.237282	2531.002029
405.618797	2530.336597
406.000250	2531.322143
406.381642	2533.522606
406.762972	2530.134951
407.144240	2532.776515
407.525447	2534.062010
407.906593	2532.325332
408.287677	2532.098480
408.668700	2535.478574
409.049661	2532.224509
409.430560	2534.054448
409.811399	2534.765251
410.192176	2532.665610
410.572891	2536.945550
410.953545	2534.644263
411.334138	2534.127545
411.714669	2533.487318
412.095139	2536.605272
412.475547	2534.835827
412.855894	2534.533357
413.236180	2539.362783
413.616405	2537.820190
413.996568	2536.184335
414.376670	2535.324819
414.756711	2538.634336
415.136691	2537.036290
415.516609	2537.527803
415.896466	2536.627957
416.276262	2538.394881
416.655997	2535.471012
417.035670	2534.545960
417.415283	2536.869932
417.794834	2535.080323
418.174324	2537.794984
418.553753	2538.929244
418.933121	2537.714326
419.312428	2540.171888
419.691674	2541.159954
420.070859	2540.060983
420.449983	2539.274563
420.829045	2540.749100
421.208047	2542.700027
421.586988	2542.490819
421.965867	2543.191539
422.344686	2540.779347
422.723444	2543.690613
423.102141	2541.636343
423.480777	2540.827238
423.859352	2543.952753
424.237866	2544.245140
424.616319	2543.793957
424.994712	2543.796478
425.373044	2544.839997
425.751314	2543.410829
426.129524	2544.272867
426.507673	2546.516180
426.885762	2544.640871
427.263789	2545.432332
427.641756	2545.880995
428.019662	2545.034081
428.397508	2547.055584
428.775292	2545.465100
429.153016	2548.144473
429.530679	2547.756304
429.908282	2546.029709
430.285824	2549.858465
430.663305	2547.370656
431.040726	2547.960471
431.418086	2547.857127
431.795385	2550.710420
432.172624	2548.484751
432.549802	2551.380894
432.926920	2551.859803
433.303977	2551.821995
433.680974	2552.951213
434.057910	2553.898950
434.434786	2554.824002
434.811601	2557.112686
435.188355	2558.219219
435.565050	2559.676112
435.941683	2563.401525
436.318257	2562.332800
436.694770	2561.899261
437.071222	2568.530899
437.447614	2568.432597
437.823946	2573.907290
438.200218	2579.291242
438.576429	2583.011613
438.952580	2592.310022
439.328670	2593.749271
439.704700	2600.776640
440.080670	2604.514655
440.456580	2614.528907
440.832429	2621.425206
441.208218	2626.204220
441.583947	2638.040849
441.959616	2648.866727
442.335224	2653.610452
442.710773	2668.083605
443.086261	2679.113650
443.461689	2681.772858
443.837057	2697.171063
444.212365	2716.861810
444.587612	2724.723489
444.962800	2744.837693
445.337927	2760.482914
445.712995	2756.371853
446.088002	2801.792649
446.462949	2812.104329
446.837837	2823.646051
447.212664	2849.827284
447.587431	2888.112327
447.962139	2962.998667
448.336786	3069.886252
448.711374	3065.969275
449.085901	3003.655573
449.460369	3021.503778
449.834776	3041.756613
450.209124	3118.808129
450.583412	3179.327181
450.957640	3219.792523
451.331808	3222.552555
451.705917	3192.731609
452.079965	3214.567367
452.453954	3282.234775
452.827883	3294.696508
453.201752	3349.203984
453.575562	3348.278932
453.949311	3426.709203
454.323001	3446.042028
454.696632	3497.804596
455.070202	3573.260587
455.443713	3653.523318
455.817164	3724.154924
456.190556	3795.842653
456.563888	3862.867314
456.937160	3918.745983
457.310373	3875.568501
457.683526	3931.830298
458.056619	3954.412147
458.429653	4000.722707
458.802628	4029.061553
459.175542	4112.490129
459.548398	4298.856545
459.921194	4411.685130
460.293930	4473.018328
460.666607	4750.148199
461.039224	4933.316004
461.411782	5052.927461
461.784280	5129.293380
462.156719	5147.517151
462.529099	5163.495088
462.901419	5049.749013
463.273680	5063.496240
463.645882	5128.040653
464.018024	5142.876769
464.390106	5276.812665
464.762130	5542.037851
465.134094	5865.127922
465.505999	6476.193906
465.877845	7220.348872
466.249631	7670.357552
466.621358	7570.353663
466.993026	7315.624159
467.364634	7254.661486
467.736184	7130.147506
468.107674	7008.101172
468.479105	7119.147708
468.850477	7029.775613
469.221790	6959.597710
469.593043	6815.060267
469.964238	6800.541744
470.335373	6869.824842
470.706449	6973.997766
471.077467	7020.300764
471.448425	8035.574025
471.819324	8888.471721
472.190164	8969.717477
472.560945	8123.532077
472.931667	7584.378153
473.302330	7541.833335
473.672934	7316.473593
474.043479	7659.282137
474.413965	7658.785584
474.784393	7621.959955
475.154761	7800.764641
475.525070	7923.068074
475.895321	7826.333373
476.265513	8014.917897
476.635645	8199.030918
477.005719	8257.341944
477.375734	8397.707832
477.745691	8639.302610
478.115588	8803.273700
478.485427	9062.184841
478.855207	9565.917098
479.224928	10326.894395
479.594591	10927.258009
479.964194	10818.870681
480.333739	10810.928343
480.703226	10793.579212
481.072653	10917.024467
481.442022	11168.421768
481.811333	11370.085566
482.180584	11237.853580
482.549777	11006.550318
482.918912	10866.996056
483.287988	10925.589387
483.657005	10962.256220
484.025964	10691.531135
484.394864	10845.296409
484.763706	10840.245173
485.132489	10630.931424
485.501213	10621.030598
485.869879	10711.738600
486.238487	10582.238919
486.607036	10698.550941
486.975527	10509.721921
487.343959	10710.700122
487.712333	10768.053329
488.080648	10714.730525
488.448905	10771.380491
488.817104	10722.854344
489.185244	10993.609676
489.553326	11156.088585
489.921350	11695.683610
490.289315	12736.213052
490.657222	13082.263058
491.025070	12993.485818
491.392861	12872.787992
491.760593	12514.631656
492.128267	12179.843587
492.495883	11859.755524
492.863440	11541.227698
493.230939	11211.057327
493.598380	11146.621298
493.965763	11026.210818
494.333088	10931.963926
494.700354	10861.526404
495.067563	10916.127141
495.434713	10758.333985
495.801805	10882.429548
496.168839	10810.099073
496.535815	10751.203273
496.902733	10751.525907
497.269593	10687.490650
497.636395	10790.128542
498.003139	10775.983064
498.369825	10643.597323
498.736453	10804.599174
499.103023	10734.186858
499.469535	10770.097517
499.835989	10755.374827
500.202385	10718.405526
500.568723	10575.173742
500.935003	10793.566609
501.301226	10600.571075
501.667390	10863.805006
502.033497	10957.388986
502.399546	10812.564197
502.765537	10722.894673
503.131470	10797.072732
503.497345	10975.068312
503.863163	10588.603376
504.228923	10897.147197
504.594625	10964.013062
504.960269	10710.924453
505.325856	10932.425192
505.691385	10726.544469
506.056856	10876.206244
506.422270	10911.340566
506.787625	10788.596031
507.152924	10911.496842
507.518164	10897.923535
507.883347	10814.467233
508.248472	10738.809596
508.613540	10970.369957
508.978550	10854.047852
509.343503	10826.722278
509.708398	10956.075765
510.073236	11060.835983
510.438016	11069.710934
510.802738	11019.327122
511.167403	11067.886037
511.532010	10972.547735
511.896561	11190.701147
512.261053	11266.986408
512.625488	11138.797427
512.989866	11116.210538
513.354186	11116.202976
513.718449	11016.050372
514.082655	11200.463342
514.446803	11096.913001
514.810894	11227.718340
515.174927	11089.734397
515.538904	11110.428334
515.902822	11266.348702
516.266684	11146.462502
516.630488	11090.956877
516.994235	11154.669500
517.357925	11205.910308
517.721558	11297.581171
518.085133	11316.548512
518.448651	11325.930099
518.812112	11205.446522
519.175516	11220.748945
519.538863	11352.789367
519.902152	11253.564336
520.265385	11419.377968
520.628560	11327.848258
520.991678	11314.353089
521.354739	11376.923891
521.717743	11311.189765
522.080690	11284.819490
522.443580	11417.222875
522.806413	11376.205527
523.169189	11408.867162
523.531908	11461.728702
523.894569	11284.053234
524.257174	11289.603545
524.619722	11403.551266
524.982213	11354.929337
525.344647	11409.177193
525.707025	11354.465551
526.069345	11452.495828
526.431608	11370.524146
526.793815	11479.365178
527.155964	11269.461614
527.518057	11319.668986
527.880093	11262.456931
528.242072	11332.783548
528.603995	11240.490103
528.965860	11167.705924
529.327669	11215.566639
529.689421	11162.190902
530.051117	11137.423713
530.412755	11236.883158
530.774337	11131.250820
531.135862	11109.427665
531.497331	11134.404062
531.858743	10984.840589
532.220098	11157.550520
532.581396	11023.271825
532.942638	11008.642397
533.303824	10970.203599
533.664953	10986.746145
534.026025	10895.208873
534.387040	11000.364822
534.747999	10999.858186
535.108902	11058.068390
535.469748	10815.286420
535.830537	10920.160064
536.191270	10904.076263
536.551947	10925.342371
536.912567	10924.258522
537.273131	10849.299085
537.633638	10826.417288
537.994089	10819.662142
538.354483	10764.116188
538.714821	10906.543908
539.075103	10917.624364
539.435328	10878.182376
539.795497	10708.408918
540.155609	10862.632937
540.515665	10954.729777
540.875665	10693.918121
541.235609	10764.847156
541.595496	10749.411142
541.955328	10909.225802
542.315102	10789.299272
542.674821	10743.802859
543.034483	10743.918805
543.394090	10749.355690
543.753640	10682.696513
544.113134	10894.815663
544.472571	10754.084292
544.831953	10892.128728
545.191278	10703.251817
545.550548	10727.744263
545.909761	10868.231139
546.268918	10839.471356
546.628019	10923.215004
546.987064	10792.018975
547.346053	10701.386590
547.704986	10801.435850
548.063863	10799.701693
548.422684	10791.867740
548.781449	10705.169976
549.140158	10807.359206
549.498811	10688.977790
549.857408	10545.035204
550.215949	10772.882755
550.574434	10627.606783
550.932864	10718.821421
551.291237	10780.510021
551.649555	10728.823070
552.007817	10738.625594
552.366022	10700.625376
552.724173	10696.050529
553.082267	10686.888232
553.440305	10820.771196
553.798288	10619.319126
554.156215	10776.734196
554.514086	10751.319219
554.871902	10602.211971
555.229661	10637.784873
555.587365	10612.863929
555.945014	10504.771508
556.302606	10630.470159
556.660143	10529.755467
557.017625	10674.431541
557.375050	10577.681716
557.732421	10709.611233
558.089735	10623.283994
558.446994	10625.270208
558.804197	10658.811526
559.161345	10656.212811
559.518437	10513.477581
559.875474	10594.798954
560.232455	10628.534356
560.589381	10588.963818
560.946251	10572.020500
561.303065	10686.984014
561.659825	10619.916503
562.016528	10547.704495
562.373177	10425.857286
562.729770	10547.013857
563.086307	10457.540938
563.442789	10553.408560
563.799216	10429.134036
564.155587	10482.867695
564.511904	10437.663668
564.868164	10426.255537
565.224370	10434.318862
565.580520	10359.815650
565.936615	10371.075067
566.292654	10238.921219
566.648638	10373.141940
567.004567	10322.891718
567.360441	10309.835130
567.716260	10225.763807
568.072023	10316.567591
568.427732	10263.285115
568.783385	10175.400160
569.138982	10248.804401
569.494525	10265.770404
569.850013	10142.672989
570.205445	10224.059897
570.560823	10122.553744
570.916145	10038.492504
571.271412	10112.635274
571.626625	10044.521724
571.981782	10031.951607
572.336884	9998.785855
572.691931	10007.396146
573.046923	9955.000914
573.401860	9908.309747
573.756743	9847.168112
574.111570	9896.589064
574.466342	9873.661896
574.821059	9906.709180
575.175722	9792.501840
575.530330	9803.148757
575.884882	9795.060226
576.239380	9724.849555
576.593823	9702.429024
576.948211	9722.565913
577.302544	9599.889434
577.656823	9616.263102
578.011047	9612.293193
578.365216	9590.263351
578.719330	9514.260395
579.073389	9524.892188
579.427394	9477.717070
579.781344	9443.081823
580.135239	9395.652127
580.489080	9404.915247
580.842866	9309.723139
581.196597	9309.889497
581.550273	9351.637813
581.903895	9321.063215
582.257463	9385.504284
582.610975	9271.992623
582.964434	9292.598339
583.317837	9216.008089
583.671186	9200.209113
584.024481	9190.598153
584.377721	9113.586966
584.730906	9090.458153
585.084037	9121.912432
585.437113	9058.063698
585.790135	9075.596831
586.143103	8979.819949
586.496016	8952.983367
586.848874	9007.374896
587.201679	8994.318308
587.554428	8881.920741
587.907124	8926.799613
588.259765	8901.485459
588.612352	8902.092918
588.964884	8780.331409
589.317362	8792.621742
589.669786	8793.856825
590.022155	8843.754166
590.374470	8854.020475
590.726731	8798.756826
591.078937	8648.293507
591.431090	8761.361547
591.783188	8631.375395
592.135232	8627.808779
592.487222	8626.009087
592.839157	8678.311058
593.191038	8607.462682
593.542866	8553.003097
593.894639	8457.576575
594.246358	8513.916511
594.598022	8530.509468
594.949633	8422.538035
595.301190	8399.235302
595.652692	8423.074918
596.004141	8535.056589
596.355535	8317.790420
596.706876	8296.864591
597.058162	8234.654232
597.409395	8305.812639
597.760573	8368.517031
598.111698	8280.062425
598.462768	8262.667923
598.813785	8227.768015
599.164748	8196.137296
599.515657	8187.252262
599.866511	8096.403108
600.217312	8224.564362
600.568060	8084.611849
600.918753	8190.402983
601.269392	8157.181779
601.619978	8072.719767
601.970510	8134.645301
602.320988	8127.444013
602.671412	8183.897374
603.021783	8126.702963
603.372100	8092.445802
603.722363	8100.761185
604.072572	8080.208401
604.422728	8088.304494
604.772830	8015.046447
605.122878	8026.157150
605.472872	8016.279009
605.822813	8046.359574
606.172701	7988.104000
606.522534	8071.124242
606.872314	8064.873211
607.222041	8032.045217
607.571714	8091.835822
607.921333	8045.157258
608.270899	8057.092190
608.620411	8145.574522
608.969870	8045.991569
609.319276	8044.769090
609.668627	8055.625214
610.017926	8091.767767
610.367171	8140.349367
610.716362	8114.959595
611.065500	8111.234182
611.414585	8133.692523
611.763616	8123.789176
612.112594	8106.999613
612.461518	8119.484031
612.810389	8184.514915
613.159207	8118.851366
613.507971	8070.869664
613.856682	8187.537087
614.205340	8144.949419
614.553945	8220.748209
614.902496	8122.239021
615.250994	8172.206938
615.599439	8160.297212
615.947830	8168.088316
616.296169	8139.714181
616.644454	8156.503744
616.992686	8156.236563
617.340864	8212.478196
617.688990	8114.147969
618.037063	8211.026343
618.385082	8153.915112
618.733048	8237.288234
619.080961	8183.342847
619.428821	8198.647790
619.776628	8204.503090
620.124382	8152.722879
620.472083	8132.127245
620.819731	8163.694950
621.167326	8056.532622
621.514868	8069.503511
621.862357	7946.501878
622.209793	7970.286042
622.557176	7900.955053
622.904506	7870.370372
623.251783	7812.611352
623.599007	7765.756348
623.946179	7764.594362
624.293297	7722.450316
624.640363	7644.340157
624.987376	7629.367930
625.334336	7573.189312
625.681243	7524.005294
626.028097	7509.655650
626.374899	7488.069429
626.721647	7482.980384
627.068343	7420.656599
627.414987	7382.863069
627.761577	7339.557037
628.108115	7378.951134
628.454600	7272.958353
628.801032	7320.118348
629.147412	7280.134436
629.493739	7272.978518
629.840014	7206.367232
630.186236	7266.246057
630.532405	7147.962944
630.878521	7200.232147
631.224585	7157.883935
631.570597	7084.693942
631.916556	7112.301822
632.262462	7110.078673
632.608316	7074.621717
632.954117	7047.550721
633.299866	7036.460183
633.645562	7028.618668
633.991206	6947.224198
634.336797	6890.838892
634.682336	6852.049734
635.027823	6813.000956
635.373257	6809.462066
635.718639	6739.568988
636.063968	6753.081801
636.409245	6646.221943
636.754470	6648.460215
637.099642	6607.309276
637.444762	6549.615791
637.789829	6560.759262
638.134845	6498.808522
638.479808	6480.015100
638.824719	6490.946842
639.169577	6419.483446
639.514383	6443.444050
639.859137	6369.210539
640.203839	6377.704883
640.548489	6361.656370
