Dividing Wavelength (nm)	Counts (n)	Blue Motor Position (mm): 48.900000	Red Motor Position (mm): 0.000000	
326.493990	2131.041924
326.888308	2131.041924
327.282561	2131.041924
327.676750	2095.816862
328.070874	2095.958014
328.464933	2098.402974
328.858929	2105.528645
329.252859	2116.997270
329.646726	2125.559669
330.040528	2139.412760
330.434265	2156.973620
330.827938	2171.232523
331.221547	2191.848322
331.615091	2209.822556
332.008571	2231.912892
332.401986	2250.398803
332.795338	2268.942688
333.188625	2289.132509
333.581847	2307.018523
333.975006	2324.980154
334.368100	2342.636795
334.761129	2359.015504
335.154095	2378.295397
335.546996	2400.466392
335.939833	2425.435227
336.332606	2439.255550
336.725315	2453.413630
337.117960	2459.931842
337.510540	2470.964407
337.903056	2481.172744
338.295508	2490.269506
338.687896	2495.540032
339.080220	2504.349449
339.472480	2513.736077
339.864676	2513.970491
340.256807	2521.401152
340.648875	2525.219826
341.040879	2526.220495
341.432818	2528.151257
341.824694	2531.317101
342.216506	2530.601258
342.608253	2530.276103
342.999937	2530.591175
343.391557	2530.586134
343.783113	2533.169725
344.174605	2525.681091
344.566033	2527.238808
344.957397	2526.175124
345.348697	2521.615401
345.739934	2521.368384
346.131106	2520.284536
346.522215	2518.018537
346.913260	2512.793382
347.304241	2517.128774
347.695159	2513.153824
348.086012	2513.907477
348.476802	2509.567043
348.867528	2509.463699
349.258191	2508.110150
349.648789	2504.465395
350.039324	2502.907679
350.429796	2503.273162
350.820203	2501.344921
351.210548	2500.918944
351.600828	2498.965497
351.991045	2500.896258
352.381198	2500.956752
352.771288	2502.348111
353.161314	2497.029693
353.551276	2498.060609
353.941175	2498.453819
354.331010	2498.947853
354.720782	2500.087153
355.110490	2499.754437
355.500135	2499.933398
355.889717	2498.547081
356.279235	2497.987513
356.668689	2499.076402
357.058080	2498.753768
357.447408	2497.392657
357.836672	2496.838130
358.225873	2501.843995
358.615010	2497.218737
359.004084	2504.528410
359.393095	2501.531444
359.782043	2505.309789
360.170927	2505.743328
360.559748	2503.124448
360.948505	2504.241064
361.337199	2504.621671
361.725830	2505.332474
362.114398	2509.317506
362.502903	2506.897752
362.891344	2505.082937
363.279722	2507.651405
363.668037	2510.197187
364.056289	2507.810201
364.444478	2510.179543
364.832603	2510.829852
365.220665	2510.449245
365.608665	2512.662312
365.996601	2512.309431
366.384474	2514.245234
366.772284	2515.283712
367.160031	2515.296314
367.547715	2515.442508
367.935336	2517.617766
368.322893	2519.316635
368.710388	2517.164062
369.097820	2527.311905
369.485189	2525.658406
369.872495	2528.993129
370.259738	2535.972607
370.646918	2538.780530
371.034035	2543.229348
371.421090	2553.256203
371.808081	2563.474622
372.195010	2566.368244
372.581875	2579.744946
372.968678	2593.222471
373.355418	2600.859819
373.742096	2615.136366
374.128710	2629.352420
374.515262	2641.804070
374.901751	2658.870897
375.288177	2671.866991
375.674540	2692.266020
376.060841	2710.136911
376.447079	2725.333469
376.833254	2747.895153
377.219367	2759.862852
377.605417	2795.445837
377.991404	2806.269194
378.377329	2831.749706
378.763191	2846.931141
379.148991	2885.259033
379.534727	2909.653177
379.920402	2940.804987
380.306013	2954.723613
380.691563	3005.969462
381.077049	3024.316742
381.462474	3046.182747
381.847835	3088.861155
382.233134	3112.783951
382.618371	3113.250257
383.003545	3178.775175
383.388657	3191.733461
383.773706	3225.705797
384.158693	3245.041142
384.543618	3273.107766
384.928480	3310.278714
385.313280	3358.300746
385.698017	3359.228318
386.082692	3415.094385
386.467305	3419.094541
386.851856	3455.373204
387.236344	3476.258705
387.620770	3508.209538
388.005133	3531.663506
388.389435	3563.579051
388.773674	3574.508273
389.157851	3620.738174
389.541965	3635.624701
389.926018	3597.455605
390.310008	3670.035617
390.693936	3689.101261
391.077802	3729.889237
391.461606	3722.448494
391.845348	3782.362607
392.229027	3784.492495
392.612645	3794.511788
392.996200	3874.277965
393.379694	3915.940581
393.763125	3978.982731
394.146494	3948.859316
394.529801	4008.700333
394.913047	4061.221594
395.296230	4023.581819
395.679351	4077.260025
396.062410	4102.236422
396.445408	4083.765634
396.828343	4116.230665
397.211217	4140.750837
397.594028	4058.968198
397.976778	4128.964619
398.359466	4148.587311
398.742092	4179.908000
399.124656	4105.419910
399.507158	4183.419163
399.889598	4208.496383
400.271977	4271.702370
400.654294	4242.647680
401.036549	4248.150099
401.418742	4219.334864
401.800874	4324.170699
402.182944	4345.721632
402.564952	4410.397115
402.946898	4395.566041
403.328783	4391.255854
403.710606	4305.026918
404.092367	4499.093697
404.474067	4464.103048
404.855705	4473.618226
405.237282	4401.726331
405.618797	4510.900079
406.000250	4539.412845
406.381642	4625.666987
406.762972	4588.571657
407.144240	4597.277729
407.525447	4593.088531
407.906593	4654.837624
408.287677	4699.343451
408.668700	4629.251248
409.049661	4678.417621
409.430560	4721.998396
409.811399	4648.629443
410.192176	4806.989729
410.572891	4748.298096
410.953545	4850.177294
411.334138	4733.116661
411.714669	4802.286333
412.095139	4692.336247
412.475547	4837.413093
412.855894	4816.734280
413.236180	4825.054704
413.616405	4780.175832
413.996568	4866.578688
414.376670	4806.929236
414.756711	4759.870064
415.136691	4795.359787
415.516609	4870.059605
415.896466	4906.779370
416.276262	4945.760092
416.655997	4919.321761
417.035670	5106.978713
417.415283	5196.539852
417.794834	5141.992047
418.174324	5088.762503
418.553753	5002.883927
418.933121	5189.908214
419.312428	5257.704171
419.691674	5195.120767
420.070859	5323.793698
420.449983	5237.252210
420.829045	5349.490980
421.208047	5253.179736
421.586988	5326.871323
421.965867	5337.901367
422.344686	5467.718641
422.723444	5322.568698
423.102141	5144.925998
423.480777	5439.649496
423.859352	5203.675605
424.237866	5474.047809
424.616319	5463.105985
424.994712	5569.048353
425.373044	5449.512513
425.751314	5590.243885
426.129524	5394.596704
426.507673	5583.579479
426.885762	5669.528632
427.263789	5603.423982
427.641756	5480.210620
428.019662	5607.409014
428.397508	5614.360765
428.775292	5557.055448
429.153016	5657.485315
429.530679	5584.945632
429.908282	5669.858827
430.285824	5541.926946
430.663305	5819.555891
431.040726	5552.268873
431.418086	5548.969438
431.795385	5656.451879
432.172624	5670.131050
432.549802	5665.349515
432.926920	5674.494168
433.303977	5680.795611
433.680974	5724.129369
434.057910	5741.980095
434.434786	5747.124593
434.811601	5712.007915
435.188355	5945.423420
435.565050	5821.965563
435.941683	5800.281039
436.318257	6019.699781
436.694770	6003.507595
437.071222	6038.528491
437.447614	5973.200178
437.823946	5884.130551
438.200218	6036.058325
438.576429	5902.152676
438.952580	6000.727398
439.328670	6048.366302
439.704700	5952.453309
440.080670	5937.881854
440.456580	6207.838163
440.832429	6093.378765
441.208218	5938.287667
441.583947	6094.838179
441.959616	6097.305824
442.335224	6025.534917
442.710773	6159.344784
443.086261	6188.099525
443.461689	5980.061188
443.837057	6131.278160
444.212365	6284.430934
444.587612	6177.424882
444.962800	6337.027813
445.337927	6314.158618
445.712995	5921.994658
446.088002	6504.184913
446.462949	6333.574622
446.837837	6261.927223
447.212664	6438.455828
447.587431	6581.864052
447.962139	7125.045858
448.336786	8052.141777
448.711374	7790.276520
449.085901	6860.546598
449.460369	6784.412573
449.834776	6717.743313
450.209124	7108.117664
450.583412	7260.693226
450.957640	7407.955412
451.331808	7170.272570
451.705917	6721.423355
452.079965	6647.242776
452.453954	6857.199272
452.827883	6731.732515
453.201752	6828.994017
453.575562	6622.936853
453.949311	6833.833524
454.323001	6720.778088
454.696632	6794.636032
455.070202	6929.159223
455.443713	7086.004642
455.817164	7190.800149
456.190556	7270.934330
456.563888	7347.080959
456.937160	7388.569655
457.310373	7045.088117
457.683526	7070.959319
458.056619	6961.200797
458.429653	6950.707635
458.802628	6885.296143
459.175542	6990.515106
459.548398	7350.937442
459.921194	7507.046853
460.293930	7513.922987
460.666607	8041.010909
461.039224	8350.615893
461.411782	8483.679670
461.784280	8495.170980
462.156719	8383.915235
462.529099	8266.259746
462.901419	7854.316818
463.273680	7740.144766
463.645882	7762.343487
464.018024	7627.865667
464.390106	7795.448744
464.762130	8183.708331
465.134094	8649.490782
465.505999	9670.911730
465.877845	10899.577033
466.249631	11551.960314
466.621358	11167.335399
466.993026	10533.206136
467.364634	10276.699626
467.736184	9911.762937
468.107674	9579.397143
468.479105	9615.390982
468.850477	9374.015495
469.221790	9152.413933
469.593043	8821.046288
469.964238	8679.926748
470.335373	8694.757823
470.706449	8751.695135
471.077467	8734.315757
471.448425	10041.902844
471.819324	11118.847061
472.190164	11143.644497
472.560945	9891.043795
472.931667	9095.889996
473.302330	8966.297054
473.672934	8612.793702
474.043479	8969.223444
474.413965	8909.936954
474.784393	8794.955796
475.154761	8946.737377
475.525070	9037.548722
475.895321	8864.211168
476.265513	9042.547026
476.635645	9215.022543
477.005719	9213.094302
477.375734	9323.576230
477.745691	9558.733454
478.115588	9697.428199
478.485427	9942.133368
478.855207	10486.749383
479.224928	11288.333174
479.594591	11926.152561
479.964194	11742.997360
480.333739	11675.781135
480.703226	11593.093609
481.072653	11683.335304
481.442022	11917.002867
481.811333	12111.714914
482.180584	11915.540932
482.549777	11628.495112
482.918912	11446.801845
483.287988	11461.746346
483.657005	11478.490538
484.025964	11169.457725
484.394864	11292.892897
484.763706	11264.765780
485.132489	11019.231340
485.501213	10978.140895
485.869879	11061.052753
486.238487	10894.664429
486.607036	11008.360092
486.975527	10789.596700
487.343959	10987.701444
487.712333	11039.746316
488.080648	10962.858638
488.448905	11004.107879
488.817104	10939.596233
489.185244	11210.966586
489.553326	11362.329751
489.921350	11910.086404
490.289315	12971.448414
490.657222	13314.491372
491.025070	13221.156929
491.392861	13099.796191
491.760593	12712.781769
492.128267	12356.614168
492.495883	12033.264478
492.863440	11691.746469
493.230939	11350.843482
493.598380	11283.123141
493.965763	11157.979018
494.333088	11057.347505
494.700354	10978.163581
495.067563	11041.140195
495.434713	10872.490914
495.801805	10992.724953
496.168839	10922.000086
496.535815	10863.613442
496.902733	10857.231341
497.269593	10787.118973
497.636395	10889.651001
498.003139	10883.137831
498.369825	10749.953067
498.736453	10902.982333
499.103023	10831.718061
499.469535	10863.258040
499.835989	10846.050062
500.202385	10810.668723
500.568723	10659.857565
500.935003	10894.523277
501.301226	10690.543068
501.667390	10953.184663
502.033497	11051.812318
502.399546	10899.745912
502.765537	10817.953191
503.131470	10885.907945
503.497345	11056.351877
503.863163	10675.175111
504.228923	10982.110804
504.594625	11050.693182
504.960269	10797.675149
505.325856	11011.568787
505.691385	10810.759464
506.056856	10960.612803
506.422270	10985.644653
506.787625	10875.046779
507.152924	10990.516928
507.518164	10972.283075
507.883347	10896.149049
508.248472	10813.680813
508.613540	11045.566328
508.978550	10927.898236
509.343503	10905.699515
509.708398	11026.795592
510.073236	11141.141564
510.438016	11139.467901
510.802738	11093.767321
511.167403	11146.490228
511.532010	11043.360823
511.896561	11276.050402
512.261053	11347.992709
512.625488	11218.440096
512.989866	11197.511746
513.354186	11186.201917
513.718449	11089.721795
514.082655	11278.757502
514.446803	11178.635146
514.810894	11300.479834
515.174927	11160.393730
515.538904	11189.861795
515.902822	11334.621048
516.266684	11221.948739
516.630488	11164.356077
516.994235	11220.201980
517.357925	11279.967379
517.721558	11370.440967
518.085133	11391.533155
518.448651	11402.268292
518.812112	11281.356217
519.175516	11289.769903
519.538863	11419.446024
519.902152	11337.620535
520.265385	11495.355718
520.628560	11404.945145
520.991678	11387.157433
521.354739	11443.197420
521.717743	11379.389015
522.080690	11362.551561
522.443580	11494.879329
522.806413	11444.787904
523.169189	11480.227216
523.531908	11545.129551
523.894569	11357.848165
524.257174	11362.975018
524.619722	11483.428348
524.982213	11428.986407
525.344647	11486.879018
525.707025	11427.915162
526.069345	11520.480829
526.431608	11440.744899
526.793815	11549.321270
527.155964	11333.262457
527.518057	11396.755790
527.880093	11338.875782
528.242072	11402.916080
528.603995	11313.748151
528.965860	11239.376008
529.327669	11286.863677
529.689421	11240.646379
530.051117	11203.374608
530.412755	11316.704788
530.774337	11198.817405
531.135862	11175.310505
531.497331	11206.782428
531.858743	11062.010572
532.220098	11227.012578
532.581396	11092.365880
532.942638	11077.524723
533.303824	11035.552076
533.664953	11052.850795
534.026025	10967.793927
534.387040	11065.819164
534.747999	11069.602550
535.108902	11131.775100
535.469748	10881.693540
535.830537	10992.858544
536.191270	10973.689557
536.551947	10989.453245
536.912567	10996.205870
537.273131	10912.832747
537.633638	10894.462783
537.994089	10885.542461
538.354483	10829.656229
538.714821	10974.937242
539.075103	10987.451907
539.435328	10944.980185
539.795497	10775.541963
540.155609	10932.881416
540.515665	11022.384582
540.875665	10758.424726
541.235609	10826.853348
541.595496	10824.055507
541.955328	10974.092849
542.315102	10859.053718
542.674821	10811.193003
543.034483	10811.170318
543.394090	10813.796759
543.753640	10739.631304
544.113134	10972.857766
544.472571	10819.591566
544.831953	10962.861158
545.191278	10771.594740
545.550548	10797.173555
545.909761	10934.615573
546.268918	10911.433827
546.628019	10994.189409
546.987064	10860.079593
547.346053	10787.053438
547.704986	10878.772191
548.063863	10868.853721
548.422684	10856.686896
548.781449	10777.954156
549.140158	10878.227747
549.498811	10752.508932
549.857408	10605.581982
550.215949	10835.115799
550.574434	10686.220279
550.932864	10787.854982
551.291237	10853.868891
551.649555	10799.278236
552.007817	10807.883486
552.366022	10772.459298
552.724173	10762.336661
553.082267	10747.200597
553.440305	10888.937678
553.798288	10688.088027
554.156215	10835.947589
554.514086	10815.283900
554.871902	10665.496096
555.229661	10702.999760
555.587365	10675.762405
555.945014	10568.438761
556.302606	10698.503050
556.660143	10591.096227
557.017625	10749.098591
557.375050	10641.994236
557.732421	10776.988775
558.089735	10688.193891
558.446994	10689.073572
558.804197	10734.063350
559.161345	10736.805737
559.518437	10577.192724
559.875474	10657.321865
560.232455	10695.866527
560.589381	10641.558177
560.946251	10643.471294
561.303065	10747.268652
561.659825	10690.308655
562.016528	10617.494229
562.373177	10503.322176
562.729770	10615.916348
563.086307	10528.401917
563.442789	10618.573036
563.799216	10497.103913
564.155587	10549.385720
564.511904	10500.995684
564.868164	10491.372121
565.224370	10509.059009
565.580520	10431.558831
565.936615	10435.503534
566.292654	10308.524430
566.648638	10433.474469
567.004567	10389.878571
567.360441	10378.427590
567.716260	10287.336460
568.072023	10383.778775
568.427732	10330.544190
568.783385	10235.556249
569.138982	10312.015429
569.494525	10328.182409
569.850013	10206.355365
570.205445	10286.555082
570.560823	10182.843423
570.916145	10098.953582
571.271412	10171.662144
571.626625	10112.506724
571.981782	10089.549310
572.336884	10064.041071
572.691931	10067.814375
573.046923	10014.915027
573.401860	9969.950455
573.756743	9908.834027
574.111570	9949.183422
574.466342	9933.760012
574.821059	9963.903591
575.175722	9843.808183
575.530330	9860.562458
575.884882	9857.678918
576.239380	9778.948698
576.593823	9763.457232
576.948211	9770.550136
577.302544	9656.075614
577.656823	9675.539509
578.011047	9671.204117
578.365216	9652.521601
578.719330	9573.388088
579.073389	9583.485519
579.427394	9534.805617
579.781344	9508.828551
580.135239	9451.772772
580.489080	9466.624011
580.842866	9361.710038
581.196597	9371.734372
581.550273	9408.791894
581.903895	9383.155107
582.257463	9452.223955
582.610975	9326.240480
582.964434	9351.647895
583.317837	9272.869784
583.671186	9256.811188
584.024481	9246.141586
584.377721	9163.474225
584.730906	9145.865474
585.084037	9179.074075
585.437113	9109.647305
585.790135	9135.049679
586.143103	9027.683184
586.496016	9009.749279
586.848874	9065.191889
587.201679	9047.247902
587.554428	8938.951315
587.907124	8984.604004
588.259765	8948.723592
588.612352	8952.103685
588.964884	8831.415942
589.317362	8844.442283
589.669786	8840.071603
590.022155	8893.359119
590.374470	8910.665401
590.726731	8846.468827
591.078937	8693.762195
591.431090	8811.732756
591.783188	8681.265174
592.135232	8678.142179
592.487222	8678.195112
592.839157	8734.368689
593.191038	8664.067278
593.542866	8606.835058
593.894639	8505.681786
594.246358	8558.606339
594.598022	8571.541940
594.949633	8468.599058
595.301190	8447.451418
595.652692	8478.051222
596.004141	8591.391483
596.355535	8369.222792
596.706876	8343.696910
597.058162	8279.787682
597.409395	8359.001853
597.760573	8421.058457
598.111698	8326.204106
598.462768	8311.405799
598.813785	8280.006972
599.164748	8242.755366
599.515657	8235.596927
599.866511	8149.713310
600.217312	8271.522710
600.568060	8131.855022
600.918753	8237.179850
601.269392	8203.119294
601.619978	8114.901622
601.970510	8184.565327
602.320988	8171.297010
602.671412	8232.496618
603.021783	8169.867843
603.372100	8135.845096
603.722363	8140.646795
604.072572	8120.971171
604.422728	8130.400649
604.772830	8059.852222
605.122878	8066.166267
605.472872	8059.065802
605.822813	8090.126871
606.172701	8031.936833
606.522534	8109.840303
606.872314	8106.651774
607.222041	8076.634223
607.571714	8133.064899
607.921333	8087.313907
608.270899	8096.269517
608.620411	8189.946759
608.969870	8093.617870
609.319276	8086.746778
609.668627	8101.517358
610.017926	8133.828634
610.367171	8183.637755
610.716362	8155.621542
611.065500	8155.374526
611.414585	8182.105244
611.763616	8170.397164
612.112594	8148.062332
612.461518	8164.889703
612.810389	8226.348931
613.159207	8161.993561
613.507971	8117.943958
613.856682	8227.636945
614.205340	8187.090945
614.553945	8271.318543
614.902496	8166.016401
615.250994	8217.463897
615.599439	8203.147020
615.947830	8214.222435
616.296169	8185.339144
616.644454	8201.420425
616.992686	8198.352883
617.340864	8255.350689
617.688990	8157.547263
618.037063	8253.664423
618.385082	8197.664765
618.733048	8280.876571
619.080961	8224.748364
619.428821	8239.619768
619.776628	8245.485151
620.124382	8191.007922
620.472083	8175.844131
620.819731	8211.205304
621.167326	8097.683561
621.514868	8108.728729
621.862357	7992.066347
622.209793	8007.462031
622.557176	7950.466745
622.904506	7911.496105
623.251783	7850.014193
623.599007	7809.112791
623.946179	7808.744787
624.293297	7767.921523
624.640363	7688.041920
624.987376	7666.203642
625.334336	7607.070907
625.681243	7557.435706
626.028097	7548.417082
626.374899	7524.166611
626.721647	7514.565734
627.068343	7448.382946
627.414987	7423.530057
627.761577	7380.949951
628.108115	7409.639158
628.454600	7305.312479
628.801032	7355.615633
629.147412	7315.866134
629.493739	7307.223076
629.840014	7241.713282
630.186236	7303.109495
630.532405	7186.923501
630.878521	7242.517346
631.224585	7188.710590
631.570597	7117.295084
631.916556	7147.007645
632.262462	7145.545711
632.608316	7103.542817
632.954117	7081.704538
633.299866	7068.509318
633.645562	7059.752834
633.991206	6982.373643
634.336797	6927.301558
634.682336	6880.572582
635.027823	6849.224167
635.373257	6844.198137
635.718639	6769.541169
636.063968	6784.891482
636.409245	6678.064391
636.754470	6673.108937
637.099642	6638.453525
637.444762	6580.170224
637.789829	6592.843685
638.134845	6532.944695
638.479808	6514.978023
638.824719	6521.897007
639.169577	6443.139060
639.514383	6472.856662
639.859137	6395.321195
640.203839	6403.152628
640.548489	6392.596452
