Dividing Wavelength (nm)	Counts (n)	Blue Motor Position (mm): 27.500000	Red Motor Position (mm): 0.000000	
326.493990	2098.397933
326.888308	2098.397933
327.282561	2098.397933
327.676750	2076.050498
328.070874	2077.129304
328.464933	2082.782958
328.858929	2093.142530
329.252859	2108.873450
329.646726	2126.189814
330.040528	2137.749179
330.434265	2158.256593
330.827938	2176.644202
331.221547	2196.075329
331.615091	2218.873948
332.008571	2236.938923
332.401986	2258.545308
332.795338	2280.585233
333.188625	2298.569549
333.581847	2317.075625
333.975006	2335.523727
334.368100	2353.475276
334.761129	2371.078985
335.154095	2388.750750
335.546996	2427.519744
335.939833	2508.465551
336.332606	2521.217150
336.725315	2532.789118
337.117960	2540.144162
337.510540	2546.979966
337.903056	2555.859959
338.295508	2564.014025
338.687896	2572.029460
339.080220	2578.721592
339.472480	2583.583784
339.864676	2584.327355
340.256807	2589.335741
340.648875	2590.631317
341.040879	2592.841863
341.432818	2594.608788
341.824694	2593.908067
342.216506	2593.172059
342.608253	2594.661720
342.999937	2590.696852
343.391557	2590.500247
343.783113	2591.584096
344.174605	2587.876327
344.566033	2590.457398
344.957397	2585.940524
345.348697	2584.145873
345.739934	2583.359453
346.131106	2580.458269
346.522215	2578.093968
346.913260	2577.128587
347.304241	2574.895356
347.695159	2572.062227
348.086012	2575.923751
348.476802	2569.307237
348.867528	2570.224727
349.258191	2568.377144
349.648789	2570.202042
350.039324	2564.560990
350.429796	2567.162226
350.820203	2565.642318
351.210548	2562.103428
351.600828	2565.912020
351.991045	2563.613253
352.381198	2560.817934
352.771288	2562.920095
353.161314	2562.542008
353.551276	2560.636452
353.941175	2562.065619
354.331010	2562.625187
354.720782	2567.391598
355.110490	2565.924622
355.500135	2561.904302
355.889717	2563.993861
356.279235	2563.378840
356.668689	2566.219530
357.058080	2565.632236
357.447408	2562.652914
357.836672	2563.159550
358.225873	2563.711556
358.615010	2559.688715
359.004084	2565.750703
359.393095	2569.392936
359.782043	2566.690878
360.170927	2568.906465
360.559748	2566.973182
360.948505	2567.056362
361.337199	2573.083061
361.725830	2570.819583
362.114398	2575.046590
362.502903	2573.859399
362.891344	2573.314954
363.279722	2572.904100
363.668037	2574.802094
364.056289	2575.217990
364.444478	2573.171281
364.832603	2575.127249
365.220665	2577.335274
365.608665	2575.555747
365.996601	2576.130438
366.384474	2576.987435
366.772284	2574.976014
367.160031	2578.792168
367.547715	2577.849472
367.935336	2578.656057
368.322893	2578.071283
368.710388	2578.676221
369.097820	2580.768300
369.485189	2580.347364
369.872495	2582.641089
370.259738	2582.366346
370.646918	2578.862744
371.034035	2578.131777
371.421090	2580.687642
371.808081	2582.532704
372.195010	2581.690831
372.581875	2583.442632
372.968678	2584.786100
373.355418	2583.114957
373.742096	2584.397931
374.128710	2585.754001
374.515262	2587.049578
374.901751	2584.826429
375.288177	2588.027562
375.674540	2584.448342
376.060841	2584.962540
376.447079	2588.506471
376.833254	2585.431367
377.219367	2584.004721
377.605417	2586.414392
377.991404	2587.268868
378.377329	2588.100658
378.763191	2585.370873
379.148991	2591.140474
379.534727	2591.246338
379.920402	2591.349682
380.306013	2589.978488
380.691563	2591.682398
381.077049	2591.412696
381.462474	2590.109558
381.847835	2591.185844
382.233134	2593.454364
382.618371	2594.006370
383.003545	2592.315063
383.388657	2593.265320
383.773706	2597.101638
384.158693	2593.340938
384.543618	2597.076433
384.928480	2593.265320
385.313280	2595.664910
385.698017	2595.422934
386.082692	2596.249683
386.467305	2596.161463
386.851856	2597.774632
387.236344	2599.919643
387.620770	2599.627257
388.005133	2598.417380
388.389435	2599.884355
388.773674	2599.100456
389.157851	2600.421238
389.541965	2603.743359
389.926018	2602.747731
390.310008	2603.203955
390.693936	2603.272011
391.077802	2605.984152
391.461606	2606.412650
391.845348	2601.258070
392.229027	2602.828389
392.612645	2603.536671
392.996200	2604.365941
393.379694	2607.345263
393.763125	2606.452979
394.146494	2605.283431
394.529801	2606.110180
394.913047	2609.636467
395.296230	2610.397682
395.679351	2607.567074
396.062410	2606.339553
396.445408	2608.623196
396.828343	2611.428598
397.211217	2605.714450
397.594028	2608.482043
397.976778	2605.583380
398.359466	2607.781323
398.742092	2605.283431
399.124656	2609.873402
399.507158	2612.063783
399.889598	2612.303238
400.271977	2612.187291
400.654294	2614.009668
401.036549	2612.207456
401.418742	2612.943464
401.800874	2616.106788
402.182944	2615.726181
402.564952	2617.109978
402.946898	2618.844135
403.328783	2616.315996
403.710606	2619.209619
404.092367	2618.153497
404.474067	2619.943107
404.855705	2620.558127
405.237282	2619.857407
405.618797	2623.834877
406.000250	2623.199692
406.381642	2622.153652
406.762972	2622.211626
407.144240	2624.084414
407.525447	2624.268417
407.906593	2625.077522
408.287677	2622.279681
408.668700	2624.036523
409.049661	2627.308232
409.430560	2625.054837
409.811399	2627.439302
410.192176	2628.235805
410.572891	2626.098355
410.953545	2628.233284
411.334138	2627.131792
411.714669	2626.410907
412.095139	2628.167749
412.475547	2631.865435
412.855894	2628.918881
413.236180	2627.845115
413.616405	2629.183542
413.996568	2629.516258
414.376670	2634.073461
414.756711	2631.676392
415.136691	2633.604633
415.516609	2630.375774
415.896466	2632.583800
416.276262	2635.381640
416.655997	2634.007926
417.035670	2632.122534
417.415283	2635.674027
417.794834	2633.980199
418.174324	2631.658748
418.553753	2637.355252
418.933121	2639.603607
419.312428	2641.531848
419.691674	2640.949595
420.070859	2638.318112
420.449983	2638.509676
420.829045	2641.640233
421.208047	2642.454379
421.586988	2644.155768
421.965867	2646.610810
422.344686	2643.598721
422.723444	2646.905718
423.102141	2646.497384
423.480777	2647.069555
423.859352	2646.250368
424.237866	2650.845380
424.616319	2650.616007
424.994712	2652.088024
425.373044	2652.234217
425.751314	2654.964002
426.129524	2652.133394
426.507673	2656.597336
426.885762	2658.823006
427.263789	2662.659324
427.641756	2657.643376
428.019662	2661.386432
428.397508	2664.159067
428.775292	2668.229799
429.153016	2668.817093
429.530679	2668.648214
429.908282	2671.735921
430.285824	2674.831190
430.663305	2673.031498
431.040726	2674.390089
431.418086	2676.517456
431.795385	2678.639781
432.172624	2684.353929
432.549802	2686.125895
432.926920	2686.251924
433.303977	2690.433561
433.680974	2695.376412
434.057910	2695.154601
434.434786	2699.270703
434.811601	2703.976621
435.188355	2709.279914
435.565050	2713.380893
435.941683	2715.500698
436.318257	2724.292471
436.694770	2724.287429
437.071222	2736.267732
437.447614	2733.842937
437.823946	2741.351735
438.200218	2751.287849
438.576429	2757.793458
438.952580	2769.430962
439.328670	2780.597118
439.704700	2792.756381
440.080670	2798.699901
440.456580	2815.134063
440.832429	2834.217351
441.208218	2839.334122
441.583947	2860.900178
441.959616	2877.213352
442.335224	2903.553381
442.710773	2925.275713
443.086261	2957.055147
443.461689	2974.376551
443.837057	3002.249091
444.212365	3045.179557
444.587612	3077.175760
444.962800	3105.554936
445.337927	3152.180568
445.712995	3157.897236
446.088002	3250.389807
446.462949	3305.371151
446.837837	3362.852908
447.212664	3419.248296
447.587431	3601.546501
447.962139	3797.791059
448.336786	3974.259170
448.711374	3974.833861
449.085901	3878.857854
449.460369	3960.963126
449.834776	4057.365111
450.209124	4312.969255
450.583412	4387.820308
450.957640	4514.353269
451.331808	4531.049571
451.705917	4540.542063
452.079965	4652.193539
452.453954	4798.951610
452.827883	4915.382099
453.201752	5021.087533
453.575562	5157.329757
453.949311	5409.765536
454.323001	5568.803857
454.696632	5691.452610
455.070202	6034.616555
455.443713	6220.420883
455.817164	6464.541279
456.190556	6714.743826
456.563888	6808.526932
456.937160	7036.921448
457.310373	6957.185518
457.683526	7205.878240
458.056619	7396.096098
458.429653	7590.845953
458.802628	7899.707367
459.175542	8132.432234
459.548398	8619.954661
459.921194	9193.355664
460.293930	9615.426270
460.666607	10338.307567
461.039224	11028.123936
461.411782	11394.179761
461.784280	11344.045486
462.156719	11464.347581
462.529099	11583.538102
462.901419	11499.484423
463.273680	11468.635082
463.645882	11763.787078
464.018024	12034.512163
464.390106	12612.437602
464.762130	13875.120612
465.134094	15665.282233
465.505999	17984.419690
465.877845	20122.176431
466.249631	20971.540278
466.621358	20658.338431
466.993026	20211.009123
467.364634	19770.256002
467.736184	19348.329069
468.107674	19203.360607
468.479105	19234.167099
468.850477	19281.546383
469.221790	19005.422222
469.593043	18534.379327
469.964238	18461.292679
470.335373	18763.605634
470.706449	20039.758607
471.077467	21791.531842
471.448425	24562.429780
471.819324	26385.991566
472.190164	25624.482428
472.560945	24049.555390
472.931667	22698.901726
473.302330	22455.033388
473.672934	22321.616731
474.043479	22948.015384
474.413965	22808.171256
474.784393	22886.601527
475.154761	23761.208952
475.525070	24095.618934
475.895321	24103.818370
476.265513	24808.896833
476.635645	25762.194148
477.005719	25962.509438
477.375734	26596.464781
477.745691	27386.794195
478.115588	28634.139494
478.485427	30390.996733
478.855207	33143.191990
479.224928	35398.243779
479.594591	36953.719524
479.964194	36511.494385
480.333739	37041.370066
480.703226	37470.228586
481.072653	38345.718212
481.442022	39053.440760
481.811333	39591.389848
482.180584	38851.547589
482.549777	38764.219681
482.918912	38639.332656
483.287988	38704.527378
483.657005	38341.052624
484.025964	38096.105480
484.394864	38416.753111
484.763706	38351.167700
485.132489	37888.639314
485.501213	38022.797020
485.869879	38418.701517
486.238487	38327.696087
486.607036	38735.918643
486.975527	38499.831327
487.343959	38920.772714
487.712333	39228.462059
488.080648	39365.639417
488.448905	40010.718066
488.817104	40074.680226
489.185244	41195.548017
489.553326	43001.284283
489.921350	45747.997285
490.289315	48712.064677
490.657222	49470.743207
491.025070	49928.474935
491.392861	49195.390343
491.760593	48161.789967
492.128267	46753.901562
492.495883	45485.408623
492.863440	44342.349673
493.230939	43227.503541
493.598380	42369.980587
493.965763	42215.900240
494.333088	41598.328647
494.700354	41275.510799
495.067563	41122.156378
495.434713	41134.545014
495.801805	41320.319095
496.168839	41073.547052
496.535815	40892.718343
496.902733	41028.509384
497.269593	40738.481721
497.636395	40770.944231
498.003139	41271.687084
498.369825	40833.467142
498.736453	41218.087015
499.103023	40856.207787
499.469535	40820.990286
499.835989	41001.975271
500.202385	40761.436615
500.568723	40842.420231
500.935003	41117.047169
501.301226	40977.145067
501.667390	41668.423371
502.033497	41991.647032
502.399546	41476.990595
502.765537	40871.971475
503.131470	41305.561117
503.497345	41718.908006
503.863163	40433.050812
504.228923	41114.055244
504.594625	41592.395209
504.960269	40886.739535
505.325856	41644.387149
505.691385	41059.527603
506.056856	41222.233364
506.422270	41705.269164
506.787625	41310.342651
507.152924	41546.803014
507.518164	41685.956504
507.883347	40910.609398
508.248472	41192.969466
508.613540	41726.562998
508.978550	42049.133830
509.343503	41834.668022
509.708398	42060.635222
510.073236	42629.978097
510.438016	42647.299501
510.802738	42106.802109
511.167403	42768.302317
511.532010	43007.205118
511.896561	43339.870861
512.261053	44230.103342
512.625488	43779.109116
512.989866	43677.469372
513.354186	43534.353535
513.718449	43538.169688
514.082655	44242.038273
514.446803	43917.231690
514.810894	44469.779960
515.174927	44395.370009
515.538904	44282.675015
515.902822	44994.254045
516.266684	44447.777844
516.630488	44871.965735
516.994235	44726.311677
517.357925	45331.850035
517.721558	45515.317788
518.085133	45835.534401
518.448651	45964.492158
518.812112	45732.208392
519.175516	45852.092071
519.538863	46195.084617
519.902152	46179.119283
520.265385	46645.708318
520.628560	46685.220882
520.991678	46481.805283
521.354739	46703.064046
521.717743	47029.506484
522.080690	46928.005372
522.443580	47485.136051
522.806413	47526.556692
523.169189	47497.025612
523.531908	47674.454063
523.894569	47526.004685
524.257174	47703.939772
524.619722	48007.996966
524.982213	47985.674737
525.344647	47901.885719
525.707025	47949.605281
526.069345	48351.811220
526.431608	48273.935476
526.793815	48610.908884
527.155964	48133.604876
527.518057	48309.125250
527.880093	48096.648177
528.242072	48631.055855
528.603995	48316.984409
528.965860	48321.622270
529.327669	48413.837577
529.689421	48319.323504
530.051117	48292.597827
530.412755	48446.504254
530.774337	48520.412611
531.135862	48309.064756
531.497331	48489.681737
531.858743	48403.417512
532.220098	48734.618799
532.581396	48455.868197
532.942638	48105.097151
533.303824	48435.960681
533.664953	48400.460875
534.026025	48107.889950
534.387040	48598.172409
534.747999	48544.547135
535.108902	48688.850163
535.469748	48207.780414
535.830537	48335.866051
536.191270	48515.308442
536.551947	48167.917490
536.912567	48472.239344
537.273131	48615.894585
537.633638	48107.227038
537.994089	48434.481102
538.354483	48017.494500
538.714821	48593.216954
539.075103	48940.290314
539.435328	48700.580928
539.795497	48580.248586
540.155609	48550.208350
540.515665	49034.373369
540.875665	48483.644955
541.235609	48799.044745
541.595496	48789.990833
541.955328	49471.937961
542.315102	48824.303447
542.674821	48581.357640
543.034483	48630.471081
543.394090	48598.295917
543.753640	48557.520544
544.113134	49566.066385
544.472571	48546.122495
544.831953	49805.843827
545.191278	48996.904993
545.550548	48722.494824
545.909761	49184.214105
546.268918	49382.830525
546.628019	49705.164423
546.987064	49232.891487
547.346053	48481.719234
547.704986	49372.483557
548.063863	48936.862330
548.422684	49096.505590
548.781449	48931.274211
549.140158	49328.416311
549.498811	49161.294499
549.857408	48582.910315
550.215949	49426.605385
550.574434	49361.879490
550.932864	49102.111353
551.291237	49839.430514
551.649555	49433.461354
552.007817	49660.429224
552.366022	49285.100196
552.724173	49457.558069
553.082267	49858.075222
553.440305	50124.578341
553.798288	49409.800698
554.156215	49740.828066
554.514086	49934.420976
554.871902	49675.661070
555.229661	49691.460046
555.587365	49491.326238
555.945014	49606.231779
556.302606	49510.873313
556.660143	49752.057236
557.017625	49807.953550
557.375050	49584.214539
557.732421	49942.237285
558.089735	49899.979813
558.446994	49831.793166
558.804197	50280.259254
559.161345	50207.724612
559.518437	49438.875553
559.875474	49753.667885
560.232455	49916.834911
560.589381	50082.335992
560.946251	49778.684611
561.303065	50437.465116
561.659825	50222.921170
562.016528	49891.422455
562.373177	49598.223906
562.729770	50095.049782
563.086307	49599.625347
563.442789	50047.398275
563.799216	50082.278019
564.155587	49870.105936
564.511904	49879.789992
564.868164	49951.160128
565.224370	50202.202028
565.580520	49915.420867
565.936615	50136.049486
566.292654	49850.163131
566.648638	50092.768660
567.004567	50028.685512
567.360441	50085.093503
567.716260	49938.524476
568.072023	50218.467310
568.427732	50185.646878
568.783385	49716.028109
569.138982	50085.829512
569.494525	50045.643954
569.850013	49806.436163
570.205445	49764.203896
570.560823	49714.944261
570.916145	49596.146950
571.271412	49629.179111
571.626625	49351.159476
571.981782	49386.603829
572.336884	49072.870140
572.691931	49388.625332
573.046923	48984.483590
573.401860	48816.184668
573.756743	48784.269123
574.111570	48890.607223
574.466342	48721.552128
574.821059	48819.942849
575.175722	48348.100931
575.530330	48364.850165
575.884882	48043.489210
576.239380	48008.624590
576.593823	47976.635948
576.948211	47887.689830
577.302544	47402.846776
577.656823	47398.239162
578.011047	47645.386770
578.365216	47350.050772
578.719330	47107.719986
579.073389	46948.938763
579.427394	47037.317752
579.781344	46986.540730
580.135239	46614.609440
580.489080	46679.350458
580.842866	46157.185223
581.196597	46604.247348
581.550273	46544.809624
581.903895	46398.462407
582.257463	46798.215825
582.610975	46162.942220
582.964434	46441.153419
583.317837	46066.804896
583.671186	45893.001035
584.024481	46110.501617
584.377721	45611.820597
584.730906	45893.921045
585.084037	45954.949254
585.437113	45643.998282
585.790135	45665.206416
586.143103	45237.898051
586.496016	45363.546290
586.848874	45377.923661
587.201679	45367.138112
587.554428	44838.981465
587.907124	45034.406835
588.259765	44776.783709
588.612352	45018.769176
588.964884	44376.805960
589.317362	44676.547926
589.669786	44594.634217
590.022155	44365.707860
590.374470	44796.257686
590.726731	44296.157581
591.078937	43801.794308
591.431090	43895.340479
591.783188	43526.796845
592.135232	43199.537740
592.487222	43468.097650
592.839157	43540.423084
593.191038	43175.884647
593.542866	42920.356120
593.894639	42311.636793
594.246358	42617.171045
594.598022	42566.895618
594.949633	42163.389061
595.301190	42104.047119
595.652692	41942.851183
596.004141	42274.314610
596.355535	41272.758329
596.706876	41210.633669
597.058162	41039.254603
597.409395	41496.764521
597.760573	41581.440782
598.111698	41158.820690
598.462768	41159.715495
598.813785	41206.996477
599.164748	40627.599021
599.515657	41022.041583
599.866511	40500.382983
600.217312	41127.159723
600.568060	40062.024410
600.918753	40836.557369
601.269392	40758.787488
601.619978	40411.058778
601.970510	40616.226178
602.320988	40811.976703
602.671412	41108.751950
603.021783	40860.956553
603.372100	40506.240804
603.722363	40603.560279
604.072572	40680.909223
604.422728	40678.446620
604.772830	40511.027380
605.122878	40606.532039
605.472872	40524.625892
605.822813	40798.572275
606.172701	40627.714968
606.522534	40871.767308
606.872314	41134.323203
607.222041	40881.438762
607.571714	41275.425099
607.921333	40701.512419
608.270899	40982.408032
608.620411	41351.042407
608.969870	41123.696451
609.319276	41142.625983
609.668627	41180.800121
610.017926	41660.690241
610.367171	41808.539721
610.716362	41886.980075
611.065500	41832.064266
611.414585	42019.007894
611.763616	42339.216946
612.112594	42244.400403
612.461518	42466.561533
612.810389	42774.765076
613.159207	42642.540652
613.507971	42717.227867
613.856682	43180.814895
614.205340	43066.332812
614.553945	43776.402016
614.902496	43215.636665
615.250994	43700.399060
615.599439	43763.226961
615.947830	43957.969254
616.296169	44033.329463
616.644454	44135.163291
616.992686	44293.977282
617.340864	44825.821533
617.688990	44528.254824
618.037063	45149.745914
618.385082	45100.607267
618.733048	45396.260858
619.080961	45414.262818
619.428821	45415.477737
619.776628	45518.418098
620.124382	45376.247477
620.472083	45497.293143
620.819731	45649.493139
621.167326	45306.195603
621.514868	45298.134798
621.862357	44851.173496
622.209793	44899.845836
622.557176	44552.379266
622.904506	44303.076564
623.251783	43944.653046
623.599007	43723.018717
623.946179	43502.740459
624.293297	43455.043582
624.640363	42849.303577
624.987376	42844.617824
625.334336	42597.238323
625.681243	42239.427305
626.028097	42200.262581
626.374899	42050.063923
626.721647	42017.051927
627.068343	41913.766246
627.414987	41676.302694
627.761577	41433.435025
628.108115	41776.392283
628.454600	41215.596685
628.801032	41396.634602
629.147412	41358.359642
629.493739	41352.516944
629.840014	40995.406647
630.186236	41350.319001
630.532405	40924.341501
630.878521	41130.431432
631.224585	41004.115240
631.570597	40698.618797
631.916556	40860.091996
632.262462	40816.133134
632.608316	40830.084527
632.954117	40731.169527
633.299866	40718.032280
633.645562	40657.409885
633.991206	40171.561121
634.336797	39714.169671
634.682336	39713.950381
635.027823	39475.259308
635.373257	39290.095206
635.718639	39045.155623
636.063968	38901.223119
636.409245	38326.440840
636.754470	38368.610092
637.099642	38121.071794
