Dividing Wavelength (nm)	Counts (n)	Blue Motor Position (mm): 23.000000	Red Motor Position (mm): 0.000000	
326.493990	2102.158633
326.888308	2102.158633
327.282561	2102.158633
327.676750	2078.485375
328.070874	2079.556620
328.464933	2087.269585
328.858929	2097.339290
329.252859	2107.958481
329.646726	2125.978085
330.040528	2139.072482
330.434265	2158.314567
330.827938	2179.807526
331.221547	2197.945598
331.615091	2218.747919
332.008571	2239.008316
332.401986	2259.828282
332.795338	2281.109513
333.188625	2299.444189
333.581847	2317.768783
333.975006	2335.616988
334.368100	2354.816223
334.761129	2373.571836
335.154095	2387.233363
335.546996	2430.173911
335.939833	2499.038593
336.332606	2512.465707
336.725315	2521.766635
337.117960	2533.401618
337.510540	2539.017464
337.903056	2549.245965
338.295508	2557.389949
338.687896	2562.859601
339.080220	2568.684654
339.472480	2574.204718
339.864676	2577.267219
340.256807	2580.985070
340.648875	2582.978846
341.040879	2586.764752
341.432818	2586.003538
341.824694	2584.370204
342.216506	2585.292736
342.608253	2585.136460
342.999937	2585.537232
343.391557	2579.722261
343.783113	2581.963053
344.174605	2579.913824
344.566033	2578.003227
344.957397	2576.412743
345.348697	2576.574060
345.739934	2570.814542
346.131106	2568.966959
346.522215	2572.208421
346.913260	2565.601989
347.304241	2564.734910
347.695159	2567.162226
348.086012	2565.163408
348.476802	2561.869014
348.867528	2562.932698
349.258191	2556.351471
349.648789	2558.753581
350.039324	2557.026986
350.429796	2556.908519
350.820203	2554.095555
351.210548	2553.979608
351.600828	2553.336861
351.991045	2556.253169
352.381198	2551.612787
352.771288	2553.719989
353.161314	2550.082797
353.551276	2551.277550
353.941175	2551.834597
354.331010	2553.036913
354.720782	2558.093190
355.110490	2555.229815
355.500135	2553.364588
355.889717	2554.183775
356.279235	2552.149670
356.668689	2556.238045
357.058080	2554.768549
357.447408	2551.973229
357.836672	2551.832077
358.225873	2554.695452
358.615010	2552.510112
359.004084	2558.468756
359.393095	2557.029507
359.782043	2560.248283
360.170927	2559.885320
360.559748	2559.660989
360.948505	2561.271637
361.337199	2562.685681
361.725830	2561.591751
362.114398	2563.051165
362.502903	2563.159550
362.891344	2563.451937
363.279722	2562.620146
363.668037	2563.842626
364.056289	2564.550908
364.444478	2566.005281
364.832603	2567.121897
365.220665	2563.744323
365.608665	2564.596278
365.996601	2567.303378
366.384474	2566.980744
366.772284	2566.947977
367.160031	2565.980075
367.547715	2567.689026
367.935336	2561.894220
368.322893	2570.096177
368.710388	2566.527040
369.097820	2567.590724
369.485189	2568.886300
369.872495	2569.614747
370.259738	2570.111301
370.646918	2568.785477
371.034035	2571.573235
371.421090	2571.719429
371.808081	2566.670713
372.195010	2571.172464
372.581875	2574.386199
372.968678	2568.974521
373.355418	2570.330591
373.742096	2571.845458
374.128710	2574.444172
374.515262	2572.883935
374.901751	2571.921075
375.288177	2575.613720
375.674540	2572.382341
376.060841	2576.410222
376.447079	2574.287897
376.833254	2576.107753
377.219367	2570.698595
377.605417	2574.653380
377.991404	2572.606672
378.377329	2573.062896
378.763191	2571.628688
379.148991	2578.126735
379.534727	2578.956005
379.920402	2579.588670
380.306013	2579.777713
380.691563	2579.792837
381.077049	2577.728484
381.462474	2579.180337
381.847835	2578.434246
382.233134	2580.385172
382.618371	2579.770152
383.003545	2579.384503
383.388657	2581.741243
383.773706	2582.356263
384.158693	2582.827611
384.543618	2583.412385
384.928480	2582.225193
385.313280	2583.031778
385.698017	2584.408013
386.082692	2583.911459
386.467305	2582.313414
386.851856	2581.549679
387.236344	2584.408013
387.620770	2585.375915
388.005133	2585.249886
388.389435	2584.912128
388.773674	2584.576892
389.157851	2585.935483
389.541965	2587.054619
389.926018	2586.290884
390.310008	2586.371542
390.693936	2587.372212
391.077802	2587.210895
391.461606	2586.810123
391.845348	2587.483117
392.229027	2587.316759
392.612645	2587.951944
392.996200	2587.546131
393.379694	2589.786924
393.763125	2588.524115
394.146494	2590.056626
394.529801	2592.249528
394.913047	2591.100145
395.296230	2589.071080
395.679351	2591.700042
396.062410	2591.563931
396.445408	2592.509147
396.828343	2593.608119
397.211217	2586.149732
397.594028	2592.231884
397.976778	2589.116451
398.359466	2590.956472
398.742092	2590.843046
399.124656	2594.278592
399.507158	2595.768253
399.889598	2593.749271
400.271977	2592.690629
400.654294	2593.829930
401.036549	2596.705908
401.418742	2594.644076
401.800874	2595.664910
402.182944	2596.060640
402.564952	2596.602564
402.946898	2597.623398
403.328783	2594.691967
403.710606	2597.114241
404.092367	2596.905033
404.474067	2598.861001
404.855705	2598.981989
405.237282	2600.012905
405.618797	2598.477873
406.000250	2598.558532
406.381642	2601.815117
406.762972	2600.002822
407.144240	2600.209510
407.525447	2601.018615
407.906593	2599.760847
408.287677	2600.325456
408.668700	2603.166147
409.049661	2605.759820
409.430560	2602.205807
409.811399	2603.082967
410.192176	2602.142792
410.572891	2601.875611
410.953545	2603.057762
411.334138	2603.002309
411.714669	2602.805704
412.095139	2603.632453
412.475547	2602.488111
412.855894	2604.265118
413.236180	2603.072885
413.616405	2606.057248
413.996568	2603.468616
414.376670	2605.227978
414.756711	2604.746548
415.136691	2607.690582
415.516609	2606.798298
415.896466	2606.614296
416.276262	2609.255860
416.655997	2604.668410
417.035670	2605.666559
417.415283	2608.151848
417.794834	2606.337032
418.174324	2607.645212
418.553753	2609.863319
418.933121	2609.626385
419.312428	2609.371807
419.691674	2608.134204
420.070859	2612.141921
420.449983	2610.485902
420.829045	2612.209977
421.208047	2612.545213
421.586988	2613.616458
421.965867	2612.562857
422.344686	2612.653598
422.723444	2616.275667
423.102141	2615.224587
423.480777	2613.790378
423.859352	2613.775255
424.237866	2614.934720
424.616319	2615.353136
424.994712	2617.823301
425.373044	2617.432612
425.751314	2616.671398
426.129524	2618.249279
426.507673	2618.972684
426.885762	2616.079062
427.263789	2618.397993
427.641756	2620.540483
428.019662	2619.005452
428.397508	2617.488065
428.775292	2620.275823
429.153016	2622.249434
429.530679	2621.702469
429.908282	2620.265740
430.285824	2621.435288
430.663305	2620.283384
431.040726	2620.359002
431.418086	2623.124075
431.795385	2622.929990
432.172624	2622.826647
432.549802	2622.647686
432.926920	2625.906792
433.303977	2627.010804
433.680974	2624.850670
434.057910	2626.388222
434.434786	2625.435444
434.811601	2627.774539
435.188355	2628.278654
435.565050	2626.378139
435.941683	2626.879734
436.318257	2625.556431
436.694770	2627.527522
437.071222	2627.845115
437.447614	2627.134312
437.823946	2625.357306
438.200218	2627.882924
438.576429	2630.279992
438.952580	2631.449540
439.328670	2629.987606
439.704700	2628.770167
440.080670	2629.420476
440.456580	2631.273100
440.832429	2632.558594
441.208218	2629.700260
441.583947	2632.107411
441.959616	2633.886938
442.335224	2633.960035
442.710773	2638.209727
443.086261	2633.609675
443.461689	2637.824079
443.837057	2636.331898
444.212365	2639.656539
444.587612	2639.250726
444.962800	2639.734677
445.337927	2640.952115
445.712995	2640.526138
446.088002	2645.146355
446.462949	2645.867240
446.837837	2644.559061
447.212664	2646.956129
447.587431	2655.939466
447.962139	2659.286792
448.336786	2664.610250
448.711374	2661.320897
449.085901	2659.473314
449.460369	2658.994405
449.834776	2661.530105
450.209124	2664.942966
450.583412	2670.067299
450.957640	2669.112001
451.331808	2669.664007
451.705917	2667.569407
452.079965	2670.034532
452.453954	2669.827844
452.827883	2673.066786
453.201752	2672.875222
453.575562	2675.093330
453.949311	2681.006603
454.323001	2681.760256
454.696632	2682.171110
455.070202	2687.786955
455.443713	2688.507840
455.817164	2694.274920
456.190556	2695.411700
456.563888	2697.229036
456.937160	2697.322297
457.310373	2698.857329
457.683526	2704.135417
458.056619	2705.443596
458.429653	2707.835624
458.802628	2712.062631
459.175542	2714.454659
459.548398	2722.064281
459.921194	2731.229098
460.293930	2739.791498
460.666607	2749.084865
461.039224	2760.578696
461.411782	2766.209665
461.784280	2766.224788
462.156719	2767.356527
462.529099	2771.381889
462.901419	2766.802000
463.273680	2771.671755
463.645882	2776.624689
464.018024	2783.508384
464.390106	2796.421300
464.762130	2819.865186
465.134094	2858.518233
465.505999	2905.915161
465.877845	2948.097016
466.249631	2966.935808
466.621358	2963.775005
466.993026	2964.362299
467.364634	2963.737196
467.736184	2962.290385
468.107674	2966.351034
468.479105	2975.969556
468.850477	2990.034375
469.221790	2993.956393
469.593043	2992.643172
469.964238	3006.302178
470.335373	3023.671474
470.706449	3070.723083
471.077467	3136.280769
471.448425	3229.050602
471.819324	3291.812968
472.190164	3293.935293
472.560945	3274.060544
472.931667	3254.636979
473.302330	3269.407559
473.672934	3289.594860
474.043479	3338.156295
474.413965	3361.025489
474.784393	3389.356774
475.154761	3454.574181
475.525070	3499.047241
475.895321	3536.644166
476.265513	3601.170935
476.635645	3680.306968
477.005719	3737.140937
477.375734	3812.720436
477.745691	3903.887182
478.115588	4019.155686
478.485427	4179.860109
478.855207	4416.088578
479.224928	4627.907780
479.594591	4792.783758
479.964194	4826.042770
480.333739	4929.237710
480.703226	5044.176018
481.072653	5215.978541
481.442022	5378.389394
481.811333	5516.501886
482.180584	5555.429676
482.549777	5649.847967
482.918912	5755.482826
483.287988	5872.775352
483.657005	5944.286640
484.025964	6028.357963
484.394864	6175.085787
484.763706	6287.453106
485.132489	6362.168047
485.501213	6504.351271
485.869879	6676.776376
486.238487	6801.492002
486.607036	6985.040413
486.975527	7103.454597
487.343959	7292.933926
487.712333	7487.524985
488.080648	7666.574166
488.448905	7914.959378
488.817104	8095.397398
489.185244	8438.626878
489.553326	8937.895193
489.921350	9611.791598
490.289315	10351.505308
490.657222	10706.193331
491.025070	11020.597493
491.392861	11096.376118
491.760593	11108.101842
492.128267	11038.314628
492.495883	11000.193423
492.863440	10987.729170
493.230939	10994.620427
493.598380	11035.426047
493.965763	11226.639533
494.333088	11314.131279
494.700354	11482.175622
495.067563	11666.167655
495.434713	11904.669684
495.801805	12193.116946
496.168839	12384.630380
496.535815	12582.415010
496.902733	12879.492727
497.269593	13049.273747
497.636395	13323.598216
498.003139	13717.357702
498.369825	13853.234442
498.736453	14233.801228
499.103023	14388.108427
499.469535	14633.915088
499.835989	14966.643845
500.202385	15169.444423
500.568723	15481.375900
500.935003	15855.936151
501.301226	16089.656646
501.667390	16626.345447
502.033497	17040.521605
502.399546	17135.786810
502.765537	17194.798557
503.131470	17672.031989
503.497345	18169.051949
503.863163	17928.760310
504.228923	18518.136730
504.594625	19032.072282
504.960269	19045.708603
505.325856	19689.640390
505.691385	19725.659434
506.056856	20120.979157
506.422270	20660.793472
506.787625	20778.942995
507.152924	21212.111701
507.518164	21600.323397
507.883347	21510.205210
508.248472	21972.738638
508.613540	22566.677301
508.978550	23064.581984
509.343503	23260.846707
509.708398	23711.286406
510.073236	24337.349822
510.438016	24671.704351
510.802738	24689.849984
511.167403	25391.344186
511.532010	25844.342271
511.896561	26362.230088
512.261053	27217.822280
512.625488	27277.285210
512.989866	27510.191559
513.354186	27742.054389
513.718449	28040.052117
514.082655	28826.504884
514.446803	28922.148175
514.810894	29603.944068
515.174927	29843.938280
515.538904	30090.818707
515.902822	30862.072396
516.266684	30766.174526
516.630488	31372.194315
516.994235	31561.018294
517.357925	32273.771913
517.721558	32688.716848
518.085133	33221.453383
518.448651	33579.120728
518.812112	33708.194431
519.175516	34054.491453
519.538863	34589.579687
519.902152	34832.359136
520.265385	35471.189275
520.628560	35758.104025
520.991678	35845.825143
521.354739	36294.933978
521.717743	36798.562891
522.080690	36954.543753
522.443580	37642.245358
522.806413	37923.692977
523.169189	38120.245045
523.531908	38510.750466
523.894569	38602.804456
524.257174	38996.639559
524.619722	39458.063932
524.982213	39643.568311
525.344647	39798.190582
525.707025	40054.230786
526.069345	40603.792172
526.431608	40720.870450
526.793815	41193.339991
527.155964	40983.887611
527.518057	41313.768115
527.880093	41313.639566
528.242072	41972.110040
528.603995	41865.784544
528.965860	42027.471992
529.327669	42277.853500
529.689421	42340.136956
530.051117	42458.873773
530.412755	42774.051753
530.774337	42984.466994
531.135862	42936.122328
531.497331	43272.397537
531.858743	43312.265502
532.220098	43757.099438
532.581396	43622.883758
532.942638	43423.992595
533.303824	43867.619174
533.664953	43955.443636
534.026025	43800.483608
534.387040	44371.679106
534.747999	44445.952947
535.108902	44708.639912
535.469748	44346.231362
535.830537	44556.301284
536.191270	44840.408112
536.551947	44618.183968
536.912567	45006.735942
537.273131	45216.218569
537.633638	44816.896170
537.994089	45238.346714
538.354483	44899.588737
538.714821	45537.251849
539.075103	45972.411811
539.435328	45813.917934
539.795497	45768.482014
540.155609	45848.306165
540.515665	46363.572582
540.875665	45892.270067
541.235609	46275.082687
541.595496	46322.956005
541.955328	47057.343736
542.315102	46483.486508
542.674821	46303.965978
543.034483	46426.438291
543.394090	46439.905733
543.753640	46471.339848
544.113134	47509.736882
544.472571	46573.776094
544.831953	47848.714149
545.191278	47102.396528
545.550548	46884.636325
545.909761	47382.546050
546.268918	47624.445817
546.628019	47972.199733
546.987064	47572.600070
547.346053	46883.895276
547.704986	47802.506933
548.063863	47383.082933
548.422684	47597.967156
548.781449	47466.740881
549.140158	47892.698216
549.498811	47769.469731
549.857408	47233.058194
550.215949	48087.609388
550.574434	48054.763750
550.932864	47830.578598
551.291237	48585.778732
551.649555	48209.096155
552.007817	48470.628696
552.366022	48120.442423
552.724173	48320.649328
553.082267	48728.090505
553.440305	49023.555053
553.798288	48342.434674
554.156215	48676.229635
554.514086	48904.863606
554.871902	48655.570986
555.229661	48686.127940
555.587365	48522.650883
555.945014	48634.814035
556.302606	48582.993494
556.660143	48824.971400
557.017625	48886.544053
557.375050	48695.849806
557.732421	49034.648112
558.089735	49026.143685
558.446994	48952.658785
558.804197	49419.204971
559.161345	49374.348784
559.518437	48610.306466
559.875474	48928.602399
560.232455	49125.577924
560.589381	49274.851531
560.946251	48991.788222
561.303065	49675.701399
561.659825	49464.766919
562.016528	49141.008896
562.373177	48873.550479
562.729770	49350.340289
563.086307	48878.011900
563.442789	49327.960086
563.799216	49348.729640
564.155587	49169.541827
564.511904	49201.225479
564.868164	49274.188619
565.224370	49511.626965
565.580520	49241.945399
565.936615	49449.706472
566.292654	49178.434422
566.648638	49435.881108
567.004567	49394.654552
567.360441	49452.925249
567.716260	49296.861208
568.072023	49571.016798
568.427732	49559.477597
568.783385	49089.304302
569.138982	49506.003558
569.494525	49460.373554
569.850013	49211.585050
570.205445	49176.201191
570.560823	49127.377616
570.916145	49007.193988
571.271412	49027.671155
571.626625	48779.976581
571.981782	48826.176235
572.336884	48506.879633
572.691931	48830.095733
573.046923	48446.171538
573.401860	48269.111091
573.756743	48232.212366
574.111570	48353.540336
574.466342	48193.181232
574.821059	48318.635387
575.175722	47822.986620
575.530330	47845.036627
575.884882	47546.562511
576.239380	47497.628030
576.593823	47482.958272
576.948211	47389.132317
577.302544	46908.420489
577.656823	46920.904907
578.011047	47132.877864
578.365216	46865.910959
578.719330	46638.398645
579.073389	46488.620923
579.427394	46565.843838
579.781344	46531.150618
580.135239	46159.063052
580.489080	46236.137253
580.842866	45719.320682
581.196597	46174.758685
581.550273	46110.080681
581.903895	45967.766387
582.257463	46369.521143
582.610975	45741.617705
582.964434	46025.227979
583.317837	45658.978070
583.671186	45490.157390
584.024481	45714.234158
584.377721	45213.027519
584.730906	45510.211100
585.084037	45543.046655
585.437113	45248.131593
585.790135	45262.002328
586.143103	44869.004057
586.496016	44972.017515
586.848874	44992.719013
587.201679	45000.633625
587.554428	44464.925329
587.907124	44655.148228
588.259765	44412.015899
588.612352	44649.280325
588.964884	44022.584244
589.317362	44325.159339
589.669786	44235.341101
590.022155	43998.260676
590.374470	44424.240697
590.726731	43948.282677
591.078937	43446.420688
591.431090	43556.090990
591.783188	43192.928788
592.135232	42860.570556
592.487222	43121.324238
592.839157	43191.366030
593.191038	42846.639327
593.542866	42592.277827
593.894639	42008.343333
594.246358	42279.748974
594.598022	42262.472940
594.949633	41856.609644
595.301190	41785.244549
595.652692	41625.931485
596.004141	41949.566000
596.355535	40958.351646
596.706876	40902.682184
597.058162	40725.125184
597.409395	41193.430732
597.760573	41269.955447
598.111698	40859.219876
598.462768	40866.063242
598.813785	40894.570967
599.164748	40340.313746
599.515657	40705.323531
599.866511	40202.150842
600.217312	40826.916162
600.568060	39785.038212
600.918753	40532.553107
601.269392	40470.320063
601.619978	40121.106733
601.970510	40327.423516
602.320988	40518.941991
602.671412	40821.685965
603.021783	40570.054250
603.372100	40201.921470
603.722363	40312.098408
604.072572	40378.702133
604.422728	40408.775136
604.772830	40205.394825
605.122878	40311.289303
605.472872	40245.976113
605.822813	40495.921562
606.172701	40314.616464
606.522534	40586.969842
606.872314	40846.735458
607.222041	40588.172157
607.571714	40970.488224
607.921333	40415.928533
608.270899	40698.185258
608.620411	41044.081508
608.969870	40835.680208
609.319276	40840.605415
609.668627	40882.215099
610.017926	41361.149920
610.367171	41510.110975
610.716362	41597.277567
611.065500	41540.854452
611.414585	41713.231667
611.763616	42026.667928
612.112594	41952.507513
612.461518	42161.571725
612.810389	42466.773261
613.159207	42328.380985
613.507971	42413.042123
613.856682	42872.770148
614.205340	42755.805297
614.553945	43459.091628
614.902496	42909.315993
615.250994	43382.624886
615.599439	43440.187302
615.947830	43643.355884
616.296169	43718.990836
616.644454	43815.874251
616.992686	43988.410262
617.340864	44499.989075
617.688990	44214.947113
618.037063	44825.103168
618.385082	44771.757678
618.733048	45063.098562
619.080961	45086.655874
619.428821	45103.798318
619.776628	45208.969390
620.124382	45039.558894
620.472083	45177.789853
620.819731	45294.595908
621.167326	44968.763450
621.514868	44948.170337
621.862357	44511.150189
622.209793	44543.151434
622.557176	44207.095516
622.904506	43937.141727
623.251783	43589.738172
623.599007	43383.406265
623.946179	43142.950788
624.293297	43108.711272
624.640363	42510.938810
624.987376	42459.266983
625.334336	42244.677667
625.681243	41885.578634
626.028097	41854.028573
626.374899	41685.570856
626.721647	41675.412931
627.068343	41553.520351
627.414987	41319.797335
627.761577	41090.109763
628.108115	41420.249888
628.454600	40867.265558
628.801032	41061.697820
629.147412	41007.134892
629.493739	40988.074289
629.840014	40658.047591
630.186236	40981.626653
630.532405	40573.457029
630.878521	40777.838009
631.224585	40641.333645
631.570597	40348.682061
631.916556	40512.522082
632.262462	40458.203649
632.608316	40465.551131
632.954117	40377.131813
633.299866	40349.380261
633.645562	40291.727105
633.991206	39803.556890
634.336797	39345.021098
634.682336	39340.433648
635.027823	39096.162018
635.373257	38920.485368
635.718639	38665.213940
636.063968	38546.444356
636.409245	37951.600805
636.754470	37997.881118
637.099642	37759.167359
637.444762	37261.502131
637.789829	37415.625328
638.134845	37077.084121
