Dividing Wavelength (nm)	Counts (n)	Blue Motor Position (mm): 10.000000	Red Motor Position (mm): 0.000000	
326.493990	2106.050404
326.888308	2106.050404
327.282561	2106.050404
327.676750	2081.053843
328.070874	2082.611559
328.464933	2090.382498
328.858929	2097.608992
329.252859	2113.221445
329.646726	2126.671244
330.040528	2139.669859
330.434265	2163.834630
330.827938	2180.737619
331.221547	2204.057997
331.615091	2218.694987
332.008571	2238.161402
332.401986	2261.638056
332.795338	2282.861313
333.188625	2300.144909
333.581847	2319.306335
333.975006	2340.166630
334.368100	2356.174814
334.761129	2376.115098
335.154095	2389.882489
335.546996	2417.581109
335.939833	2461.350927
336.332606	2473.893318
336.725315	2485.997128
337.117960	2495.711432
337.510540	2500.049345
337.903056	2511.376817
338.295508	2517.005266
338.687896	2522.943745
339.080220	2529.797193
339.472480	2537.162319
339.864676	2541.414532
340.256807	2540.204656
340.648875	2541.719522
341.040879	2542.783206
341.432818	2545.901159
341.824694	2548.089020
342.216506	2544.414019
342.608253	2543.622558
342.999937	2545.785213
343.391557	2543.317568
343.783113	2541.966539
344.174605	2539.098122
344.566033	2538.493184
344.957397	2539.324974
345.348697	2535.491177
345.739934	2533.759540
346.131106	2532.461443
346.522215	2531.473377
346.913260	2527.669827
347.304241	2527.057326
347.695159	2528.345341
348.086012	2526.109589
348.476802	2521.035668
348.867528	2522.958868
349.258191	2518.505009
349.648789	2522.994156
350.039324	2514.754390
350.429796	2517.902591
350.820203	2516.622138
351.210548	2514.845131
351.600828	2517.915194
351.991045	2515.684483
352.381198	2512.100223
352.771288	2510.300531
353.161314	2513.710872
353.551276	2512.385048
353.941175	2511.384379
354.331010	2513.478978
354.720782	2516.929648
355.110490	2516.312107
355.500135	2513.489061
355.889717	2512.621982
356.279235	2511.989318
356.668689	2514.570388
357.058080	2516.259175
357.447408	2516.067611
357.836672	2514.111643
358.225873	2515.371932
358.615010	2514.469565
359.004084	2517.111130
359.393095	2517.214473
359.782043	2519.906450
360.170927	2519.218332
360.559748	2521.423837
360.948505	2519.969464
361.337199	2520.952489
361.725830	2522.908457
362.114398	2520.508867
362.502903	2524.382994
362.891344	2521.534742
363.279722	2523.936852
363.668037	2525.020700
364.056289	2522.240504
364.444478	2522.096831
364.832603	2524.259486
365.220665	2523.664630
365.608665	2522.938704
365.996601	2526.464991
366.384474	2524.851822
366.772284	2526.187727
367.160031	2525.870135
367.547715	2525.991122
367.935336	2525.413910
368.322893	2525.907943
368.710388	2527.473222
369.097820	2529.968593
369.485189	2528.715866
369.872495	2526.989271
370.259738	2530.913809
370.646918	2528.330218
371.034035	2527.692512
371.421090	2530.591175
371.808081	2529.625794
372.195010	2525.010618
372.581875	2528.819210
372.968678	2530.729807
373.355418	2531.546474
373.742096	2531.871628
374.128710	2530.210568
374.515262	2533.716691
374.901751	2531.130579
375.288177	2533.268028
375.674540	2529.333407
376.060841	2532.731145
376.447079	2531.054961
376.833254	2530.273583
377.219367	2528.546987
377.605417	2530.031607
377.991404	2528.461288
378.377329	2529.968593
378.763191	2528.660413
379.148991	2532.748789
379.534727	2533.893131
379.920402	2534.873635
380.306013	2534.979500
380.691563	2535.468492
381.077049	2532.279962
381.462474	2534.964376
381.847835	2534.427493
382.233134	2535.471012
382.618371	2535.776002
383.003545	2534.014119
383.388657	2537.918492
383.773706	2537.946219
384.158693	2535.097967
384.543618	2535.425642
384.928480	2535.443286
385.313280	2538.551157
385.698017	2536.799356
386.082692	2539.960160
386.467305	2535.062679
386.851856	2536.638039
387.236344	2535.715508
387.620770	2538.591486
388.005133	2540.436549
388.389435	2541.066693
388.773674	2538.964532
389.157851	2536.685930
389.541965	2540.446631
389.926018	2540.958308
390.310008	2541.359080
390.693936	2539.229192
391.077802	2541.689275
391.461606	2541.170037
391.845348	2544.403937
392.229027	2541.066693
392.612645	2543.660367
392.996200	2541.434697
393.379694	2543.970397
393.763125	2543.055428
394.146494	2541.298586
394.529801	2544.129194
394.913047	2543.539379
395.296230	2541.754810
395.679351	2541.149872
396.062410	2544.834955
396.445408	2544.751776
396.828343	2545.583567
397.211217	2541.598535
397.594028	2542.052238
397.976778	2542.142979
398.359466	2543.753628
398.742092	2540.403781
399.124656	2542.775644
399.507158	2542.904193
399.889598	2547.529452
400.271977	2545.215562
400.654294	2545.593649
401.036549	2548.227652
401.418742	2548.454504
401.800874	2545.384441
402.182944	2544.507280
402.564952	2545.001313
402.946898	2545.412168
403.328783	2547.133722
403.710606	2547.882333
404.092367	2546.982487
404.474067	2548.928372
404.855705	2548.003321
405.237282	2547.287477
405.618797	2546.110367
406.000250	2551.869886
406.381642	2548.819987
406.762972	2548.951058
407.144240	2547.421067
407.525447	2551.975750
407.906593	2548.199926
408.287677	2546.717826
408.668700	2550.077755
409.049661	2552.792417
409.430560	2550.886861
409.811399	2550.292004
410.192176	2549.787889
410.572891	2549.629093
410.953545	2552.855431
411.334138	2550.982643
411.714669	2551.393497
412.095139	2550.065152
412.475547	2549.576161
412.855894	2552.245452
413.236180	2550.506253
413.616405	2552.253013
413.996568	2549.064483
414.376670	2553.384752
414.756711	2551.121274
415.136691	2553.069680
415.516609	2549.707231
415.896466	2552.401727
416.276262	2553.692263
416.655997	2548.653629
417.035670	2550.463404
417.415283	2552.129505
417.794834	2546.795964
418.174324	2551.592622
418.553753	2551.857283
418.933121	2554.924825
419.312428	2552.666388
419.691674	2553.697304
420.070859	2555.149156
420.449983	2552.701676
420.829045	2551.247303
421.208047	2554.640000
421.586988	2554.723179
421.965867	2555.547407
422.344686	2552.673950
422.723444	2551.539690
423.102141	2552.525236
423.480777	2555.620504
423.859352	2555.076059
424.237866	2555.910370
424.616319	2554.597150
424.994712	2555.234856
425.373044	2557.384908
425.751314	2554.473642
426.129524	2554.975236
426.507673	2554.624876
426.885762	2555.315514
427.263789	2553.170503
427.641756	2557.447922
428.019662	2555.214691
428.397508	2555.343241
428.775292	2556.308622
429.153016	2554.614794
429.530679	2556.681667
429.908282	2557.019424
430.285824	2557.563869
430.663305	2557.407593
431.040726	2558.917419
431.418086	2557.329455
431.795385	2557.601677
432.172624	2556.149825
432.549802	2559.048489
432.926920	2557.861297
433.303977	2556.543035
433.680974	2559.487069
434.057910	2556.689229
434.434786	2559.033365
434.811601	2559.134188
435.188355	2554.589588
435.565050	2556.565720
435.941683	2559.141750
436.318257	2557.573951
436.694770	2555.658313
437.071222	2554.685370
437.447614	2555.118909
437.823946	2556.376677
438.200218	2557.447922
438.576429	2557.997408
438.952580	2557.533622
439.328670	2561.044786
439.704700	2555.766698
440.080670	2553.251162
440.456580	2558.960268
440.832429	2562.312636
441.208218	2560.278530
441.583947	2561.339693
441.959616	2558.531770
442.335224	2558.861966
442.710773	2556.611091
443.086261	2558.239383
443.461689	2562.098387
443.837057	2557.803324
444.212365	2558.186451
444.587612	2560.649055
444.962800	2560.386915
445.337927	2558.677964
445.712995	2560.069322
446.088002	2561.337173
446.462949	2559.792059
446.837837	2560.790207
447.212664	2561.891699
447.587431	2560.656617
447.962139	2558.141081
448.336786	2564.724828
448.711374	2560.994374
449.085901	2563.393963
449.460369	2559.696277
449.834776	2560.896072
450.209124	2559.161915
450.583412	2563.094015
450.957640	2561.153170
451.331808	2560.336503
451.705917	2563.451937
452.079965	2559.507234
452.453954	2562.415979
452.827883	2561.967317
453.201752	2562.446226
453.575562	2561.901782
453.949311	2562.201730
454.323001	2563.590568
454.696632	2561.304405
455.070202	2563.673747
455.443713	2562.317677
455.817164	2559.466904
456.190556	2560.157543
456.563888	2562.448747
456.937160	2556.046482
457.310373	2561.687533
457.683526	2563.363716
458.056619	2565.743141
458.429653	2566.872359
458.802628	2565.327246
459.175542	2563.784653
459.548398	2564.692060
459.921194	2567.358831
460.293930	2564.966803
460.666607	2564.049313
461.039224	2569.987793
461.411782	2568.230950
461.784280	2567.988975
462.156719	2566.761454
462.529099	2566.879921
462.901419	2567.497462
463.273680	2566.900086
463.645882	2569.574418
464.018024	2565.849005
464.390106	2568.278841
464.762130	2568.891342
465.134094	2571.590879
465.505999	2572.876374
465.877845	2576.758062
466.249631	2575.845613
466.621358	2574.116497
466.993026	2576.919379
467.364634	2578.840059
467.736184	2574.398802
468.107674	2572.268915
468.479105	2572.730180
468.850477	2575.074317
469.221790	2575.235634
469.593043	2570.249932
469.964238	2575.467527
470.335373	2572.243709
470.706449	2574.487022
471.077467	2575.391909
471.448425	2576.989955
471.819324	2575.931313
472.190164	2576.931982
472.560945	2574.318144
472.931667	2575.054152
473.302330	2574.184553
473.672934	2574.965932
474.043479	2574.630695
474.413965	2570.509552
474.784393	2569.531568
475.154761	2571.114490
475.525070	2570.635581
475.895321	2572.606672
476.265513	2570.693554
476.635645	2574.839903
477.005719	2576.125397
477.375734	2576.243864
477.745691	2578.782085
478.115588	2578.963567
478.485427	2577.937692
478.855207	2578.356108
479.224928	2580.596901
479.594591	2581.562282
479.964194	2582.595718
480.333739	2576.884091
480.703226	2583.218301
481.072653	2581.075810
481.442022	2582.517580
481.811333	2584.072776
482.180584	2580.823753
482.549777	2581.610173
482.918912	2580.344843
483.287988	2580.972467
483.657005	2581.887436
484.025964	2581.837025
484.394864	2582.837694
484.763706	2581.847107
485.132489	2581.615214
485.501213	2582.199988
485.869879	2580.934658
486.238487	2581.282498
486.607036	2582.603280
486.975527	2584.027406
487.343959	2583.470358
487.712333	2580.722930
488.080648	2581.322827
488.448905	2584.244176
488.817104	2583.130081
489.185244	2582.999011
489.553326	2586.699218
489.921350	2585.993456
490.289315	2586.096800
490.657222	2587.523446
491.025070	2588.070411
491.392861	2587.833477
491.760593	2589.217274
492.128267	2587.251224
492.495883	2585.759042
492.863440	2587.654516
493.230939	2586.263158
493.598380	2586.230390
493.965763	2581.685790
494.333088	2584.700400
494.700354	2580.198650
495.067563	2583.513208
495.434713	2578.484657
495.801805	2586.636203
496.168839	2587.470514
496.535815	2584.965061
496.902733	2585.630493
497.269593	2587.122674
497.636395	2584.070256
498.003139	2587.634352
498.369825	2587.712489
498.736453	2586.709300
499.103023	2587.715010
499.469535	2590.979157
499.835989	2589.328179
500.202385	2590.913622
500.568723	2588.544280
500.935003	2591.354723
501.301226	2590.149887
501.667390	2592.138622
502.033497	2593.315732
502.399546	2593.104003
502.765537	2595.072574
503.131470	2596.297574
503.497345	2595.947214
503.863163	2599.168512
504.228923	2598.634149
504.594625	2600.547267
504.960269	2601.086671
505.325856	2604.285283
505.691385	2603.677824
506.056856	2603.652618
506.422270	2608.610593
506.787625	2608.406426
507.152924	2609.089502
507.518164	2611.196705
507.883347	2611.234513
508.248472	2615.388424
508.613540	2613.238372
508.978550	2617.180554
509.343503	2620.737088
509.708398	2622.589712
510.073236	2620.689197
510.438016	2624.782614
510.802738	2624.152470
511.167403	2627.618263
511.532010	2630.474077
511.896561	2632.775364
512.261053	2636.359624
512.625488	2638.073616
512.989866	2636.379789
513.354186	2639.220479
513.718449	2640.011940
514.082655	2644.725419
514.446803	2648.481078
514.810894	2652.080462
515.174927	2653.565082
515.538904	2653.870072
515.902822	2659.485917
516.266684	2658.303767
516.630488	2661.557832
516.994235	2665.729386
517.357925	2666.780467
517.721558	2671.398164
518.085133	2672.108967
518.448651	2675.282373
518.812112	2676.656087
519.175516	2680.016016
519.538863	2683.451563
519.902152	2683.277643
520.265385	2687.766790
520.628560	2691.771987
520.991678	2692.404652
521.354739	2694.887420
521.717743	2697.423121
522.080690	2700.236084
522.443580	2704.024512
522.806413	2705.068030
523.169189	2709.279914
523.531908	2710.351160
523.894569	2712.065152
524.257174	2716.027499
524.619722	2718.391800
524.982213	2722.568396
525.344647	2725.169631
525.707025	2724.471432
526.069345	2728.723645
526.431608	2729.641135
526.793815	2733.237998
527.155964	2733.900910
527.518057	2735.740931
527.880093	2741.134966
528.242072	2740.136817
528.603995	2743.000192
528.965860	2743.554719
529.327669	2744.956160
529.689421	2748.104361
530.051117	2750.209042
530.412755	2753.077459
530.774337	2753.269023
531.135862	2752.560741
531.497331	2755.640886
531.858743	2755.076277
532.220098	2761.541556
532.581396	2760.495517
532.942638	2761.944849
533.303824	2765.317381
533.664953	2767.543050
534.026025	2763.873090
534.387040	2773.244595
534.747999	2772.276693
535.108902	2777.090995
535.469748	2775.981942
535.830537	2777.179216
536.191270	2781.496964
536.551947	2782.081738
536.912567	2781.345729
537.273131	2785.408899
537.633638	2784.927469
537.994089	2787.319497
538.354483	2788.398303
538.714821	2794.228398
539.075103	2794.112451
539.435328	2794.798048
539.795497	2796.416259
540.155609	2799.062864
540.515665	2800.865077
540.875665	2801.341466
541.235609	2802.468164
541.595496	2806.581745
541.955328	2810.239102
542.315102	2810.365131
542.674821	2809.329174
543.034483	2812.469813
543.394090	2813.256233
543.753640	2815.068528
544.113134	2820.102120
544.472571	2817.586584
544.831953	2824.172852
545.191278	2822.531956
545.550548	2823.492296
545.909761	2828.435147
546.268918	2830.996053
546.628019	2837.181549
546.987064	2833.766167
547.346053	2832.011846
547.704986	2840.196159
548.063863	2839.117352
548.422684	2843.677076
548.781449	2842.555419
549.140158	2846.243023
549.498811	2848.377952
549.857408	2844.738239
550.215949	2852.126050
550.574434	2852.083200
550.932864	2856.874817
551.291237	2858.114941
551.649555	2864.386136
552.007817	2869.142465
552.366022	2868.461909
552.724173	2871.920140
553.082267	2876.079092
553.440305	2883.648385
553.798288	2882.806512
554.156215	2884.795247
554.514086	2891.810013
554.871902	2889.213819
555.229661	2892.152811
555.587365	2894.338152
555.945014	2899.936353
556.302606	2901.783936
556.660143	2907.818197
557.017625	2910.794998
557.375050	2911.767941
557.732421	2915.591656
558.089735	2919.594332
558.446994	2919.730443
558.804197	2927.481218
559.161345	2931.098245
559.518437	2929.588420
559.875474	2933.414656
560.232455	2936.106632
560.589381	2940.205090
560.946251	2943.065945
561.303065	2949.465689
561.659825	2952.545834
562.016528	2949.705144
562.373177	2951.751853
562.729770	2958.527163
563.086307	2956.024231
563.442789	2960.783080
563.799216	2967.182825
564.155587	2965.884728
564.511904	2969.209368
564.868164	2971.054431
565.224370	2974.051397
565.580520	2975.485605
565.936615	2979.642036
566.292654	2979.142962
566.648638	2982.434836
567.004567	2989.101762
567.360441	2987.919611
567.716260	2992.136536
568.072023	2997.412104
568.427732	2996.492093
568.783385	2997.155005
569.138982	3000.772033
569.494525	3007.048269
569.850013	3003.458968
570.205445	3013.831142
570.560823	3015.726616
570.916145	3017.954806
571.271412	3019.376411
571.626625	3022.242307
571.981782	3028.745395
572.336884	3027.764891
572.691931	3037.879966
573.046923	3039.709905
573.401860	3039.846016
573.756743	3045.983621
574.111570	3052.549724
574.466342	3055.072821
574.821059	3063.269737
575.175722	3062.667320
575.530330	3068.502455
575.884882	3072.847930
576.239380	3079.325813
576.593823	3082.925196
576.948211	3091.303594
577.302544	3093.236877
577.656823	3099.339193
578.011047	3110.570884
578.365216	3113.499794
578.719330	3123.425826
579.073389	3128.000673
579.427394	3137.566263
579.781344	3148.959271
580.135239	3150.464055
580.489080	3165.980727
580.842866	3169.237312
581.196597	3186.072245
581.550273	3198.750747
581.903895	3211.824980
582.257463	3229.728637
582.610975	3235.977148
582.964434	3255.531783
583.317837	3260.653596
583.671186	3271.532406
584.024481	3290.161990
584.377721	3294.005870
584.730906	3310.863488
585.084037	3327.774039
585.437113	3333.064730
585.790135	3350.678521
586.143103	3357.632793
586.496016	3378.107439
586.848874	3395.698546
587.201679	3411.923499
587.554428	3422.192330
587.907124	3444.570012
588.259765	3458.869244
588.612352	3486.681290
588.964884	3495.246211
589.317362	3517.936444
589.669786	3536.233312
590.022155	3551.971794
590.374470	3581.792740
590.726731	3589.926642
591.078937	3598.514247
591.431090	3620.314717
591.783188	3631.271665
592.135232	3643.176350
592.487222	3670.126358
592.839157	3694.344061
593.191038	3710.208572
593.542866	3724.727095
593.894639	3732.414855
594.246358	3760.791510
594.598022	3782.092906
594.949633	3795.623362
595.301190	3816.587001
595.652692	3833.805062
596.004141	3864.334289
596.355535	3855.981097
596.706876	3877.123697
597.058162	3897.401738
597.409395	3936.110238
597.760573	3961.618476
598.111698	3971.441165
598.462768	3995.043847
598.813785	4023.115512
599.164748	4033.475083
599.515657	4071.480342
599.866511	4080.987958
600.217312	4127.933703
600.568060	4117.007003
600.918753	4177.463040
601.269392	4202.557904
601.619978	4214.500397
601.970510	4255.575719
602.320988	4295.252120
602.671412	4337.144109
603.021783	4355.078013
603.372100	4372.515365
603.722363	4407.732865
604.072572	4445.125624
604.422728	4478.576200
604.772830	4495.073376
605.122878	4532.531670
605.472872	4564.245569
605.822813	4609.021097
606.172701	4635.187206
606.522534	4690.702913
606.872314	4738.772836
607.222041	4761.553810
607.571714	4821.001617
607.921333	4824.290969
608.270899	4877.694433
608.620411	4935.811375
608.969870	4963.893122
609.319276	5002.515923
609.668627	5045.338004
610.017926	5117.328201
610.367171	5175.775339
610.716362	5225.287032
611.065500	5260.789357
611.414585	5318.223223
611.763616	5387.256784
612.112594	5426.635757
612.461518	5488.276466
612.810389	5559.109719
613.159207	5599.209577
613.507971	5653.464995
613.856682	5739.391463
614.205340	5780.963338
614.553945	5891.180605
614.902496	5896.950205
615.250994	5988.885728
615.599439	6053.407456
615.947830	6121.314319
616.296169	6191.603127
616.644454	6261.609631
616.992686	6343.568710
617.340864	6454.524506
617.688990	6497.097050
618.037063	6619.680268
618.385082	6687.640063
618.733048	6775.577950
619.080961	6844.692170
619.428821	6901.301807
619.776628	6973.198743
620.124382	7009.018662
620.472083	7070.682055
620.819731	7139.090513
621.167326	7141.353991
621.514868	7187.415014
621.862357	7185.116248
622.209793	7230.426138
622.557176	7233.130718
622.904506	7245.499188
623.251783	7250.971361
623.599007	7274.503467
623.946179	7291.446785
624.293297	7337.255750
624.640363	7322.281003
624.987376	7372.097685
625.334336	7396.582569
625.681243	7399.332519
626.028097	7452.380581
626.374899	7495.643763
626.721647	7550.070580
627.068343	7597.843075
627.414987	7622.993391
627.761577	7652.063205
628.108115	7762.315760
628.454600	7750.050633
628.801032	7843.369952
629.147412	7902.885815
629.493739	7964.443344
629.840014	7979.702917
630.186236	8096.014939
630.532405	8104.189170
630.878521	8207.298410
631.224585	8259.849918
631.570597	8286.197509
631.916556	8382.561685
632.262462	8442.463196
632.608316	8510.281839
632.954117	8556.504178
633.299866	8610.988969
633.645562	8651.585381
633.991206	8627.231567
634.336797	8611.104916
634.682336	8659.220208
635.027823	8663.888317
635.373257	8686.936472
635.718639	8692.436371
636.063968	8724.155311
636.409245	8675.114967
636.754470	8731.558246
637.099642	8744.700534
637.444762	8714.118374
637.789829	8798.726579
638.134845	8793.773646
638.479808	8845.120318
638.824719	8884.648006
639.169577	8864.937094
639.514383	8936.355121
639.859137	8940.282179
640.203839	9036.429586
640.548489	9031.295171
640.893086	9101.662117
641.237632	9111.845248
641.582125	9187.134880
641.926566	9237.732942
642.270955	9297.947004
642.615292	9363.764308
642.959576	9419.085931
643.303809	9485.162855
643.647990	9571.648890
643.992118	9631.633580
644.336195	9697.881903
