Dividing Wavelength (nm)	Counts (n)	Blue Motor Position (mm): 40.400000	Red Motor Position (mm): 0.000000	
326.493990	2129.592593
326.888308	2129.592593
327.282561	2129.592593
327.676750	2096.651173
328.070874	2096.232757
328.464933	2099.048241
328.858929	2104.086875
329.252859	2115.217742
329.646726	2125.282406
330.040528	2139.027112
330.434265	2155.773825
330.827938	2171.711433
331.221547	2189.211798
331.615091	2209.207535
332.008571	2230.463560
332.401986	2250.280336
332.795338	2268.834303
333.188625	2288.532612
333.581847	2303.847637
333.975006	2324.874290
334.368100	2343.607217
334.761129	2361.372243
335.154095	2376.651981
335.546996	2398.162584
335.939833	2422.980185
336.332606	2440.959460
336.725315	2452.813733
337.117960	2461.605505
337.510540	2468.607668
337.903056	2480.414050
338.295508	2487.874958
338.687896	2496.581031
339.080220	2505.599655
339.472480	2511.507887
339.864676	2515.571057
340.256807	2521.360823
340.648875	2522.016173
341.040879	2527.780732
341.432818	2527.448016
341.824694	2530.245856
342.216506	2529.993798
342.608253	2526.664116
342.999937	2529.373737
343.391557	2527.463139
343.783113	2526.903571
344.174605	2524.332583
344.566033	2525.245032
344.957397	2524.566996
345.348697	2522.381656
345.739934	2522.265710
346.131106	2522.364012
346.522215	2518.898219
346.913260	2516.685152
347.304241	2514.093999
347.695159	2511.190295
348.086012	2508.468072
348.476802	2510.030829
348.867528	2507.180057
349.258191	2503.691578
349.648789	2501.561691
350.039324	2503.263080
350.429796	2502.597648
350.820203	2500.906341
351.210548	2496.381905
351.600828	2498.582369
351.991045	2496.676813
352.381198	2497.198572
352.771288	2499.121772
353.161314	2493.989878
353.551276	2497.838799
353.941175	2497.306957
354.331010	2494.131030
354.720782	2495.643376
355.110490	2497.085146
355.500135	2496.550784
355.889717	2497.627070
356.279235	2497.695126
356.668689	2498.889879
357.058080	2496.182780
357.447408	2494.148674
357.836672	2494.723366
358.225873	2496.424755
358.615010	2495.345948
359.004084	2499.746875
359.393095	2499.323418
359.782043	2501.833913
360.170927	2499.371309
360.559748	2500.699653
360.948505	2502.368275
361.337199	2505.186280
361.725830	2503.472288
362.114398	2504.293996
362.502903	2501.506238
362.891344	2506.340705
363.279722	2504.225941
363.668037	2504.747700
364.056289	2504.909017
364.444478	2504.951867
364.832603	2505.811383
365.220665	2507.560664
365.608665	2505.879439
365.996601	2506.368431
366.384474	2508.158041
366.772284	2507.112001
367.160031	2507.633761
367.547715	2511.192815
367.935336	2510.328257
368.322893	2509.577125
368.710388	2512.160717
369.097820	2514.552744
369.485189	2510.792043
369.872495	2513.047960
370.259738	2511.306241
370.646918	2513.569719
371.034035	2512.843793
371.421090	2512.213649
371.808081	2513.118536
372.195010	2514.421674
372.581875	2514.875378
372.968678	2516.110461
373.355418	2518.620955
373.742096	2515.485358
374.128710	2516.659947
374.515262	2517.978208
374.901751	2518.799916
375.288177	2516.768331
375.674540	2518.041223
376.060841	2517.310255
376.447079	2518.963754
376.833254	2518.013496
377.219367	2517.542148
377.605417	2519.362005
377.991404	2518.293280
378.377329	2520.581964
378.763191	2517.335461
379.148991	2519.437622
379.534727	2519.666995
379.920402	2523.606657
380.306013	2522.651358
380.691563	2521.640607
381.077049	2525.250073
381.462474	2525.907943
381.847835	2525.214785
382.233134	2525.673530
382.618371	2523.989784
383.003545	2527.899199
383.388657	2527.621936
383.773706	2527.445495
384.158693	2527.586647
384.543618	2527.511030
384.928480	2524.743437
385.313280	2528.736031
385.698017	2531.425486
386.082692	2531.072605
386.467305	2535.718029
386.851856	2537.873122
387.236344	2543.499050
387.620770	2549.003990
388.005133	2557.394990
388.389435	2560.669220
388.773674	2571.122052
389.157851	2580.322158
389.541965	2593.194744
389.926018	2602.525920
390.310008	2619.297839
390.693936	2633.145888
391.077802	2652.037612
391.461606	2667.150992
391.845348	2691.303160
392.229027	2710.535162
392.612645	2729.981413
392.996200	2762.053233
393.379694	2790.414765
393.763125	2827.331135
394.146494	2845.456603
394.529801	2889.228942
394.913047	2928.048347
395.296230	2947.169444
395.679351	2988.159066
396.062410	3031.031559
396.445408	3052.239693
396.828343	3098.010849
397.211217	3134.405459
397.594028	3141.218579
397.976778	3201.510779
398.359466	3246.520721
398.742092	3294.255407
399.124656	3293.063174
399.507158	3365.779298
399.889598	3414.779313
400.271977	3484.105261
400.654294	3506.424969
401.036549	3547.487688
401.418742	3564.088208
401.800874	3661.805934
402.182944	3710.506000
402.564952	3790.501550
402.946898	3814.835200
403.328783	3849.016743
403.710606	3823.218639
404.092367	3993.160976
404.474067	3998.368488
404.855705	4032.013149
405.237282	4003.583562
405.618797	4122.348105
406.000250	4178.766178
406.381642	4266.625928
406.762972	4265.063170
407.144240	4305.092453
407.525447	4323.212880
407.906593	4401.068460
408.287677	4463.155311
408.668700	4420.756686
409.049661	4486.831090
409.430560	4537.643400
409.811399	4488.144310
410.192176	4651.989372
410.572891	4610.152836
410.953545	4723.364549
411.334138	4623.206904
411.714669	4700.659192
412.095139	4607.412969
412.475547	4760.220425
412.855894	4747.332715
413.236180	4767.434316
413.616405	4726.215321
413.996568	4814.077592
414.376670	4766.058081
414.756711	4727.901587
415.136691	4763.083800
415.516609	4838.922918
415.896466	4879.065627
416.276262	4917.529630
416.655997	4898.143873
417.035670	5083.733952
417.415283	5173.426161
417.794834	5122.860868
418.174324	5078.198765
418.553753	4988.720805
418.933121	5171.893651
419.312428	5243.178087
419.691674	5181.542419
420.070859	5305.564886
420.449983	5216.217996
420.829045	5334.312066
421.208047	5245.413838
421.586988	5316.597451
421.965867	5326.636909
422.344686	5458.112722
422.723444	5317.918233
423.102141	5133.429647
423.480777	5430.676242
423.859352	5201.311304
424.237866	5461.500377
424.616319	5453.061486
424.994712	5561.600049
425.373044	5437.895174
425.751314	5584.164253
426.129524	5387.730653
426.507673	5579.458336
426.885762	5662.009751
427.263789	5595.441314
427.641756	5477.710207
428.019662	5596.187405
428.397508	5610.123675
428.775292	5549.574376
429.153016	5655.662938
429.530679	5577.542698
429.908282	5666.554351
430.285824	5532.225245
430.663305	5812.039531
431.040726	5543.590527
431.418086	5545.894334
431.795385	5648.862422
432.172624	5663.317930
432.549802	5654.236292
432.926920	5669.379918
433.303977	5679.230332
433.680974	5716.429007
434.057910	5737.203602
434.434786	5739.615794
434.811601	5706.941555
435.188355	5943.601043
435.565050	5816.064892
435.941683	5793.573784
436.318257	6009.625035
436.694770	5991.484443
437.071222	6033.351226
437.447614	5959.878929
437.823946	5872.964395
438.200218	6030.071955
438.576429	5895.513477
438.952580	5991.398743
439.328670	6037.013624
439.704700	5943.885868
440.080670	5935.757008
440.456580	6202.015630
440.832429	6084.655048
441.208218	5933.574188
441.583947	6083.742599
441.959616	6090.172591
442.335224	6015.886148
442.710773	6154.560729
443.086261	6182.753382
443.461689	5977.848122
443.837057	6125.949660
444.212365	6278.772239
444.587612	6175.322721
444.962800	6331.127142
445.337927	6304.456918
445.712995	5914.614408
446.088002	6495.393140
446.462949	6325.234033
446.837837	6258.209372
447.212664	6434.420384
447.587431	6572.464821
447.962139	7112.390042
448.336786	8042.795478
448.711374	7782.860983
449.085901	6851.291040
449.460369	6777.231449
449.834776	6710.766356
450.209124	7104.319154
450.583412	7253.126454
450.957640	7391.107876
451.331808	7162.259656
451.705917	6710.403393
452.079965	6638.803885
452.453954	6854.648448
452.827883	6727.855868
453.201752	6819.378016
453.575562	6619.035000
453.949311	6823.010167
454.323001	6708.626386
454.696632	6785.864425
455.070202	6928.173677
455.443713	7081.157573
455.817164	7182.028541
456.190556	7260.781446
456.563888	7334.364648
456.937160	7377.108592
457.310373	7041.546707
457.683526	7062.235602
458.056619	6950.614374
458.429653	6942.114988
458.802628	6879.294650
459.175542	6986.789694
459.548398	7339.730957
459.921194	7499.096953
460.293930	7505.171544
460.666607	8026.525154
461.039224	8344.193463
461.411782	8458.350392
461.784280	8485.406265
462.156719	8377.684369
462.529099	8252.663754
462.901419	7845.172165
463.273680	7735.035556
463.645882	7745.531238
464.018024	7611.970908
464.390106	7782.893750
464.762130	8165.580342
465.134094	8638.579204
465.505999	9657.177106
465.877845	10879.089784
466.249631	11523.298834
466.621358	11137.547221
466.993026	10516.272901
467.364634	10264.384087
467.736184	9896.465556
468.107674	9572.740300
468.479105	9601.174928
468.850477	9361.536118
469.221790	9136.473805
469.593043	8811.016912
469.964238	8669.947784
470.335373	8680.204011
470.706449	8738.000840
471.077467	8722.716062
471.448425	10029.287357
471.819324	11100.245203
472.190164	11119.855292
472.560945	9878.939984
472.931667	9090.289274
473.302330	8952.123850
473.672934	8600.578986
474.043479	8957.089386
474.413965	8897.223164
474.784393	8786.912635
475.154761	8939.538609
475.525070	9028.441878
475.895321	8853.738171
476.265513	9030.662506
476.635645	9190.860293
477.005719	9195.283906
477.375734	9306.937902
477.745691	9544.313233
478.115588	9679.824490
478.485427	9927.277088
478.855207	10464.568306
479.224928	11274.598550
479.594591	11903.031309
479.964194	11719.709750
480.333739	11650.963535
480.703226	11573.128119
481.072653	11660.115749
481.442022	11896.790361
481.811333	12085.132910
482.180584	11894.962942
482.549777	11595.941861
482.918912	11427.995821
483.287988	11449.188831
483.657005	11461.524535
484.025964	11148.723459
484.394864	11271.858683
484.763706	11250.879921
485.132489	10995.908442
485.501213	10962.573812
485.869879	11043.486852
486.238487	10881.920392
486.607036	10993.203863
486.975527	10777.344176
487.343959	10961.716816
487.712333	11014.880825
488.080648	10941.224526
488.448905	10981.757923
488.817104	10931.474934
489.185244	11188.893894
489.553326	11348.489263
489.921350	11881.611447
490.289315	12951.011577
490.657222	13282.182617
491.025070	13198.191953
491.392861	13065.365110
491.760593	12693.277545
492.128267	12338.387876
492.495883	12007.002587
492.863440	11673.830208
493.230939	11331.230872
493.598380	11278.104673
493.965763	11137.970678
494.333088	11037.508044
494.700354	10957.134407
495.067563	11017.335867
495.434713	10850.554333
495.801805	10974.198713
496.168839	10907.819320
496.535815	10841.825575
496.902733	10838.677374
497.269593	10772.020718
497.636395	10876.871676
498.003139	10859.497340
498.369825	10728.671836
498.736453	10888.279808
499.103023	10813.433796
499.469535	10845.911430
499.835989	10831.531539
500.202385	10799.184975
500.568723	10651.950515
500.935003	10867.578309
501.301226	10674.376088
501.667390	10933.509040
502.033497	11023.778461
502.399546	10886.694365
502.765537	10791.799685
503.131470	10873.592406
503.497345	11040.406707
503.863163	10657.715075
504.228923	10966.402569
504.594625	11036.378825
504.960269	10775.410893
505.325856	10997.312403
505.691385	10790.877153
506.056856	10944.813827
506.422270	10971.904988
506.787625	10856.810405
507.152924	10974.463374
507.518164	10957.530138
507.883347	10876.632222
508.248472	10800.956941
508.613540	11030.833556
508.978550	10910.097921
509.343503	10888.816690
509.708398	11015.137923
510.073236	11120.170364
510.438016	11128.896601
510.802738	11079.722666
511.167403	11127.958947
511.532010	11032.421519
511.896561	11251.512586
512.261053	11326.381282
512.625488	11196.634585
512.989866	11179.484580
513.354186	11166.037302
513.718449	11072.740668
514.082655	11257.677917
514.446803	11160.872640
514.810894	11275.700042
515.174927	11144.516616
515.538904	11161.838021
515.902822	11320.772999
516.266684	11208.072963
516.630488	11149.267904
516.994235	11209.723941
517.357925	11272.340113
517.721558	11352.333142
518.085133	11368.358971
518.448651	11382.340611
518.812112	11261.557085
519.175516	11277.958479
519.538863	11402.517829
519.902152	11316.823255
520.265385	11472.836884
520.628560	11390.474512
520.991678	11365.472910
521.354739	11431.219638
521.717743	11364.694052
522.080690	11339.647079
522.443580	11477.999026
522.806413	11428.812488
523.169189	11463.556120
523.531908	11520.863957
523.894569	11350.268790
524.257174	11346.364416
524.619722	11468.042747
524.982213	11419.551888
525.344647	11460.420522
525.707025	11415.206413
526.069345	11511.303408
526.431608	11426.725450
526.793815	11536.322655
527.155964	11328.175933
527.518057	11377.463294
527.880093	11327.754997
528.242072	11398.061449
528.603995	11297.089658
528.965860	11214.210568
529.327669	11272.360278
529.689421	11224.214738
530.051117	11193.251971
530.412755	11297.364401
530.774337	11185.932216
531.135862	11162.301807
531.497331	11189.662670
531.858743	11042.922243
532.220098	11213.093953
532.581396	11082.331463
532.942638	11062.809595
533.303824	11028.985973
533.664953	11039.648013
534.026025	10957.782196
534.387040	11057.695344
534.747999	11058.680890
535.108902	11110.821544
535.469748	10866.791889
535.830537	10980.656431
536.191270	10952.657863
536.551947	10980.346400
536.912567	10983.552574
537.273131	10905.906202
537.633638	10878.754547
537.994089	10869.592250
538.354483	10812.624691
538.714821	10965.417023
539.075103	10973.021604
539.435328	10940.213774
539.795497	10760.093348
540.155609	10923.134345
540.515665	11004.843887
540.875665	10743.036603
541.235609	10812.609568
541.595496	10805.194030
541.955328	10963.173710
542.315102	10847.751451
542.674821	10796.465272
543.034483	10796.765221
543.394090	10801.720675
543.753640	10726.151259
544.113134	10955.548964
544.472571	10802.872579
544.831953	10945.496904
545.191278	10757.847513
545.550548	10777.767633
545.909761	10927.194995
546.268918	10896.146528
546.628019	10978.282048
546.987064	10841.026552
547.346053	10767.105592
547.704986	10858.582370
548.063863	10847.771616
548.422684	10839.027734
548.781449	10757.915569
549.140158	10855.436690
549.498811	10746.424259
549.857408	10598.058060
550.215949	10825.172123
550.574434	10674.539926
550.932864	10772.839905
551.291237	10832.305356
551.649555	10783.935485
552.007817	10797.130705
552.366022	10754.880794
552.724173	10748.990206
553.082267	10741.562066
553.440305	10876.455781
553.798288	10672.553711
554.156215	10825.872843
554.514086	10798.264964
554.871902	10650.314661
555.229661	10683.699702
555.587365	10671.530357
555.945014	10561.923069
556.302606	10691.117760
556.660143	10579.103322
557.017625	10737.297250
557.375050	10627.420261
557.732421	10766.747671
558.089735	10677.962869
558.446994	10673.254431
558.804197	10712.719104
559.161345	10712.643487
559.518437	10564.849459
559.875474	10653.790536
560.232455	10682.268014
560.589381	10632.615170
560.946251	10623.142842
561.303065	10736.883875
561.659825	10672.604122
562.016528	10608.606674
562.373177	10480.642025
562.729770	10595.751732
563.086307	10513.217961
563.442789	10606.633063
563.799216	10487.767696
564.155587	10533.795951
564.511904	10482.078754
564.868164	10474.204472
565.224370	10497.892854
565.580520	10419.633981
565.936615	10426.769735
566.292654	10297.685949
566.648638	10425.542214
567.004567	10378.972034
567.360441	10366.780004
567.716260	10276.939081
568.072023	10370.144974
568.427732	10323.892388
568.783385	10221.148631
569.138982	10303.589140
569.494525	10312.343104
569.850013	10193.775166
570.205445	10279.300861
570.560823	10173.920581
570.916145	10090.691131
571.271412	10154.549948
571.626625	10108.110838
571.981782	10080.649153
572.336884	10050.268639
572.691931	10057.235514
573.046923	10003.726186
573.401860	9963.215474
573.756743	9894.249969
574.111570	9931.252038
574.466342	9924.534700
574.821059	9947.943298
575.175722	9840.518830
575.530330	9848.030150
575.884882	9843.578811
576.239380	9774.104149
576.593823	9748.376620
576.948211	9762.575030
577.302544	9642.930805
577.656823	9664.345627
578.011047	9665.328652
578.365216	9634.297829
578.719330	9555.479389
579.073389	9570.905320
579.427394	9515.432463
579.781344	9495.345985
580.135239	9443.754817
580.489080	9450.444428
580.842866	9354.516312
581.196597	9367.585503
581.550273	9401.918281
581.903895	9367.323363
582.257463	9433.899361
582.610975	9311.812697
582.964434	9338.306481
583.317837	9258.673895
583.671186	9240.316533
584.024481	9236.969207
584.377721	9160.915839
584.730906	9135.853743
585.084037	9160.605808
585.437113	9100.638763
585.790135	9119.631310
586.143103	9018.878809
586.496016	8998.139502
586.848874	9052.190754
587.201679	9041.304382
587.554428	8925.239376
587.907124	8969.813259
588.259765	8944.577242
588.612352	8938.111963
588.964884	8822.596443
589.317362	8836.129420
589.669786	8837.049431
590.022155	8881.154486
590.374470	8899.244667
590.726731	8836.134462
591.078937	8684.491513
591.431090	8800.400242
591.783188	8676.481119
592.135232	8669.070623
592.487222	8668.420314
592.839157	8719.083910
593.191038	8655.756936
593.542866	8596.498172
593.894639	8498.730035
594.246358	8554.079383
594.598022	8565.469870
594.949633	8464.513203
595.301190	8439.990510
595.652692	8471.664080
596.004141	8577.591325
596.355535	8356.738375
596.706876	8337.695416
597.058162	8273.695447
597.409395	8348.985080
597.760573	8411.608814
598.111698	8318.927200
598.462768	8302.162843
598.813785	8270.574973
599.164748	8233.209941
599.515657	8230.646514
599.866511	8135.721587
600.217312	8265.634643
600.568060	8125.094835
600.918753	8224.627377
601.269392	8197.006895
601.619978	8109.492464
601.970510	8171.758276
602.320988	8167.863984
602.671412	8223.520843
603.021783	8159.009198
603.372100	8134.113459
603.722363	8139.809963
604.072572	8104.398378
604.422728	8125.195658
604.772830	8050.047178
605.122878	8059.413642
605.472872	8056.056233
605.822813	8081.168741
606.172701	8026.036162
606.522534	8100.143644
606.872314	8105.053728
607.222041	8070.859581
607.571714	8127.582644
607.921333	8081.423319
608.270899	8089.630318
608.620411	8180.608021
608.969870	8079.661436
609.319276	8078.423833
609.668627	8090.076460
610.017926	8134.385682
610.367171	8176.648195
610.716362	8151.157600
611.065500	8146.776838
611.414585	8171.501177
611.763616	8162.858118
612.112594	8143.358935
612.461518	8155.840832
612.810389	8216.216211
613.159207	8154.898137
613.507971	8104.368131
613.856682	8226.835402
614.205340	8182.001900
614.553945	8257.641893
614.902496	8153.741192
615.250994	8209.655150
615.599439	8191.580093
615.947830	8206.849748
616.296169	8181.946448
616.644454	8190.103034
616.992686	8190.977675
617.340864	8247.945234
617.688990	8152.470821
618.037063	8242.808298
618.385082	8188.021038
618.733048	8267.547760
619.080961	8215.780152
619.428821	8234.326557
619.776628	8227.979744
620.124382	8186.402827
620.472083	8169.212493
620.819731	8193.286523
621.167326	8093.484280
621.514868	8096.771112
621.862357	7987.040316
622.209793	8001.211000
622.557176	7939.971063
622.904506	7911.594408
623.251783	7839.395002
623.599007	7795.509238
623.946179	7798.778426
624.293297	7754.892661
624.640363	7678.446084
624.987376	7653.726786
625.334336	7602.957325
625.681243	7553.400263
626.028097	7540.860392
626.374899	7519.967330
626.721647	7513.963316
627.068343	7440.488499
627.414987	7416.510250
627.761577	7369.035184
628.108115	7408.058756
628.454600	7298.809390
628.801032	7350.274530
629.147412	7310.756925
629.493739	7301.297200
629.840014	7234.388485
630.186236	7294.887373
630.532405	7180.402769
630.878521	7230.330357
631.224585	7182.356216
631.570597	7107.548013
631.916556	7143.398179
632.262462	7137.368959
632.608316	7102.272446
632.954117	7077.724547
633.299866	7063.291724
633.645562	7060.539254
633.991206	6981.733416
634.336797	6923.732421
634.682336	6877.663836
635.027823	6842.219484
635.373257	6835.527352
635.718639	6765.752742
636.063968	6781.798734
636.409245	6674.712024
636.754470	6671.299163
637.099642	6628.792153
637.444762	6574.788793
637.789829	6584.145174
638.134845	6528.921854
638.479808	6508.124574
638.824719	6515.038517
639.169577	6438.486075
639.514383	6462.439117
639.859137	6391.003447
640.203839	6406.966261
640.548489	6384.840636
