Dividing Wavelength (nm)	Counts (n)	Blue Motor Position (mm): 34.100000	Red Motor Position (mm): 0.000000	
326.493990	2131.782974
326.888308	2131.782974
327.282561	2131.782974
327.676750	2099.048241
328.070874	2099.759044
328.464933	2100.658890
328.858929	2106.191556
329.252859	2117.130860
329.646726	2128.458333
330.040528	2141.411578
330.434265	2157.956645
330.827938	2173.160765
331.221547	2193.166584
331.615091	2211.039995
332.008571	2230.087994
332.401986	2250.736561
332.795338	2270.475198
333.188625	2288.890533
333.581847	2308.593883
333.975006	2327.626760
334.368100	2345.318689
334.761129	2361.926770
335.154095	2378.552496
335.546996	2401.320867
335.939833	2424.535381
336.332606	2441.009871
336.725315	2452.596963
337.117960	2461.411421
337.510540	2466.747482
337.903056	2482.632158
338.295508	2487.247334
338.687896	2497.369971
339.080220	2507.124604
339.472480	2510.628206
339.864676	2516.763290
340.256807	2520.299660
340.648875	2526.114631
341.040879	2525.340813
341.432818	2528.778880
341.824694	2528.070598
342.216506	2529.973634
342.608253	2527.533715
342.999937	2530.233253
343.391557	2529.144364
343.783113	2529.167049
344.174605	2526.621267
344.566033	2524.128416
344.957397	2524.279651
345.348697	2523.689836
345.739934	2523.203364
346.131106	2519.954341
346.522215	2518.167252
346.913260	2515.409740
347.304241	2517.317817
347.695159	2511.218021
348.086012	2511.291118
348.476802	2509.375479
348.867528	2507.054028
349.258191	2505.821466
349.648789	2503.842813
350.039324	2503.779798
350.429796	2504.203255
350.820203	2500.059427
351.210548	2501.102946
351.600828	2501.833913
351.991045	2501.433141
352.381198	2496.732265
352.771288	2500.112359
353.161314	2494.695639
353.551276	2495.756802
353.941175	2497.475836
354.331010	2498.685713
354.720782	2497.100270
355.110490	2497.768223
355.500135	2498.153871
355.889717	2498.375682
356.279235	2498.816783
356.668689	2497.559015
357.058080	2496.039107
357.447408	2497.004488
357.836672	2494.564569
358.225873	2498.141268
358.615010	2491.940649
359.004084	2496.616319
359.393095	2500.782832
359.782043	2500.079592
360.170927	2499.711587
360.559748	2499.895589
360.948505	2502.297699
361.337199	2502.033039
361.725830	2503.096722
362.114398	2506.060921
362.502903	2504.999758
362.891344	2506.247443
363.279722	2503.812566
363.668037	2505.947495
364.056289	2504.790550
364.444478	2503.220230
364.832603	2507.258195
365.220665	2505.685355
365.608665	2508.294152
365.996601	2509.680469
366.384474	2507.721981
366.772284	2509.718278
367.160031	2509.811539
367.547715	2511.472599
367.935336	2509.188957
368.322893	2507.895901
368.710388	2511.709533
369.097820	2514.542662
369.485189	2510.555109
369.872495	2513.778927
370.259738	2511.230624
370.646918	2510.950840
371.034035	2510.426560
371.421090	2511.336488
371.808081	2511.845645
372.195010	2512.737929
372.581875	2514.129287
372.968678	2512.503515
373.355418	2512.556447
373.742096	2515.089627
374.128710	2515.840759
374.515262	2514.938392
374.901751	2515.999555
375.288177	2513.768845
375.674540	2513.529390
376.060841	2517.032992
376.447079	2514.754390
376.833254	2515.268588
377.219367	2510.933196
377.605417	2513.746160
377.991404	2513.763804
378.377329	2516.047446
378.763191	2510.963443
379.148991	2515.649195
379.534727	2516.659947
379.920402	2514.971160
380.306013	2516.722961
380.691563	2520.166069
381.077049	2516.992663
381.462474	2519.193126
381.847835	2519.583816
382.233134	2521.491893
382.618371	2516.322189
383.003545	2520.161028
383.388657	2517.852179
383.773706	2520.098013
384.158693	2520.544156
384.543618	2522.154804
384.928480	2522.595905
385.313280	2521.897705
385.698017	2518.474762
386.082692	2524.892151
386.467305	2522.479959
386.851856	2523.896523
387.236344	2523.873838
387.620770	2522.527850
388.005133	2522.888292
388.389435	2526.318797
388.773674	2520.546676
389.157851	2523.659589
389.541965	2523.616739
389.926018	2526.308715
390.310008	2525.761750
390.693936	2525.202182
391.077802	2525.303005
391.461606	2527.531195
391.845348	2527.891637
392.229027	2527.105217
392.612645	2525.330731
392.996200	2530.671834
393.379694	2528.272244
393.763125	2527.541277
394.146494	2527.846267
394.529801	2530.475229
394.913047	2530.596216
395.296230	2530.329035
395.679351	2531.032276
396.062410	2532.647966
396.445408	2530.896165
396.828343	2532.801721
397.211217	2528.128572
397.594028	2531.390198
397.976778	2528.688140
398.359466	2533.431865
398.742092	2530.371885
399.124656	2533.434386
399.507158	2536.040662
399.889598	2536.380940
400.271977	2536.902700
400.654294	2535.087884
401.036549	2537.351363
401.418742	2535.672658
401.800874	2536.519572
402.182944	2535.324819
402.564952	2537.492515
402.946898	2539.481250
403.328783	2539.168698
403.710606	2538.490663
404.092367	2540.229861
404.474067	2542.828576
404.855705	2543.562064
405.237282	2543.942671
405.618797	2545.780172
406.000250	2543.998124
406.381642	2548.469627
406.762972	2553.742674
407.144240	2555.930535
407.525447	2560.328942
407.906593	2563.414128
408.287677	2572.203380
408.668700	2577.587332
409.049661	2583.334247
409.430560	2590.268354
409.811399	2599.970055
410.192176	2613.757611
410.572891	2622.443519
410.953545	2633.650004
411.334138	2646.406644
411.714669	2660.748726
412.095139	2669.195180
412.475547	2691.303160
412.855894	2705.194059
413.236180	2722.152501
413.616405	2737.943915
413.996568	2760.296391
414.376670	2776.170985
414.756711	2791.856535
415.136691	2816.787561
415.516609	2848.796368
415.896466	2878.360214
416.276262	2907.810635
416.655997	2926.989705
417.035670	2984.274857
417.415283	3032.685057
417.794834	3051.070145
418.174324	3073.778023
418.553753	3088.059612
418.933121	3159.686846
419.312428	3213.715412
419.691674	3238.328846
420.070859	3307.473312
420.449983	3320.597956
420.829045	3397.097466
421.208047	3407.207500
421.586988	3473.541523
421.965867	3524.139584
422.344686	3620.765900
422.723444	3610.890280
423.102141	3578.042121
423.480777	3741.433479
423.859352	3699.927139
424.237866	3859.338506
424.616319	3898.425092
424.994712	3998.829753
425.373044	3988.258454
425.751314	4113.092547
426.129524	4061.135894
426.507673	4211.558884
426.885762	4305.757885
427.263789	4323.454855
427.641756	4294.281698
428.019662	4419.405657
428.397508	4471.226198
428.775292	4489.167665
429.153016	4599.389973
429.530679	4597.290332
429.908282	4704.117423
430.285824	4652.858971
430.663305	4889.707502
431.040726	4745.452364
431.418086	4784.380154
431.795385	4901.218977
432.172624	4953.336946
432.549802	4988.398171
432.926920	5032.992218
433.303977	5076.802366
433.680974	5137.860821
434.057910	5187.816135
434.434786	5229.524121
434.811601	5233.783896
435.188355	5463.700841
435.565050	5386.848451
435.941683	5399.219442
436.318257	5616.097442
436.694770	5627.288804
437.071222	5687.273493
437.447614	5651.451054
437.823946	5595.358135
438.200218	5758.898207
438.576429	5655.012629
438.952580	5766.001193
439.328670	5826.674000
439.704700	5759.374596
440.080670	5760.735708
440.456580	6038.185692
440.832429	5936.409837
441.208218	5801.710206
441.583947	5957.612930
441.959616	5978.100179
442.335224	5917.467702
442.710773	6059.406429
443.086261	6093.958498
443.461689	5900.234517
443.837057	6058.740997
444.212365	6214.134564
444.587612	6115.380881
444.962800	6268.289159
445.337927	6256.462612
445.712995	5873.897009
446.088002	6452.596265
446.462949	6288.713394
446.837837	6218.033897
447.212664	6395.989148
447.587431	6535.061980
447.962139	7075.788744
448.336786	7999.098756
448.711374	7739.975887
449.085901	6825.923954
449.460369	6747.730617
449.834776	6681.978847
450.209124	7077.704383
450.583412	7231.053762
450.957640	7374.182202
451.331808	7141.089331
451.705917	6696.520055
452.079965	6621.666482
452.453954	6836.475089
452.827883	6705.788217
453.201752	6804.224307
453.575562	6603.268791
453.949311	6807.501057
454.323001	6696.323450
454.696632	6770.977898
455.070202	6905.979998
455.443713	7062.142341
455.817164	7165.549009
456.190556	7246.081442
456.563888	7321.774367
456.937160	7368.405040
457.310373	7023.920312
457.683526	7048.397635
458.056619	6937.368742
458.429653	6930.074192
458.802628	6864.486260
459.175542	6970.133721
459.548398	7324.899882
459.921194	7483.844942
460.293930	7486.483986
460.666607	8014.242382
461.039224	8325.437851
461.411782	8445.563506
461.784280	8472.316909
462.156719	8358.114610
462.529099	8237.850323
462.901419	7827.656676
463.273680	7723.975265
463.645882	7738.461020
464.018024	7599.090760
464.390106	7768.261801
464.762130	8158.631111
465.134094	8624.905074
465.505999	9638.154312
465.877845	10858.504232
466.249631	11505.891730
466.621358	11119.015940
466.993026	10495.823460
467.364634	10243.995140
467.736184	9876.641218
468.107674	9541.817862
468.479105	9579.790353
468.850477	9345.739663
469.221790	9116.430177
469.593043	8785.274260
469.964238	8650.705700
470.335373	8664.926795
470.706449	8725.463491
471.077467	8708.278197
471.448425	10013.755562
471.819324	11077.277706
472.190164	11098.271592
472.560945	9849.915541
472.931667	9067.478053
473.302330	8930.983771
473.672934	8580.106861
474.043479	8939.591541
474.413965	8876.158703
474.784393	8755.947348
475.154761	8919.106813
475.525070	9008.783898
475.895321	8829.361671
476.265513	9006.210389
476.635645	9177.322274
477.005719	9173.712808
477.375734	9289.581209
477.745691	9526.147435
478.115588	9660.736161
478.485427	9907.054499
478.855207	10438.346744
479.224928	11249.407904
479.594591	11876.618184
479.964194	11690.299658
480.333739	11628.084258
480.703226	11543.755836
481.072653	11633.115329
481.442022	11874.468132
481.811333	12056.637787
482.180584	11862.089578
482.549777	11576.356978
482.918912	11403.049671
483.287988	11422.843761
483.657005	11433.369691
484.025964	11113.758016
484.394864	11248.142575
484.763706	11220.779192
485.132489	10972.116717
485.501213	10933.267064
485.869879	11016.259580
486.238487	10855.008192
486.607036	10965.969029
486.975527	10739.621222
487.343959	10937.239494
487.712333	10985.319498
488.080648	10914.922306
488.448905	10963.365273
488.817104	10902.947045
489.185244	11167.413537
489.553326	11327.051756
489.921350	11863.503622
490.289315	12913.999425
490.657222	13257.430551
491.025070	13167.914783
491.392861	13035.904607
491.760593	12660.348728
492.128267	12309.726396
492.495883	11978.492341
492.863440	11641.576906
493.230939	11317.990282
493.598380	11249.188614
493.965763	11121.652463
494.333088	11015.452996
494.700354	10935.200347
495.067563	10999.278453
495.434713	10829.114305
495.801805	10955.554006
496.168839	10874.701460
496.535815	10814.225258
496.902733	10816.738273
497.269593	10753.476833
497.636395	10849.281441
498.003139	10837.527991
498.369825	10704.756602
498.736453	10867.376663
499.103023	10789.543768
499.469535	10827.591877
499.835989	10816.055196
500.202385	10765.613411
500.568723	10620.516400
500.935003	10843.910092
501.301226	10647.410956
501.667390	10908.704042
502.033497	11008.110555
502.399546	10867.222908
502.765537	10775.305029
503.131470	10848.658859
503.497345	11021.129335
503.863163	10636.403597
504.228923	10942.086563
504.594625	10998.091262
504.960269	10752.904662
505.325856	10977.293982
505.691385	10767.103072
506.056856	10931.182547
506.422270	10948.652666
506.787625	10835.962713
507.152924	10949.076123
507.518164	10930.267578
507.883347	10851.746566
508.248472	10772.885275
508.613540	11011.725062
508.978550	10884.786288
509.343503	10872.057374
509.708398	10981.246246
510.073236	11093.759759
510.438016	11106.193765
510.802738	11050.279807
511.167403	11106.579413
511.532010	11005.726089
511.896561	11230.861499
512.261053	11302.871862
512.625488	11173.168014
512.989866	11158.079841
513.354186	11139.709876
513.718449	11043.239836
514.082655	11232.615821
514.446803	11137.796758
514.810894	11260.261509
515.174927	11123.323606
515.538904	11149.766978
515.902822	11296.731736
516.266684	11178.887203
516.630488	11122.779161
516.994235	11181.047338
517.357925	11243.812224
517.721558	11325.965387
518.085133	11341.161946
518.448651	11360.426715
518.812112	11243.673592
519.175516	11251.754562
519.538863	11378.093439
519.902152	11285.936105
520.265385	11448.309150
520.628560	11360.603155
520.991678	11340.289826
521.354739	11408.237018
521.717743	11338.943838
522.080690	11319.767289
522.443580	11452.873915
522.806413	11411.654920
523.169189	11438.488982
523.531908	11501.168169
523.894569	11310.728500
524.257174	11326.061169
524.619722	11444.440064
524.982213	11385.183822
525.344647	11436.099475
525.707025	11382.963193
526.069345	11475.906947
526.431608	11401.126471
526.793815	11504.094558
527.155964	11294.566561
527.518057	11356.245078
527.880093	11302.970164
528.242072	11370.635052
528.603995	11282.981989
528.965860	11199.074504
529.327669	11241.122768
529.689421	11193.859430
530.051117	11165.969247
530.412755	11269.219639
530.774337	11159.014975
531.135862	11137.358178
531.497331	11159.975315
531.858743	11016.108346
532.220098	11182.700836
532.581396	11051.010774
532.942638	11032.325737
533.303824	10996.788123
533.664953	11017.209838
534.026025	10930.958216
534.387040	11024.239727
534.747999	11028.565037
535.108902	11088.930333
535.469748	10840.245173
535.830537	10947.518406
536.191270	10932.778073
536.551947	10953.555188
536.912567	10947.901534
537.273131	10873.239525
537.633638	10851.295382
537.994089	10835.506488
538.354483	10798.169182
538.714821	10940.634711
539.075103	10947.004209
539.435328	10911.091029
539.795497	10734.310366
540.155609	10894.107381
540.515665	10978.327418
540.875665	10716.066430
541.235609	10788.074272
541.595496	10779.731162
541.955328	10938.371233
542.315102	10823.087606
542.674821	10769.535429
543.034483	10769.404359
543.394090	10778.614547
543.753640	10701.013545
544.113134	10931.023751
544.472571	10783.229723
544.831953	10922.047977
545.191278	10728.782741
545.550548	10755.614282
545.909761	10894.666949
546.268918	10870.368588
546.628019	10948.251894
546.987064	10814.971348
547.346053	10738.091232
547.704986	10839.247025
548.063863	10824.955353
548.422684	10817.859929
548.781449	10734.779193
549.140158	10835.191416
549.498811	10709.034021
549.857408	10571.380274
550.215949	10797.912084
550.574434	10652.439507
550.932864	10750.283262
551.291237	10807.482714
551.649555	10761.076372
552.007817	10761.562844
552.366022	10730.128729
552.724173	10720.699251
553.082267	10711.957890
553.440305	10841.596202
553.798288	10647.554629
554.156215	10797.062649
554.514086	10774.337128
554.871902	10627.442946
555.229661	10661.059880
555.587365	10644.043465
555.945014	10532.414675
556.302606	10658.267081
556.660143	10557.678418
557.017625	10706.359689
557.375050	10607.749678
557.732421	10740.475697
558.089735	10654.675259
558.446994	10657.339509
558.804197	10691.967194
559.161345	10695.647237
559.518437	10539.212671
559.875474	10629.345981
560.232455	10651.935392
560.589381	10606.791859
560.946251	10608.856212
561.303065	10711.955369
561.659825	10646.243929
562.016528	10575.705584
562.373177	10451.501635
562.729770	10576.807076
563.086307	10487.296348
563.442789	10578.417725
563.799216	10462.135949
564.155587	10505.522640
564.511904	10461.518408
564.868164	10452.398961
565.224370	10468.898657
565.580520	10390.488550
565.936615	10395.325537
566.292654	10272.197875
566.648638	10394.518953
567.004567	10365.542401
567.360441	10339.797228
567.716260	10245.983875
568.072023	10338.388225
568.427732	10298.706783
568.783385	10209.024656
569.138982	10278.428742
569.494525	10296.949941
569.850013	10172.090642
570.205445	10251.637529
570.560823	10146.264811
570.916145	10063.975536
571.271412	10136.490014
571.626625	10080.195449
571.981782	10051.397858
572.336884	10029.335248
572.691931	10030.487151
573.046923	9976.680396
573.401860	9941.719994
573.756743	9877.997289
574.111570	9909.426362
574.466342	9900.652234
574.821059	9929.495196
575.175722	9828.281429
575.530330	9831.250669
575.884882	9818.557044
576.239380	9744.933512
576.593823	9728.612777
576.948211	9746.052648
577.302544	9620.343916
577.656823	9641.657914
578.011047	9649.587649
578.365216	9615.511970
578.719330	9537.033807
579.073389	9544.424139
579.427394	9496.132405
579.781344	9474.440320
580.135239	9423.358308
580.489080	9429.107744
580.842866	9334.898661
581.196597	9339.186163
581.550273	9380.901711
581.903895	9348.098923
582.257463	9414.926979
582.610975	9291.428792
582.964434	9318.338471
583.317837	9239.583045
583.671186	9219.355415
584.024481	9217.883398
584.377721	9132.312332
584.730906	9119.364129
585.084037	9145.820104
585.437113	9082.541020
585.790135	9098.468546
586.143103	9002.767281
586.496016	8972.210327
586.848874	9030.869193
587.201679	9019.813943
587.554428	8900.885562
587.907124	8949.522614
588.259765	8921.710569
588.612352	8922.577647
588.964884	8800.937125
589.317362	8815.448087
589.669786	8819.682656
590.022155	8866.595634
590.374470	8881.925782
590.726731	8814.606214
591.078937	8671.689503
591.431090	8785.566647
591.783188	8659.079056
592.135232	8650.690576
592.487222	8645.160430
592.839157	8695.697998
593.191038	8633.328842
593.542866	8576.323475
593.894639	8479.850913
594.246358	8534.769243
594.598022	8548.483702
594.949633	8441.686858
595.301190	8418.099299
595.652692	8448.094165
596.004141	8553.822284
596.355535	8334.005292
596.706876	8323.370978
597.058162	8255.338086
597.409395	8329.584200
597.760573	8391.532419
598.111698	8299.090260
598.462768	8284.107951
598.813785	8251.421109
599.164748	8217.899957
599.515657	8209.450983
599.866511	8117.848176
600.217312	8253.745081
600.568060	8104.451310
600.918753	8205.284469
601.269392	8176.116353
601.619978	8088.294412
601.970510	8158.028693
602.320988	8147.389338
602.671412	8205.342443
603.021783	8145.640057
603.372100	8115.098227
603.722363	8118.380018
604.072572	8097.048376
604.422728	8104.894932
604.772830	8035.208541
605.122878	8040.186681
605.472872	8032.004888
605.822813	8062.292140
606.172701	8011.709203
606.522534	8081.929955
606.872314	8087.591171
607.222041	8055.786531
607.571714	8111.128318
607.921333	8067.255156
608.270899	8076.964419
608.620411	8166.938932
608.969870	8065.347080
609.319276	8060.769712
609.668627	8074.930313
610.017926	8111.697969
610.367171	8158.288313
610.716362	8135.930795
611.065500	8128.485011
611.414585	8154.835122
611.763616	8141.801219
612.112594	8125.513251
612.461518	8138.395919
612.810389	8200.976803
613.159207	8136.467678
613.507971	8087.344154
613.856682	8205.324798
614.205340	8160.506420
614.553945	8240.217145
614.902496	8140.659398
615.250994	8188.431892
615.599439	8176.388575
615.947830	8195.121503
616.296169	8163.367275
616.644454	8170.845827
616.992686	8170.175353
617.340864	8230.835558
617.688990	8132.865774
618.037063	8226.273313
618.385082	8175.645005
618.733048	8263.005681
619.080961	8195.716359
619.428821	8214.149338
619.776628	8220.823826
620.124382	8168.670569
620.472083	8150.908063
620.819731	8179.660284
621.167326	8073.543996
621.514868	8083.225532
621.862357	7969.033315
622.209793	7986.190882
622.557176	7924.746778
622.904506	7890.053557
623.251783	7825.975451
623.599007	7783.014738
623.946179	7784.786703
624.293297	7740.966474
624.640363	7660.066037
624.987376	7645.199674
625.334336	7587.032320
625.681243	7541.419960
626.028097	7532.124073
626.374899	7507.893767
626.721647	7499.071748
627.068343	7424.480315
627.414987	7403.899804
627.761577	7358.174018
628.108115	7395.534009
628.454600	7285.135261
628.801032	7340.923190
629.147412	7302.479350
629.493739	7283.905219
629.840014	7221.528502
630.186236	7280.172245
630.532405	7162.667990
630.878521	7214.458284
631.224585	7173.143507
631.570597	7096.394461
631.916556	7131.256560
632.262462	7127.737835
632.608316	7089.341886
632.954117	7063.722742
633.299866	7049.168931
633.645562	7038.209463
633.991206	6962.304809
634.336797	6912.397386
634.682336	6863.788060
635.027823	6832.517783
635.373257	6825.185425
635.718639	6757.389467
636.063968	6768.001096
636.409245	6666.058883
636.754470	6660.871536
637.099642	6618.793025
637.444762	6564.590538
637.789829	6573.457928
638.134845	6516.697056
638.479808	6499.526886
638.824719	6501.308934
639.169577	6434.178409
639.514383	6455.336132
639.859137	6387.963631
640.203839	6394.633078
640.548489	6376.391662
