Dividing Wavelength (nm)	Counts (n)	Blue Motor Position (mm): 3.600000	Red Motor Position (mm): 0.000000	
326.493990	2064.246636
326.888308	2064.246636
327.282561	2064.246636
327.676750	2037.609179
328.070874	2041.231248
328.464933	2046.582433
328.858929	2055.059133
329.252859	2067.740155
329.646726	2077.618296
330.040528	2096.169743
330.434265	2112.868565
330.827938	2134.810187
331.221547	2153.638896
331.615091	2176.591270
332.008571	2196.370237
332.401986	2216.076107
332.795338	2234.950187
333.188625	2256.957344
333.581847	2276.940478
333.975006	2291.148970
334.368100	2311.951292
334.761129	2326.749599
335.154095	2340.461537
335.546996	2356.111799
335.939833	2369.286855
336.332606	2385.751263
336.725315	2395.329456
337.117960	2404.814387
337.510540	2417.553382
337.903056	2423.990936
338.295508	2434.572318
338.687896	2439.303441
339.080220	2441.758483
339.472480	2449.743670
339.864676	2449.471448
340.256807	2455.094855
340.648875	2454.479834
341.040879	2454.868003
341.432818	2456.057716
341.824694	2459.722634
342.216506	2457.625514
342.608253	2457.229784
342.999937	2457.895216
343.391557	2458.472428
343.783113	2453.252313
344.174605	2454.502520
344.566033	2452.869186
344.957397	2455.112499
345.348697	2451.530759
345.739934	2449.070676
346.131106	2443.520366
346.522215	2444.211004
346.913260	2443.366611
347.304241	2438.554829
347.695159	2435.857812
348.086012	2441.135900
348.476802	2439.409305
348.867528	2433.327153
349.258191	2429.042172
349.648789	2430.226843
350.039324	2428.041503
350.429796	2429.871442
350.820203	2430.587286
351.210548	2432.359251
351.600828	2431.401432
351.991045	2430.950249
352.381198	2427.522264
352.771288	2427.673499
353.161314	2426.445978
353.551276	2429.074940
353.941175	2431.078798
354.331010	2430.499066
354.720782	2427.827254
355.110490	2428.918664
355.500135	2427.751637
355.889717	2428.938828
356.279235	2428.636359
356.668689	2429.964703
357.058080	2428.956473
357.447408	2431.424117
357.836672	2430.461257
358.225873	2432.323963
358.615010	2432.122317
359.004084	2431.527461
359.393095	2430.907399
359.782043	2433.191042
360.170927	2432.011412
360.559748	2431.661052
360.948505	2435.212544
361.337199	2436.397216
361.725830	2432.671803
362.114398	2435.477205
362.502903	2435.278079
362.891344	2436.984510
363.279722	2435.822524
363.668037	2440.465427
364.056289	2437.750765
364.444478	2439.300920
364.832603	2440.639347
365.220665	2441.808894
365.608665	2439.729418
365.996601	2439.590787
366.384474	2439.986517
366.772284	2439.202618
367.160031	2442.043308
367.547715	2442.834769
367.935336	2440.644388
368.322893	2439.671445
368.710388	2436.394695
369.097820	2439.744542
369.485189	2439.449634
369.872495	2442.968360
370.259738	2440.858637
370.646918	2440.712443
371.034035	2441.642536
371.421090	2444.775613
371.808081	2442.738987
372.195010	2443.028853
372.581875	2444.541200
372.968678	2443.049018
373.355418	2444.871395
373.742096	2442.560026
374.128710	2442.449121
374.515262	2445.670418
374.901751	2443.006168
375.288177	2444.805860
375.674540	2447.260902
376.060841	2444.727722
376.447079	2445.927517
376.833254	2445.849379
377.219367	2445.350305
377.605417	2447.986828
377.991404	2444.964657
378.377329	2446.648402
378.763191	2448.901798
379.148991	2448.460697
379.534727	2448.382559
379.920402	2447.999431
380.306013	2448.780810
380.691563	2449.042950
381.077049	2446.484564
381.462474	2449.146294
381.847835	2449.922631
382.233134	2450.595625
382.618371	2449.330296
383.003545	2448.712754
383.388657	2449.927672
383.773706	2449.610080
384.158693	2449.141252
384.543618	2453.960596
384.928480	2450.643516
385.313280	2451.976902
385.698017	2450.376335
386.082692	2451.858434
386.467305	2451.475307
386.851856	2452.206274
387.236344	2451.223249
387.620770	2448.022116
388.005133	2450.767025
388.389435	2447.979267
388.773674	2450.068825
389.157851	2451.624021
389.541965	2454.530246
389.926018	2455.004114
390.310008	2451.263578
390.693936	2454.419341
391.077802	2451.641665
391.461606	2454.719289
391.845348	2451.429936
392.229027	2456.536625
392.612645	2454.442026
392.996200	2452.546552
393.379694	2454.517643
393.763125	2456.995370
394.146494	2456.927315
394.529801	2455.334310
394.913047	2456.138374
395.296230	2455.677108
395.679351	2454.174845
396.062410	2456.347582
396.445408	2457.151646
396.828343	2458.568210
397.211217	2457.214660
397.594028	2457.567541
397.976778	2455.074691
398.359466	2459.573920
398.742092	2458.457305
399.124656	2456.549228
399.507158	2459.014352
399.889598	2459.793211
400.271977	2459.548715
400.654294	2458.278344
401.036549	2458.545525
401.418742	2460.377984
401.800874	2459.057202
402.182944	2457.968313
402.564952	2459.392439
402.946898	2460.234312
403.328783	2457.386060
403.710606	2459.886472
404.092367	2459.150463
404.474067	2461.557614
404.855705	2461.532409
405.237282	2461.976030
405.618797	2463.248922
406.000250	2462.555763
406.381642	2458.338838
406.762972	2458.873200
407.144240	2456.334979
407.525447	2460.660289
407.906593	2457.033179
408.287677	2461.766822
408.668700	2461.595423
409.049661	2461.212295
409.430560	2461.577779
409.811399	2462.182718
410.192176	2462.056689
410.572891	2462.868314
410.953545	2461.643314
411.334138	2464.446196
411.714669	2461.794549
412.095139	2464.826803
412.475547	2461.766822
412.855894	2464.320167
413.236180	2463.942080
413.616405	2464.990640
413.996568	2464.340331
414.376670	2461.741617
414.756711	2465.605661
415.136691	2465.673717
415.516609	2464.065588
415.896466	2463.831175
416.276262	2465.472070
416.655997	2464.612554
417.035670	2464.284879
417.415283	2465.814869
417.794834	2464.884776
418.174324	2467.601958
418.553753	2464.839406
418.933121	2469.600775
419.312428	2466.112297
419.691674	2466.429890
420.070859	2466.661783
420.449983	2469.013481
420.829045	2463.563994
421.208047	2468.985755
421.586988	2463.594241
421.965867	2469.426856
422.344686	2466.223202
422.723444	2465.867801
423.102141	2468.859726
423.480777	2470.051959
423.859352	2469.404170
424.237866	2466.515589
424.616319	2467.372585
424.994712	2468.458954
425.373044	2467.967442
425.751314	2468.355610
426.129524	2465.214972
426.507673	2465.265383
426.885762	2462.475104
427.263789	2471.670169
427.641756	2468.343008
428.019662	2468.600106
428.397508	2471.874336
428.775292	2468.963069
429.153016	2469.225209
429.530679	2469.227730
429.908282	2469.923409
430.285824	2469.852833
430.663305	2467.634725
431.040726	2471.218986
431.418086	2470.903914
431.795385	2469.033646
432.172624	2469.678913
432.549802	2468.562298
432.926920	2471.765951
433.303977	2468.912658
433.680974	2469.757051
434.057910	2471.178657
434.434786	2471.302165
434.811601	2472.222175
435.188355	2473.243009
435.565050	2474.094964
435.941683	2472.557412
436.318257	2472.499439
436.694770	2468.277473
437.071222	2470.835858
437.447614	2470.488018
437.823946	2472.050776
438.200218	2472.582618
438.576429	2470.853502
438.952580	2473.331229
439.328670	2471.783595
439.704700	2471.564305
440.080670	2473.142186
440.456580	2471.206383
440.832429	2474.977166
441.208218	2471.178657
441.583947	2472.872484
441.959616	2474.732670
442.335224	2475.158648
442.710773	2474.198308
443.086261	2472.519603
443.461689	2473.444655
443.837057	2472.776702
444.212365	2470.611527
444.587612	2471.871815
444.962800	2469.353759
445.337927	2471.418111
445.712995	2468.350569
446.088002	2472.965746
446.462949	2473.046404
446.837837	2471.806280
447.212664	2474.576394
447.587431	2471.347535
447.962139	2476.476909
448.336786	2475.829121
448.711374	2472.547330
449.085901	2474.465489
449.460369	2473.973976
449.834776	2476.202166
450.209124	2475.325006
450.583412	2475.163689
450.957640	2473.361476
451.331808	2474.778040
451.705917	2473.638740
452.079965	2477.545634
452.453954	2473.646301
452.827883	2476.804584
453.201752	2476.991107
453.575562	2474.289048
453.949311	2477.165027
454.323001	2472.854840
454.696632	2476.093782
455.070202	2475.244347
455.443713	2476.146714
455.817164	2476.834831
456.190556	2475.703092
456.563888	2475.894656
456.937160	2474.823411
457.310373	2478.659729
457.683526	2477.868268
458.056619	2477.661580
458.429653	2475.072948
458.802628	2476.895325
459.175542	2474.790643
459.548398	2477.159986
459.921194	2478.379945
460.293930	2479.425984
460.666607	2477.679224
461.039224	2477.898515
461.411782	2477.349029
461.784280	2477.124698
462.156719	2474.795684
462.529099	2475.047742
462.901419	2476.507156
463.273680	2474.042032
463.645882	2474.399954
464.018024	2474.984728
464.390106	2472.252422
464.762130	2478.478247
465.134094	2477.732157
465.505999	2478.873978
465.877845	2478.158134
466.249631	2478.437918
466.621358	2478.697538
466.993026	2477.676704
467.364634	2482.100316
467.736184	2479.879688
468.107674	2478.475727
468.479105	2480.154431
468.850477	2481.170223
469.221790	2478.097640
469.593043	2477.540593
469.964238	2478.090078
470.335373	2478.939513
470.706449	2479.962867
471.077467	2479.660398
471.448425	2478.722743
471.819324	2479.171406
472.190164	2481.331540
472.560945	2478.659729
472.931667	2478.926910
473.302330	2477.464975
473.672934	2479.655357
474.043479	2478.884060
474.413965	2478.926910
474.784393	2478.417753
475.154761	2481.349184
475.525070	2479.967908
475.895321	2479.362970
476.265513	2478.067393
476.635645	2476.764255
477.005719	2477.500263
477.375734	2478.962198
477.745691	2476.570171
478.115588	2481.059318
478.485427	2479.360449
478.855207	2479.357929
479.224928	2482.135604
479.594591	2480.373721
479.964194	2478.906745
480.333739	2479.867085
480.703226	2481.732312
481.072653	2482.211222
481.442022	2481.059318
481.811333	2477.215438
482.180584	2476.242496
482.549777	2478.906745
482.918912	2475.440952
483.287988	2479.975470
483.657005	2479.670480
484.025964	2481.369349
484.394864	2480.353557
484.763706	2477.764924
485.132489	2482.614514
485.501213	2480.330871
485.869879	2480.587970
486.238487	2482.894298
486.607036	2480.625779
486.975527	2483.322796
487.343959	2482.427991
487.712333	2478.785758
488.080648	2482.559061
488.448905	2479.718371
488.817104	2479.972949
489.185244	2482.433032
489.553326	2478.233751
489.921350	2482.168372
490.289315	2481.976808
490.657222	2482.919504
491.025070	2484.653661
491.392861	2481.520584
491.760593	2481.097127
492.128267	2482.314565
492.495883	2479.390696
492.863440	2483.579895
493.230939	2482.964874
493.598380	2482.165851
493.965763	2482.007055
494.333088	2480.552682
494.700354	2481.833135
495.067563	2479.972949
495.434713	2482.180975
495.801805	2481.760038
496.168839	2483.844556
496.535815	2480.764411
496.902733	2481.999493
497.269593	2482.536376
497.636395	2481.727271
498.003139	2482.312045
498.369825	2482.271716
498.736453	2479.720892
499.103023	2483.010245
499.469535	2484.908239
499.835989	2483.718527
500.202385	2480.887919
500.568723	2476.373566
500.935003	2484.323465
501.301226	2476.038329
501.667390	2484.152066
502.033497	2482.566623
502.399546	2481.061839
502.765537	2482.188537
503.131470	2480.981180
503.497345	2484.502426
503.863163	2482.876654
504.228923	2483.302632
504.594625	2484.527632
504.960269	2484.005873
505.325856	2480.875316
505.691385	2485.868579
506.056856	2484.063846
506.422270	2483.501757
506.787625	2483.201808
507.152924	2482.574185
507.518164	2482.707775
507.883347	2484.578043
508.248472	2481.674339
508.613540	2483.282467
508.978550	2484.557879
509.343503	2482.904380
509.708398	2483.847076
510.073236	2483.088383
510.438016	2485.301449
510.802738	2481.883547
511.167403	2483.552169
511.532010	2482.206181
511.896561	2486.314721
512.261053	2479.549493
512.625488	2484.512508
512.989866	2482.354895
513.354186	2483.516881
513.718449	2483.721047
514.082655	2485.069556
514.446803	2481.770121
514.810894	2484.240286
515.174927	2486.087869
515.538904	2483.652992
515.902822	2484.280615
516.266684	2485.155256
516.630488	2483.176603
516.994235	2484.820019
517.357925	2484.643578
517.721558	2484.452015
518.085133	2484.817498
518.448651	2481.565954
518.812112	2480.613176
519.175516	2481.926397
519.538863	2479.854482
519.902152	2484.699031
520.265385	2482.067549
520.628560	2482.972436
520.991678	2484.404124
521.354739	2484.109216
521.717743	2483.353043
522.080690	2483.471510
522.443580	2483.713486
522.806413	2485.369505
523.169189	2482.642240
523.531908	2484.232724
523.894569	2485.077118
524.257174	2486.473517
524.619722	2484.711634
524.982213	2486.841522
525.344647	2482.478403
525.707025	2485.278764
526.069345	2484.555358
526.431608	2486.712972
526.793815	2484.736840
527.155964	2488.144660
527.518057	2484.056284
527.880093	2484.000831
528.242072	2484.845225
528.603995	2484.182313
528.965860	2484.630976
529.327669	2485.772797
529.689421	2484.515029
530.051117	2486.357571
530.412755	2486.143322
530.774337	2485.162817
531.135862	2482.090234
531.497331	2488.187510
531.858743	2483.287508
532.220098	2486.317242
532.581396	2485.969402
532.942638	2487.143991
533.303824	2485.119967
533.664953	2485.326655
534.026025	2483.032930
534.387040	2483.610142
534.747999	2485.513178
535.108902	2483.257261
535.469748	2487.612818
535.830537	2483.111068
536.191270	2484.515029
536.551947	2482.722899
536.912567	2482.425471
537.273131	2481.139977
537.633638	2479.768783
537.994089	2484.333547
538.354483	2486.128198
538.714821	2485.482931
539.075103	2480.950933
539.435328	2484.898157
539.795497	2484.361274
540.155609	2485.825729
540.515665	2489.115082
540.875665	2487.199443
541.235609	2485.145173
541.595496	2484.378918
541.955328	2486.229021
542.315102	2485.911429
542.674821	2487.683394
543.034483	2485.064515
543.394090	2487.320431
543.753640	2486.511326
544.113134	2483.915132
544.472571	2485.792962
544.831953	2484.053763
545.191278	2484.938486
545.550548	2485.475369
545.909761	2488.028713
546.268918	2487.428816
546.628019	2485.659371
546.987064	2488.268168
547.346053	2485.208188
547.704986	2486.370174
548.063863	2486.740698
548.422684	2486.254227
548.781449	2488.585761
549.140158	2487.784217
549.498811	2485.775318
549.857408	2484.414206
550.215949	2488.116933
550.574434	2484.938486
550.932864	2486.367653
551.291237	2484.459576
551.649555	2486.455873
552.007817	2483.211891
552.366022	2484.583085
552.724173	2487.080976
553.082267	2485.283805
553.440305	2485.742550
553.798288	2486.934783
554.156215	2487.113744
554.514086	2484.701552
554.871902	2482.009576
555.229661	2485.251038
555.587365	2480.545120
555.945014	2486.665081
556.302606	2487.912767
556.660143	2486.138281
557.017625	2485.656850
557.375050	2487.164155
557.732421	2484.202478
558.089735	2486.347488
558.446994	2483.403455
558.804197	2484.313383
559.161345	2483.491675
559.518437	2485.813126
559.875474	2484.124340
560.232455	2484.585605
560.589381	2486.831439
560.946251	2483.085862
561.303065	2485.898826
561.659825	2486.145842
562.016528	2485.934114
562.373177	2485.780359
562.729770	2482.773310
563.086307	2484.913280
563.442789	2486.617190
563.799216	2487.312869
564.155587	2483.912611
564.511904	2487.559886
564.868164	2483.519401
565.224370	2487.040647
565.580520	2486.866727
565.936615	2488.550473
566.292654	2487.149032
566.648638	2486.791110
567.004567	2485.064515
567.360441	2484.613332
567.716260	2484.943527
568.072023	2483.443784
568.427732	2486.574340
568.783385	2486.307159
569.138982	2485.760194
569.494525	2486.110554
569.850013	2487.083497
570.205445	2486.652478
570.560823	2484.210039
570.916145	2486.249186
571.271412	2483.731130
571.626625	2484.686428
571.981782	2482.760708
572.336884	2484.915801
572.691931	2483.884885
573.046923	2485.815647
573.401860	2482.700214
573.756743	2486.407982
574.111570	2485.513178
574.466342	2485.344299
574.821059	2489.354537
575.175722	2488.913436
575.530330	2486.198774
575.884882	2484.353712
576.239380	2483.831953
576.593823	2487.741367
576.948211	2485.114926
577.302544	2486.226501
577.656823	2487.542242
578.011047	2484.734319
578.365216	2483.383290
578.719330	2485.825729
579.073389	2487.312869
579.427394	2488.512664
579.781344	2487.053250
580.135239	2482.637199
580.489080	2486.871768
580.842866	2485.798003
581.196597	2486.682725
581.550273	2487.091059
581.903895	2485.934114
582.257463	2484.928404
582.610975	2487.181799
582.964434	2486.511326
583.317837	2487.065853
583.671186	2486.246665
584.024481	2487.033085
584.377721	2485.853455
584.730906	2486.120637
585.084037	2490.052737
585.437113	2489.258755
585.790135	2487.963178
586.143103	2486.730616
586.496016	2486.360091
586.848874	2485.876141
587.201679	2484.041161
587.554428	2488.008549
587.907124	2488.104331
588.259765	2487.912767
588.612352	2483.907570
588.964884	2487.010400
589.317362	2486.410503
589.669786	2484.517550
590.022155	2485.566110
590.374470	2480.797178
590.726731	2485.452684
591.078937	2483.383290
591.431090	2488.679022
591.783188	2483.794144
592.135232	2484.701552
592.487222	2485.903867
592.839157	2487.789258
593.191038	2483.814309
593.542866	2488.386635
593.894639	2486.750781
594.246358	2488.958806
594.598022	2487.249855
594.949633	2486.360091
595.301190	2486.791110
595.652692	2484.814978
596.004141	2485.999649
596.355535	2486.092910
596.706876	2485.969402
597.058162	2490.002325
597.409395	2488.132057
597.760573	2485.558548
598.111698	2487.731285
598.462768	2489.213384
598.813785	2485.364463
599.164748	2483.012765
599.515657	2486.896974
599.866511	2487.176758
600.217312	2485.896305
600.568060	2483.768938
600.918753	2488.439567
601.269392	2483.859679
601.619978	2487.355719
601.970510	2484.197436
602.320988	2486.203816
602.671412	2486.203816
603.021783	2483.413537
603.372100	2488.071563
603.722363	2484.389000
604.072572	2484.893116
604.422728	2484.240286
604.772830	2487.345637
605.122878	2487.030565
605.472872	2486.082828
605.822813	2485.583754
606.172701	2487.020482
606.522534	2487.806903
606.872314	2485.954278
607.222041	2485.866058
607.571714	2485.694659
607.921333	2482.581747
608.270899	2483.779021
608.620411	2482.569144
608.969870	2487.416213
609.319276	2484.852786
609.668627	2487.554845
610.017926	2486.196254
610.367171	2485.346819
610.716362	2484.767087
611.065500	2486.823877
611.414585	2488.227839
611.763616	2485.422437
612.112594	2486.075266
612.461518	2485.780359
612.810389	2485.399752
613.159207	2485.024186
613.507971	2486.959989
613.856682	2483.388331
614.205340	2486.927221
614.553945	2485.271202
614.902496	2485.424957
615.250994	2485.893785
615.599439	2487.582571
615.947830	2485.319093
616.296169	2485.979484
616.644454	2486.397900
616.992686	2484.467138
617.340864	2488.863024
617.688990	2485.929073
618.037063	2484.653661
618.385082	2486.241624
618.733048	2485.346819
619.080961	2482.891778
619.428821	2488.394197
619.776628	2486.183651
620.124382	2487.660709
620.472083	2485.654330
620.819731	2487.948055
621.167326	2488.621049
621.514868	2488.036275
621.862357	2485.392190
622.209793	2487.476707
622.557176	2485.399752
622.904506	2486.206336
623.251783	2486.909577
623.599007	2485.792962
623.946179	2488.978971
624.293297	2483.968064
624.640363	2485.243476
624.987376	2483.015286
625.334336	2482.223825
625.681243	2483.484113
626.028097	2482.364977
626.374899	2485.442601
626.721647	2486.692808
627.068343	2487.078456
627.414987	2487.007880
627.761577	2488.394197
628.108115	2486.954948
628.454600	2485.677015
628.801032	2486.249186
629.147412	2485.462766
629.493739	2485.747591
629.840014	2485.576192
630.186236	2487.905205
630.532405	2485.326655
630.878521	2484.318424
631.224585	2489.473004
631.570597	2487.219608
631.916556	2485.125009
632.262462	2489.246152
632.608316	2483.126191
632.954117	2487.688435
633.299866	2484.865389
633.645562	2485.303970
633.991206	2483.743733
634.336797	2485.261120
634.682336	2488.056440
635.027823	2486.249186
635.373257	2482.977477
635.718639	2485.276243
636.063968	2486.372694
636.409245	2486.561737
636.754470	2485.036788
637.099642	2487.053250
637.444762	2485.407313
637.789829	2485.462766
638.134845	2487.771614
638.479808	2484.439412
638.824719	2486.710452
639.169577	2485.916470
639.514383	2486.155925
639.859137	2485.490492
640.203839	2488.121975
640.548489	2487.806903
640.893086	2485.969402
641.237632	2483.867241
641.582125	2487.030565
641.926566	2481.868423
642.270955	2484.341109
642.615292	2481.568475
642.959576	2483.186685
643.303809	2479.433546
643.647990	2485.321614
643.992118	2484.946048
644.336195	2485.593836
