Dividing Wavelength (nm)	Counts (n)	Blue Motor Position (mm): 25.900000	Red Motor Position (mm): 0.000000	
326.493990	2131.455299
326.888308	2131.455299
327.282561	2131.455299
327.676750	2100.883221
328.070874	2099.398602
328.464933	2102.791298
328.858929	2106.879674
329.252859	2116.936776
329.646726	2130.300875
330.040528	2140.370579
330.434265	2162.022335
330.827938	2175.673780
331.221547	2192.082736
331.615091	2212.307845
332.008571	2233.369786
332.401986	2252.790831
332.795338	2269.630805
333.188625	2292.510082
333.581847	2310.499439
333.975006	2329.333190
334.368100	2346.460510
334.761129	2362.110773
335.154095	2381.272198
335.546996	2400.201731
335.939833	2424.706780
336.332606	2439.285797
336.725315	2453.668209
337.117960	2462.729683
337.510540	2473.101857
337.903056	2483.892447
338.295508	2489.679691
338.687896	2495.640856
339.080220	2504.714933
339.472480	2512.654750
339.864676	2515.868485
340.256807	2521.570030
340.648875	2520.743281
341.040879	2524.561955
341.432818	2525.965917
341.824694	2530.031607
342.216506	2529.915661
342.608253	2528.375588
342.999937	2530.240815
343.391557	2527.548839
343.783113	2528.693181
344.174605	2529.245187
344.566033	2523.657068
344.957397	2522.966430
345.348697	2525.038344
345.739934	2521.663292
346.131106	2519.664474
346.522215	2521.456604
346.913260	2513.599966
347.304241	2513.247085
347.695159	2509.241889
348.086012	2511.596107
348.476802	2508.455469
348.867528	2503.414315
349.258191	2503.706702
349.648789	2504.296517
350.039324	2500.039262
350.429796	2500.767709
350.820203	2498.562204
351.210548	2501.924654
351.600828	2499.648573
351.991045	2496.417193
352.381198	2495.058602
352.771288	2496.649086
353.161314	2497.438027
353.551276	2498.254694
353.941175	2494.930053
354.331010	2494.294868
354.720782	2494.867038
355.110490	2494.925012
355.500135	2495.968531
355.889717	2496.016422
356.279235	2496.061792
356.668689	2496.276041
357.058080	2496.855774
357.447408	2495.880310
357.836672	2493.062305
358.225873	2495.487100
358.615010	2493.321925
359.004084	2498.481546
359.393095	2498.191679
359.782043	2500.634118
360.170927	2500.165291
360.559748	2500.162771
360.948505	2499.837616
361.337199	2504.541013
361.725830	2502.249808
362.114398	2500.896258
362.502903	2504.228461
362.891344	2502.380878
363.279722	2503.356342
363.668037	2504.208297
364.056289	2506.431445
364.444478	2504.848523
364.832603	2508.163082
365.220665	2503.845333
365.608665	2504.972031
365.996601	2506.996055
366.384474	2507.376662
366.772284	2505.466064
367.160031	2506.116373
367.547715	2508.231137
367.935336	2510.996210
368.322893	2508.208452
368.710388	2508.599142
369.097820	2510.973525
369.485189	2507.469923
369.872495	2511.442352
370.259738	2511.618793
370.646918	2510.454286
371.034035	2512.168278
371.421090	2512.148114
371.808081	2511.941427
372.195010	2508.669718
372.581875	2513.315141
372.968678	2513.060563
373.355418	2513.073166
373.742096	2513.720954
374.128710	2512.463186
374.515262	2512.145593
374.901751	2513.975532
375.288177	2513.418485
375.674540	2514.948475
376.060841	2514.419154
376.447079	2512.914369
376.833254	2517.617766
377.219367	2509.612413
377.605417	2514.661129
377.991404	2510.794564
378.377329	2513.579802
378.763191	2511.255830
379.148991	2515.092148
379.534727	2515.354288
379.920402	2513.252127
380.306013	2517.547190
380.691563	2517.219515
381.077049	2520.100534
381.462474	2517.753877
381.847835	2520.095493
382.233134	2518.109278
382.618371	2517.206912
383.003545	2518.605832
383.388657	2519.571213
383.773706	2519.293949
384.158693	2519.488034
384.543618	2520.834022
384.928480	2519.568692
385.313280	2517.801768
385.698017	2517.343023
386.082692	2522.031296
386.467305	2521.048271
386.851856	2521.081038
387.236344	2520.710514
387.620770	2523.654547
388.005133	2519.740092
388.389435	2521.781759
388.773674	2519.881244
389.157851	2520.672705
389.541965	2520.755884
389.926018	2523.379805
390.310008	2521.209588
390.693936	2522.961389
391.077802	2520.150946
391.461606	2520.745802
391.845348	2521.776718
392.229027	2523.127747
392.612645	2522.069105
392.996200	2524.083046
393.379694	2523.599095
393.763125	2523.462984
394.146494	2521.184382
394.529801	2523.921729
394.913047	2524.478776
395.296230	2525.071112
395.679351	2523.556245
396.062410	2525.769312
396.445408	2525.149250
396.828343	2527.778211
397.211217	2516.506191
397.594028	2526.167563
397.976778	2523.785618
398.359466	2525.638242
398.742092	2521.023065
399.124656	2528.438602
399.507158	2526.573376
399.889598	2526.999353
400.271977	2523.284023
400.654294	2528.821730
401.036549	2526.215454
401.418742	2528.252080
401.800874	2526.729651
402.182944	2530.011443
402.564952	2528.310053
402.946898	2529.429189
403.328783	2527.818541
403.710606	2528.476411
404.092367	2531.100332
404.474067	2529.978675
404.855705	2529.280475
405.237282	2529.668644
405.618797	2529.351051
406.000250	2531.586803
406.381642	2532.660569
406.762972	2529.305681
407.144240	2529.567821
407.525447	2530.094622
407.906593	2532.330373
408.287677	2532.345497
408.668700	2531.533871
409.049661	2533.336083
409.430560	2531.972451
409.811399	2533.888090
410.192176	2532.116124
410.572891	2533.114273
410.953545	2532.310209
411.334138	2531.180990
411.714669	2535.095446
412.095139	2530.664272
412.475547	2534.256094
412.855894	2531.266690
413.236180	2535.188707
413.616405	2534.465302
413.996568	2533.464633
414.376670	2533.363810
414.756711	2535.763399
415.136691	2536.068389
415.516609	2532.315250
415.896466	2537.343801
416.276262	2535.665097
416.655997	2532.867256
417.035670	2530.833151
417.415283	2537.336239
417.794834	2532.993285
418.174324	2536.723739
418.553753	2536.779192
418.933121	2536.943029
419.312428	2535.256763
419.691674	2537.598379
420.070859	2537.363965
420.449983	2538.410005
420.829045	2538.296579
421.208047	2540.446631
421.586988	2539.912269
421.965867	2538.651980
422.344686	2538.755324
422.723444	2540.650798
423.102141	2538.803215
423.480777	2540.446631
423.859352	2539.133410
424.237866	2539.423277
424.616319	2540.549975
424.994712	2537.800025
425.373044	2537.568132
425.751314	2539.105684
426.129524	2540.887732
426.507673	2539.292207
426.885762	2542.453010
427.263789	2541.505273
427.641756	2540.192053
428.019662	2544.580377
428.397508	2541.258257
428.775292	2541.777496
429.153016	2543.360418
429.530679	2542.841179
429.908282	2542.606765
430.285824	2541.666590
430.663305	2544.741694
431.040726	2540.003009
431.418086	2544.850079
431.795385	2543.229348
432.172624	2544.648433
432.549802	2543.494008
432.926920	2544.046015
433.303977	2548.492312
433.680974	2544.870243
434.057910	2542.997455
434.434786	2543.425953
434.811601	2546.962322
435.188355	2546.483413
435.565050	2547.373176
435.941683	2547.479041
436.318257	2545.611293
436.694770	2543.373021
437.071222	2542.841179
437.447614	2544.199770
437.823946	2545.152548
438.200218	2545.633978
438.576429	2547.864689
438.952580	2547.042981
439.328670	2551.038095
439.704700	2549.823177
440.080670	2548.111705
440.456580	2550.811243
440.832429	2550.980122
441.208218	2549.719833
441.583947	2551.925338
441.959616	2552.583209
442.335224	2551.993394
442.710773	2555.103786
443.086261	2557.543704
443.461689	2557.253838
443.837057	2560.649055
444.212365	2560.303736
444.587612	2563.335990
444.962800	2563.923284
445.337927	2569.692885
445.712995	2567.353790
446.088002	2575.550706
446.462949	2577.617579
446.837837	2582.522622
447.212664	2584.619742
447.587431	2592.166349
447.962139	2601.454675
448.336786	2621.954527
448.711374	2621.223560
449.085901	2615.706017
449.460369	2617.341871
449.834776	2624.112141
450.209124	2640.243833
450.583412	2655.997439
450.957640	2665.366423
451.331808	2667.834068
451.705917	2666.127637
452.079965	2676.772034
452.453954	2691.892975
452.827883	2694.589992
453.201752	2707.964173
453.575562	2715.067159
453.949311	2734.573904
454.323001	2738.836199
454.696632	2757.233890
455.070202	2782.152314
455.443713	2804.348514
455.817164	2826.877431
456.190556	2845.910307
456.563888	2871.910058
456.937160	2891.429406
457.310373	2889.049981
457.683526	2911.115112
458.056619	2924.201947
458.429653	2944.364042
458.802628	2959.353913
459.175542	2989.673933
459.548398	3054.903943
459.921194	3101.310284
460.293930	3134.828916
460.666607	3238.364134
461.039224	3322.528718
461.411782	3369.857591
461.784280	3403.797159
462.156719	3420.112854
462.529099	3437.880400
462.901419	3411.870567
463.273680	3430.903443
463.645882	3462.251859
464.018024	3490.873010
464.390106	3558.618556
464.762130	3678.585414
465.134094	3837.149867
465.505999	4138.552894
465.877845	4494.773428
466.249631	4700.427299
466.621358	4661.144107
466.993026	4578.940532
467.364634	4568.875869
467.736184	4543.246642
468.107674	4518.756717
468.479105	4614.127786
468.850477	4596.022482
469.221790	4598.301084
469.593043	4558.014703
469.964238	4589.413529
470.335373	4654.656142
470.706449	4739.725614
471.077467	4805.326149
471.448425	5358.098750
471.819324	5845.437175
472.190164	5925.697385
472.560945	5518.629253
472.931667	5286.272390
473.302330	5292.213390
473.672934	5214.751020
474.043479	5438.013642
474.413965	5478.478983
474.784393	5506.885885
475.154761	5642.805475
475.525070	5757.423670
475.895321	5743.457153
476.265513	5899.896760
476.635645	6054.292179
477.005719	6140.236290
477.375734	6268.760507
477.745691	6469.630323
478.115588	6622.997347
478.485427	6847.500092
478.855207	7222.791311
479.224928	7796.779608
479.594591	8254.370184
479.964194	8247.095799
480.333739	8297.477091
480.703226	8370.896455
481.072653	8509.724791
481.442022	8749.817305
481.811333	8953.888254
482.180584	8919.563037
482.549777	8825.129623
482.918912	8780.807798
483.287988	8880.461327
483.657005	8961.228174
484.025964	8821.086617
484.394864	8996.107917
484.763706	9061.857166
485.132489	8945.144372
485.501213	8994.928287
485.869879	9111.343653
486.238487	9073.789577
486.607036	9214.775527
486.975527	9117.327503
487.343959	9325.348195
487.712333	9426.080532
488.080648	9418.143235
488.448905	9528.940235
488.817104	9533.915853
489.185244	9809.535899
489.553326	9999.867183
489.921350	10501.441826
490.289315	11422.117835
490.657222	11761.362283
491.025070	11750.468350
491.392861	11701.543952
491.760593	11454.739142
492.128267	11219.097967
492.495883	10977.972017
492.863440	10726.403316
493.230939	10470.899995
493.598380	10445.270769
493.965763	10370.543225
494.333088	10308.978134
494.700354	10276.908834
495.067563	10358.875475
495.434713	10231.742616
495.801805	10382.891532
496.168839	10337.122896
496.535815	10309.285644
496.902733	10332.071660
497.269593	10301.857504
497.636395	10413.488815
498.003139	10427.488099
498.369825	10325.797944
498.736453	10494.800106
499.103023	10445.724473
499.469535	10492.239200
499.835989	10503.415438
500.202385	10480.137910
500.568723	10348.783085
500.935003	10577.727087
501.301226	10404.598740
501.667390	10665.299491
502.033497	10773.323856
502.399546	10646.725359
502.765537	10569.003370
503.131470	10645.270986
503.497345	10832.688483
503.863163	10453.651687
504.228923	10772.648341
504.594625	10840.759371
504.960269	10604.142733
505.325856	10823.279170
505.691385	10629.976126
506.056856	10787.350866
506.422270	10818.951339
506.787625	10712.283044
507.152924	10829.363842
507.518164	10813.963118
507.883347	10743.923847
508.248472	10667.744450
508.613540	10904.635831
508.978550	10790.902359
509.343503	10767.720613
509.708398	10883.873839
510.073236	10996.561272
510.438016	11011.815803
510.802738	10960.753956
511.167403	11018.886021
511.532010	10922.899932
511.896561	11142.648869
512.261053	11219.831455
512.625488	11093.376631
512.989866	11074.187479
513.354186	11071.883672
513.718449	10971.615122
514.082655	11166.727940
514.446803	11061.690459
514.810894	11180.437358
515.174927	11047.870135
515.538904	11077.565052
515.902822	11225.674152
516.266684	11120.523245
516.630488	11056.024202
516.994235	11115.144333
517.357925	11181.001967
517.721558	11267.772828
518.085133	11282.455188
518.448651	11296.850203
518.812112	11179.436689
519.175516	11194.474451
519.538863	11315.303347
519.902152	11235.411141
520.265385	11390.940819
520.628560	11303.713734
520.991678	11289.202773
521.354739	11343.871566
521.717743	11278.202975
522.080690	11261.257137
522.443580	11399.631768
522.806413	11347.947339
523.169189	11379.953624
523.531908	11438.821698
523.894569	11257.947619
524.257174	11269.882551
524.619722	11381.045034
524.982213	11320.977166
525.344647	11383.868080
525.707025	11333.602735
526.069345	11431.154103
526.431608	11338.409476
526.793815	11449.947525
527.155964	11245.380023
527.518057	11297.278701
527.880093	11241.785680
528.242072	11317.488687
528.603995	11216.864736
528.965860	11141.300360
529.327669	11187.701661
529.689421	11142.253138
530.051117	11117.153233
530.412755	11216.093439
530.774337	11109.936822
531.135862	11092.471744
531.497331	11114.423448
531.858743	10959.760848
532.220098	11135.649227
532.581396	11006.023517
532.942638	10988.147586
533.303824	10948.816503
533.664953	10970.110337
534.026025	10881.600279
534.387040	10976.358848
534.747999	10983.474436
535.108902	11035.990656
535.469748	10800.157918
535.830537	10905.712118
536.191270	10878.724300
536.551947	10899.345140
536.912567	10899.650130
537.273131	10830.966929
537.633638	10810.590586
537.994089	10794.960488
538.354483	10749.453992
538.714821	10883.833510
539.075103	10899.292208
539.435328	10865.829029
539.795497	10692.781341
540.155609	10845.543426
540.515665	10937.151273
540.875665	10668.916518
541.235609	10736.828422
541.595496	10735.747095
541.955328	10891.990097
542.315102	10774.919381
542.674821	10728.966743
543.034483	10721.067255
543.394090	10725.168234
543.753640	10659.214818
544.113134	10881.872501
544.472571	10729.790972
544.831953	10876.357479
545.191278	10681.284989
545.550548	10714.851512
545.909761	10844.252890
546.268918	10820.254478
546.628019	10900.028217
546.987064	10766.523339
547.346053	10689.449138
547.704986	10792.558378
548.063863	10778.980030
548.422684	10769.800089
548.781449	10684.594507
549.140158	10791.741711
549.498811	10663.512402
549.857408	10526.929900
550.215949	10751.374672
550.574434	10609.350245
550.932864	10699.841477
551.291237	10761.976218
551.649555	10704.887672
552.007817	10719.723788
552.366022	10689.675990
552.724173	10678.726604
553.082267	10670.423823
553.440305	10799.363936
553.798288	10604.931673
554.156215	10746.540205
554.514086	10733.972609
554.871902	10579.955277
555.229661	10619.505649
555.587365	10589.082286
555.945014	10493.438994
556.302606	10617.713519
556.660143	10509.437096
557.017625	10664.124902
557.375050	10558.701772
557.732421	10689.552482
558.089735	10608.878897
558.446994	10605.135840
558.804197	10648.570422
559.161345	10648.469598
559.518437	10489.998407
559.875474	10582.153220
560.232455	10618.091605
560.589381	10560.735877
560.946251	10556.778572
561.303065	10661.276650
561.659825	10597.687535
562.016528	10531.101455
562.373177	10408.230891
562.729770	10525.770434
563.086307	10445.953846
563.442789	10536.437516
563.799216	10413.370348
564.155587	10467.761877
564.511904	10415.265822
564.868164	10412.757848
565.224370	10427.919118
565.580520	10348.349545
565.936615	10352.145534
566.292654	10218.554957
566.648638	10350.812149
567.004567	10316.355862
567.360441	10298.227873
567.716260	10206.249501
568.072023	10295.437595
568.427732	10251.539227
568.783385	10161.410958
569.138982	10231.543490
569.494525	10247.193752
569.850013	10129.510536
570.205445	10203.814623
570.560823	10095.354198
570.916145	10018.156489
571.271412	10092.571482
571.626625	10032.528819
571.981782	10014.317650
572.336884	9987.445780
572.691931	9988.690945
573.046923	9935.773953
573.401860	9894.948168
573.756743	9834.769394
574.111570	9872.585610
574.466342	9854.762611
574.821059	9882.337722
575.175722	9774.588100
575.530330	9787.135532
575.884882	9780.889542
576.239380	9706.587976
576.593823	9690.184061
576.948211	9698.824599
577.302544	9581.665663
577.656823	9594.344165
578.011047	9606.425290
578.365216	9567.242922
578.719330	9494.947734
579.073389	9503.961317
579.427394	9450.875447
579.781344	9433.281820
580.135239	9382.945899
580.489080	9389.431343
580.842866	9291.040623
581.196597	9299.514803
581.550273	9337.895627
581.903895	9309.995361
582.257463	9370.388384
582.610975	9250.164427
582.964434	9281.795147
583.317837	9203.740441
583.671186	9177.828910
584.024481	9173.624588
584.377721	9095.048123
584.730906	9074.601203
585.084037	9098.710521
585.437113	9038.725832
585.790135	9060.682577
586.143103	8959.143657
586.496016	8937.839740
586.848874	8993.451229
587.201679	8981.453283
587.554428	8868.465902
587.907124	8908.275894
588.259765	8883.473417
588.612352	8886.455259
588.964884	8764.408925
589.317362	8783.313252
589.669786	8782.269733
590.022155	8823.541659
590.374470	8838.050100
590.726731	8783.535062
591.078937	8634.984861
591.431090	8744.834124
591.783188	8618.112119
592.135232	8611.062066
592.487222	8614.414433
592.839157	8659.802462
593.191038	8595.956248
593.542866	8538.202269
593.894639	8437.149820
594.246358	8492.108479
594.598022	8513.624124
594.949633	8408.153103
595.301190	8383.758959
595.652692	8408.090088
596.004141	8526.098459
596.355535	8298.770147
596.706876	8278.968494
597.058162	8219.311480
597.409395	8292.763612
597.760573	8355.798200
598.111698	8265.072554
598.462768	8246.773165
598.813785	8211.195222
599.164748	8188.472221
599.515657	8170.533275
599.866511	8085.615039
600.217312	8208.803195
600.568060	8068.845640
600.918753	8168.330291
601.269392	8140.974470
601.619978	8057.140081
601.970510	8117.139894
602.320988	8113.356508
602.671412	8160.529105
603.021783	8104.058100
603.372100	8080.594049
603.722363	8082.781910
604.072572	8059.942963
604.422728	8072.981907
604.772830	7993.387129
605.122878	8006.786516
605.472872	8007.230137
605.822813	8031.982203
606.172701	7973.673697
606.522534	8046.193216
606.872314	8047.234214
607.222041	8025.529526
607.571714	8066.657780
607.921333	8034.036473
608.270899	8035.460599
608.620411	8132.913665
608.969870	8037.378758
609.319276	8024.579268
609.668627	8040.748769
610.017926	8074.811846
610.367171	8126.768498
610.716362	8103.700178
611.065500	8094.172397
611.414585	8122.702808
611.763616	8106.941640
612.112594	8087.684432
612.461518	8098.890917
612.810389	8159.548601
613.159207	8107.657484
613.507971	8048.141622
613.856682	8169.247781
614.205340	8128.079198
614.553945	8205.029891
614.902496	8104.206814
615.250994	8159.004156
615.599439	8142.859861
615.947830	8149.211715
616.296169	8127.091132
616.644454	8139.961198
616.992686	8139.595714
617.340864	8194.912295
617.688990	8098.621216
618.037063	8188.845267
618.385082	8136.167729
618.733048	8223.087304
619.080961	8158.933580
619.428821	8183.451232
619.776628	8177.038884
620.124382	8132.890979
620.472083	8125.576265
620.819731	8142.985890
621.167326	8045.832773
621.514868	8042.571147
621.862357	7938.289838
622.209793	7950.895243
622.557176	7887.399390
622.904506	7860.492231
623.251783	7790.611757
623.599007	7748.714727
623.946179	7748.523163
624.293297	7709.270219
624.640363	7627.953887
624.987376	7611.560054
625.334336	7559.984009
625.681243	7510.091710
626.028097	7493.181159
626.374899	7474.176009
626.721647	7465.840461
627.068343	7394.982003
627.414987	7370.799588
627.761577	7321.272772
628.108115	7365.692899
628.454600	7260.869667
628.801032	7308.475803
629.147412	7271.453569
629.493739	7257.613081
629.840014	7200.600152
630.186236	7251.634273
630.532405	7137.696634
630.878521	7187.495672
631.224585	7143.282232
631.570597	7066.598721
631.916556	7100.941581
632.262462	7096.780109
632.608316	7057.312915
632.954117	7035.547734
633.299866	7026.829058
633.645562	7016.824888
633.991206	6936.715912
634.336797	6880.454115
634.682336	6838.146231
635.027823	6802.495191
635.373257	6802.081817
635.718639	6727.550878
636.063968	6743.049905
636.409245	6637.039481
636.754470	6630.675024
637.099642	6591.908551
637.444762	6537.393513
637.789829	6548.496655
638.134845	6487.120607
638.479808	6470.116795
638.824719	6480.955276
639.169577	6407.803092
639.514383	6426.208345
639.859137	6355.067582
640.203839	6367.551999
640.548489	6348.551890
640.893086	6328.780485
641.237632	6301.444828
