Dividing Wavelength (nm)	Counts (n)	Blue Motor Position (mm): 15.400000	Red Motor Position (mm): 0.000000	
326.493990	2173.057421
326.888308	2173.057421
327.282561	2173.057421
327.676750	2134.147275
328.070874	2129.020422
328.464933	2131.878756
328.858929	2133.769188
329.252859	2136.652728
329.646726	2147.397948
330.040528	2159.194248
330.434265	2173.029695
330.827938	2191.709690
331.221547	2208.375745
331.615091	2223.050544
332.008571	2241.087792
332.401986	2259.828282
332.795338	2279.501384
333.188625	2301.294293
333.581847	2317.320121
333.975006	2332.700681
334.368100	2352.081397
334.761129	2373.017309
335.154095	2387.082128
335.546996	2412.902918
335.939833	2438.454006
336.332606	2453.199381
336.725315	2464.683130
337.117960	2479.156283
337.510540	2486.236583
337.903056	2501.072699
338.295508	2508.082423
338.687896	2517.075842
339.080220	2525.789476
339.472480	2532.121165
339.864676	2540.439069
340.256807	2544.303114
340.648875	2547.663043
341.040879	2549.666901
341.432818	2555.285267
341.824694	2554.337530
342.216506	2555.867521
342.608253	2556.984136
342.999937	2560.152501
343.391557	2559.587892
343.783113	2555.580175
344.174605	2557.871379
344.566033	2554.894578
344.957397	2555.474311
345.348697	2552.540359
345.739934	2550.975081
346.131106	2549.792930
346.522215	2548.441901
346.913260	2546.463248
347.304241	2544.363608
347.695159	2541.946374
348.086012	2538.289017
348.476802	2537.023688
348.867528	2536.282638
349.258191	2527.866432
349.648789	2530.676875
350.039324	2528.584796
350.429796	2532.736186
350.820203	2531.415404
351.210548	2530.079498
351.600828	2529.295599
351.991045	2524.801410
352.381198	2528.398273
352.771288	2523.720082
353.161314	2526.192768
353.551276	2524.493900
353.941175	2523.226049
354.331010	2524.940042
354.720782	2522.467356
355.110490	2523.006759
355.500135	2521.605318
355.889717	2521.630524
356.279235	2520.962571
356.668689	2522.772346
357.058080	2523.339475
357.447408	2524.093128
357.836672	2524.481297
358.225873	2522.321162
358.615010	2524.604805
359.004084	2524.004908
359.393095	2524.279651
359.782043	2522.898374
360.170927	2524.889630
360.559748	2526.868283
360.948505	2527.753006
361.337199	2526.832995
361.725830	2528.446164
362.114398	2526.522964
362.502903	2529.409025
362.891344	2531.564118
363.279722	2532.907585
363.668037	2528.922553
364.056289	2530.263500
364.444478	2533.300795
364.832603	2532.295085
365.220665	2533.399098
365.608665	2532.781557
365.996601	2532.655528
366.384474	2532.141330
366.772284	2532.342976
367.160031	2533.540250
367.547715	2534.316588
367.935336	2537.240457
368.322893	2534.422452
368.710388	2533.010929
369.097820	2535.662576
369.485189	2533.003367
369.872495	2534.094777
370.259738	2540.857485
370.646918	2536.184335
371.034035	2537.918492
371.421090	2537.532844
371.808081	2539.453524
372.195010	2541.565767
372.581875	2540.131559
372.968678	2539.551826
373.355418	2537.212731
373.742096	2539.410674
374.128710	2540.852444
374.515262	2539.105684
374.901751	2537.426980
375.288177	2542.793288
375.674540	2540.164326
376.060841	2540.723894
376.447079	2540.431507
376.833254	2539.965201
377.219367	2543.413350
377.605417	2541.205325
377.991404	2542.720191
378.377329	2541.759852
378.763191	2540.794471
379.148991	2543.680531
379.534727	2542.568957
379.920402	2541.444779
380.306013	2542.896632
380.691563	2541.893442
381.077049	2546.112888
381.462474	2543.012578
381.847835	2542.422763
382.233134	2543.877136
382.618371	2544.845038
383.003545	2545.840666
383.388657	2542.140459
383.773706	2546.770758
384.158693	2545.253371
384.543618	2547.103475
384.928480	2541.616179
385.313280	2546.727909
385.698017	2545.129863
386.082692	2546.339740
386.467305	2547.907539
386.851856	2545.172713
387.236344	2549.722354
387.620770	2544.146838
388.005133	2541.303627
388.389435	2545.107178
388.773674	2541.737166
389.157851	2545.228165
389.541965	2547.995759
389.926018	2550.123126
390.310008	2550.869217
390.693936	2547.836963
391.077802	2548.235214
391.461606	2550.733105
391.845348	2547.332847
392.229027	2550.667570
392.612645	2546.501057
392.996200	2550.014741
393.379694	2550.236552
393.763125	2550.221428
394.146494	2551.663198
394.529801	2550.823846
394.913047	2549.593805
395.296230	2551.239741
395.679351	2550.425595
396.062410	2553.793086
396.445408	2551.970709
396.828343	2551.769063
397.211217	2551.937941
397.594028	2550.700338
397.976778	2553.183106
398.359466	2551.925338
398.742092	2551.338044
399.124656	2552.021120
399.507158	2553.800647
399.889598	2553.672098
400.271977	2553.203271
400.654294	2551.733774
401.036549	2553.941800
401.418742	2555.229815
401.800874	2553.195709
402.182944	2555.849877
402.564952	2553.677139
402.946898	2552.817622
403.328783	2556.079249
403.710606	2554.942469
404.092367	2553.314176
404.474067	2554.992880
404.855705	2556.974054
405.237282	2555.116389
405.618797	2554.766028
406.000250	2554.529094
406.381642	2554.264434
406.762972	2553.236038
407.144240	2553.084804
407.525447	2553.972047
407.906593	2554.584547
408.287677	2557.246276
408.668700	2555.378529
409.049661	2557.407593
409.430560	2558.438509
409.811399	2558.622511
410.192176	2558.914898
410.572891	2559.834909
410.953545	2560.613767
411.334138	2558.400700
411.714669	2561.513613
412.095139	2561.198541
412.475547	2559.693756
412.855894	2558.045299
413.236180	2559.615618
413.616405	2559.971020
413.996568	2560.462532
414.376670	2557.190823
414.756711	2559.671071
415.136691	2561.367419
415.516609	2558.720814
415.896466	2560.517985
416.276262	2559.658468
416.655997	2558.922460
417.035670	2559.519837
417.415283	2561.168294
417.794834	2560.369271
418.174324	2560.858263
418.553753	2562.161401
418.933121	2562.882286
419.312428	2562.867163
419.691674	2563.719118
420.070859	2563.900599
420.449983	2561.818603
420.829045	2561.347255
421.208047	2562.458829
421.586988	2563.220043
421.965867	2564.954200
422.344686	2561.624518
422.723444	2563.663665
423.102141	2565.440672
423.480777	2566.035528
423.859352	2562.461350
424.237866	2563.114179
424.616319	2564.404715
424.994712	2561.874055
425.373044	2563.204920
425.751314	2561.342214
426.129524	2561.354817
426.507673	2562.189127
426.885762	2560.210475
427.263789	2565.158367
427.641756	2563.767009
428.019662	2564.374468
428.397508	2564.737431
428.775292	2566.174160
429.153016	2565.813717
429.530679	2565.176011
429.908282	2567.378995
430.285824	2567.386557
430.663305	2568.208265
431.040726	2564.450085
431.418086	2564.311453
431.795385	2565.538974
432.172624	2564.235836
432.549802	2564.795404
432.926920	2566.776577
433.303977	2564.286247
433.680974	2564.434962
434.057910	2566.887483
434.434786	2565.266752
434.811601	2567.033676
435.188355	2570.043245
435.565050	2566.101063
435.941683	2568.175498
436.318257	2569.677762
436.694770	2566.383367
437.071222	2570.718760
437.447614	2569.967628
437.823946	2567.570559
438.200218	2567.736917
438.576429	2568.956877
438.952580	2566.902606
439.328670	2567.268090
439.704700	2566.769016
440.080670	2569.634912
440.456580	2569.246743
440.832429	2569.208934
441.208218	2567.502504
441.583947	2568.785477
441.959616	2570.628019
442.335224	2567.575600
442.710773	2571.353945
443.086261	2569.962587
443.461689	2568.024263
443.837057	2567.189952
444.212365	2568.152812
444.587612	2567.184911
444.962800	2566.401012
445.337927	2568.646846
445.712995	2566.242215
446.088002	2569.902093
446.462949	2570.355797
446.837837	2568.299006
447.212664	2569.881928
447.587431	2569.622309
447.962139	2570.791857
448.336786	2572.178174
448.711374	2571.162381
449.085901	2573.322516
449.460369	2571.744635
449.834776	2572.004254
450.209124	2570.128945
450.583412	2572.523493
450.957640	2571.752196
451.331808	2571.860581
451.705917	2573.478792
452.079965	2574.870150
452.453954	2573.735890
452.827883	2573.627506
453.201752	2571.711867
453.575562	2572.702454
453.949311	2571.628688
454.323001	2574.605489
454.696632	2572.657083
455.070202	2572.218503
455.443713	2571.764799
455.817164	2574.101374
456.190556	2575.669173
456.563888	2576.097671
456.937160	2573.672876
457.310373	2573.201528
457.683526	2574.784450
458.056619	2574.003072
458.429653	2574.323185
458.802628	2574.323185
459.175542	2573.549368
459.548398	2578.114132
459.921194	2577.292424
460.293930	2577.700758
460.666607	2576.730336
461.039224	2578.925758
461.411782	2579.671849
461.784280	2578.202353
462.156719	2578.966087
462.529099	2574.592887
462.901419	2579.069431
463.273680	2575.646488
463.645882	2574.706313
464.018024	2577.584811
464.390106	2572.720098
464.762130	2578.981211
465.134094	2579.956674
465.505999	2581.385841
465.877845	2582.000862
466.249631	2583.422467
466.621358	2581.421129
466.993026	2583.029257
467.364634	2586.122005
467.736184	2584.589495
468.107674	2581.282498
468.479105	2582.444484
468.850477	2581.385841
469.221790	2581.811819
469.593043	2581.610173
469.964238	2583.692169
470.335373	2584.347519
470.706449	2583.074628
471.077467	2583.172930
471.448425	2582.525142
471.819324	2588.221646
472.190164	2590.243149
472.560945	2586.588312
472.931667	2586.308528
473.302330	2582.268043
473.672934	2584.549165
474.043479	2584.962540
474.413965	2584.602097
474.784393	2582.300811
475.154761	2584.801223
475.525070	2583.240986
475.895321	2582.142014
476.265513	2586.921028
476.635645	2584.234093
477.005719	2582.822570
477.375734	2585.083528
477.745691	2584.249217
478.115588	2587.641913
478.485427	2588.072932
478.855207	2586.578230
479.224928	2589.313056
479.594591	2590.742223
479.964194	2591.591657
480.333739	2592.244487
480.703226	2591.697522
481.072653	2590.580906
481.442022	2590.492686
481.811333	2587.888930
482.180584	2591.253900
482.549777	2588.793817
482.918912	2585.451532
483.287988	2591.626945
483.657005	2592.347830
484.025964	2588.065370
484.394864	2590.807758
484.763706	2592.655341
485.132489	2590.764908
485.501213	2593.731627
485.869879	2592.282295
486.238487	2593.134250
486.607036	2594.026535
486.975527	2591.374888
487.343959	2590.848087
487.712333	2595.617019
488.080648	2592.214240
488.448905	2593.882862
488.817104	2592.607450
489.185244	2593.847574
489.553326	2593.913109
489.921350	2595.974941
490.289315	2597.078953
490.657222	2600.312853
491.025070	2598.939139
491.392861	2599.627257
491.760593	2595.901844
492.128267	2598.102307
492.495883	2599.508789
492.863440	2596.113572
493.230939	2597.572986
493.598380	2594.868407
493.965763	2597.020980
494.333088	2597.116762
494.700354	2595.521237
495.067563	2596.537029
495.434713	2598.273707
495.801805	2597.991402
496.168839	2598.329159
496.535815	2595.261617
496.902733	2597.570466
497.269593	2600.408635
497.636395	2600.055755
498.003139	2597.923347
498.369825	2598.976948
498.736453	2597.714139
499.103023	2599.728080
499.469535	2598.505600
499.835989	2599.007195
500.202385	2594.848243
500.568723	2593.973603
500.935003	2598.145157
501.301226	2594.081987
501.667390	2600.501897
502.033497	2601.810076
502.399546	2601.671444
502.765537	2602.472988
503.131470	2601.623553
503.497345	2605.875767
503.863163	2602.601537
504.228923	2603.677824
504.594625	2606.425253
504.960269	2604.257556
505.325856	2606.395006
505.691385	2606.624378
506.056856	2606.447938
506.422270	2607.032712
506.787625	2609.898607
507.152924	2611.085799
507.518164	2611.859616
507.883347	2609.006323
508.248472	2607.441045
508.613540	2609.941457
508.978550	2611.337857
509.343503	2612.940944
509.708398	2611.630244
510.073236	2615.370780
510.438016	2615.050667
510.802738	2613.233331
511.167403	2616.399175
511.532010	2618.355143
511.896561	2619.431429
512.261053	2619.154166
512.625488	2621.631893
512.989866	2622.098200
513.354186	2621.531070
513.718449	2621.432767
514.082655	2626.322687
514.446803	2627.456946
514.810894	2627.719086
515.174927	2629.622122
515.538904	2630.895013
515.902822	2632.253604
516.266684	2632.510703
516.630488	2634.736372
516.994235	2633.839047
517.357925	2637.476240
517.721558	2638.403812
518.085133	2639.255767
518.448651	2638.809625
518.812112	2638.529841
519.175516	2641.993113
519.538863	2637.020015
519.902152	2645.095944
520.265385	2648.231541
520.628560	2648.415543
520.991678	2648.672642
521.354739	2653.736481
521.717743	2651.815802
522.080690	2656.224291
522.443580	2658.954076
522.806413	2660.131185
523.169189	2664.020435
523.531908	2667.269459
523.894569	2668.078564
524.257174	2668.796928
524.619722	2674.115346
524.982213	2672.963442
525.344647	2676.414112
525.707025	2680.898218
526.069345	2682.879392
526.431608	2685.626821
526.793815	2687.928107
527.155964	2690.957841
527.518057	2692.596216
527.880093	2695.613346
528.242072	2700.089891
528.603995	2702.423945
528.965860	2704.339584
529.327669	2708.445603
529.689421	2715.551110
530.051117	2715.195708
530.412755	2722.303735
530.774337	2726.545866
531.135862	2726.142574
531.497331	2734.384861
531.858743	2735.962742
532.220098	2745.480440
532.581396	2747.736357
532.942638	2751.915473
533.303824	2760.767739
533.664953	2761.269334
534.026025	2768.843668
534.387040	2778.741973
534.747999	2783.757921
535.108902	2793.310908
535.469748	2799.551856
535.830537	2802.178297
536.191270	2814.156079
536.551947	2819.812254
536.912567	2821.443067
537.273131	2838.721622
537.633638	2842.026098
537.994089	2855.493541
538.354483	2861.227853
538.714821	2874.591952
539.075103	2892.556104
539.435328	2897.138513
539.795497	2903.351735
540.155609	2921.121802
540.515665	2933.424738
540.875665	2938.571756
541.235609	2953.806123
541.595496	2968.496045
541.955328	2986.848366
542.315102	3007.806963
542.674821	3012.810308
543.034483	3020.697193
543.394090	3045.058569
543.753640	3052.645506
544.113134	3082.347984
544.472571	3092.193358
544.831953	3125.618728
545.191278	3132.734317
545.550548	3148.782830
545.909761	3166.240346
546.268918	3197.404759
546.628019	3218.176833
546.987064	3249.915938
547.346053	3260.736775
547.704986	3283.762245
548.063863	3321.149963
548.422684	3331.426355
548.781449	3354.310673
549.140158	3391.267371
549.498811	3420.669901
549.857408	3428.198864
550.215949	3476.525886
550.574434	3496.869462
550.932864	3538.670710
551.291237	3567.223805
551.649555	3607.873149
552.007817	3643.657780
552.366022	3674.668438
552.724173	3697.673743
553.082267	3740.858788
553.440305	3803.336328
553.798288	3805.461174
554.156215	3869.088097
554.514086	3918.224224
554.871902	3919.171961
555.229661	3970.221205
555.587365	4023.002086
555.945014	4051.098957
556.302606	4125.324906
556.660143	4154.533352
557.017625	4232.875403
557.375050	4251.628495
557.732421	4315.731808
558.089735	4359.471379
558.446994	4401.625508
558.804197	4471.251404
559.161345	4528.410527
559.518437	4532.413203
559.875474	4621.644147
560.232455	4667.798431
560.589381	4732.844439
560.946251	4770.027989
561.303065	4868.194378
561.659825	4937.747178
562.016528	4955.693686
562.373177	4990.575950
562.729770	5066.805758
563.086307	5154.088295
563.442789	5225.667639
563.799216	5274.811327
564.155587	5323.571888
564.511904	5410.466256
564.868164	5445.290547
565.224370	5533.435122
565.580520	5567.498199
565.936615	5677.526422
566.292654	5681.584551
566.648638	5822.210058
567.004567	5844.960786
567.360441	5918.087763
567.716260	5938.837153
568.072023	6084.496252
568.427732	6126.594928
568.783385	6151.737683
569.138982	6263.119456
569.494525	6363.902204
569.850013	6415.765595
570.205445	6496.915569
570.560823	6518.685792
570.916145	6591.747234
571.271412	6660.158213
571.626625	6737.595377
571.981782	6817.394322
572.336884	6839.736715
572.691931	6963.514686
573.046923	6955.995805
573.401860	7053.360651
573.756743	7146.208622
574.111570	7195.637136
574.466342	7252.448419
574.821059	7360.601334
575.175722	7362.068309
575.530330	7480.114488
575.884882	7556.054430
576.239380	7632.584187
576.593823	7677.609252
576.948211	7739.658294
577.302544	7779.513657
577.656823	7832.760844
578.011047	7962.066440
578.365216	8002.131010
578.719330	8061.067140
579.073389	8103.049869
579.427394	8271.104294
579.781344	8254.229032
580.135239	8341.877053
580.489080	8391.076194
580.842866	8392.069302
581.196597	8578.632323
581.550273	8600.886497
581.903895	8717.576605
582.257463	8872.266932
582.610975	8829.926281
582.964434	8996.012135
583.317837	9006.492694
583.671186	9120.931928
584.024481	9207.483498
584.377721	9177.528962
584.730906	9299.356006
585.084037	9406.384743
585.437113	9450.091547
585.790135	9590.893495
586.143103	9496.278599
586.496016	9559.335872
586.848874	9785.471951
587.201679	9819.545110
587.554428	9759.759546
587.907124	9978.265839
588.259765	9973.285179
588.612352	10124.240010
588.964884	10024.478096
589.317362	10165.151494
589.669786	10266.592112
590.022155	10365.497030
590.374470	10535.472135
590.726731	10542.809534
591.078937	10509.525316
591.431090	10623.596545
591.783188	10579.834289
592.135232	10645.908692
592.487222	10800.805706
592.839157	10876.060051
593.191038	10926.133832
593.542866	10936.599267
593.894639	10914.012377
594.246358	11083.059910
594.598022	11100.676222
594.949633	11080.695609
595.301190	11114.199117
595.652692	11280.191710
596.004141	11480.930457
596.355535	11223.876981
596.706876	11303.345730
597.058162	11339.319404
597.409395	11506.075732
597.760573	11644.914150
598.111698	11611.876948
598.462768	11648.188379
598.813785	11688.048783
599.164748	11668.380721
599.515657	11749.621436
599.866511	11714.295550
600.217312	11982.699184
600.568060	11793.398816
600.918753	12046.585727
601.269392	12084.875811
601.619978	12004.366063
601.970510	12224.369579
602.320988	12232.886608
602.671412	12440.078031
603.021783	12445.671192
603.372100	12361.211700
603.722363	12529.699664
604.072572	12571.329513
604.422728	12696.125797
604.772830	12661.735045
605.122878	12658.423007
605.472872	12747.868200
605.822813	12818.683809
606.172701	12852.474663
606.522534	13059.857650
606.872314	13151.440292
607.222041	13075.961616
607.571714	13294.467909
607.921333	13265.249381
608.270899	13369.729815
608.620411	13584.742588
608.969870	13444.895939
609.319276	13520.656920
609.668627	13620.091159
610.017926	13769.974745
610.367171	13905.639757
610.716362	14033.982493
611.065500	13919.127364
611.414585	14078.092589
611.763616	14131.249036
612.112594	14164.513089
612.461518	14181.312734
612.810389	14382.989135
613.159207	14305.463751
613.507971	14305.194049
613.856682	14602.395274
614.205340	14601.371920
614.553945	14783.828922
614.902496	14599.788997
615.250994	14879.993972
615.599439	14870.274628
615.947830	14901.449123
616.296169	14963.445233
616.644454	15021.186609
616.992686	15003.386295
617.340864	15232.244597
617.688990	15107.541575
618.037063	15286.628565
618.385082	15222.991559
618.733048	15471.165043
619.080961	15407.283541
619.428821	15508.366237
619.776628	15482.212731
620.124382	15448.366424
620.472083	15538.782039
620.819731	15608.728049
621.167326	15398.738785
621.514868	15488.360418
621.862357	15356.526684
622.209793	15416.561785
622.557176	15343.457492
622.904506	15222.593308
623.251783	15205.193766
623.599007	15090.575571
623.946179	15087.008955
624.293297	15085.179016
624.640363	14927.476600
624.987376	14971.717767
625.334336	14826.865252
625.681243	14741.437859
626.028097	14773.300472
626.374899	14783.647440
626.721647	14674.234237
627.068343	14566.519903
627.414987	14555.482296
627.761577	14569.899996
628.108115	14649.449404
628.454600	14419.648406
628.801032	14526.011711
629.147412	14490.927801
629.493739	14552.155135
629.840014	14411.098609
630.186236	14517.887892
630.532405	14334.616743
630.878521	14536.330953
631.224585	14463.461074
631.570597	14336.449203
631.916556	14374.018402
632.262462	14378.225245
632.608316	14335.317464
632.954117	14297.251711
633.299866	14327.186083
633.645562	14290.877172
633.991206	14077.381786
634.336797	13976.241117
634.682336	13989.829547
635.027823	13913.037650
635.373257	13843.016023
635.718639	13759.070729
636.063968	13738.938882
636.409245	13545.197257
636.754470	13582.579933
637.099642	13464.120380
637.444762	13274.452007
637.789829	13346.686701
638.134845	13210.956154
638.479808	13248.444695
638.824719	13221.466960
639.169577	13085.013008
639.514383	13150.588337
639.859137	12979.499137
640.203839	13085.370929
640.548489	12939.956326
640.893086	12952.450826
641.237632	12821.905106
641.582125	12997.687620
641.926566	12843.846728
642.270955	12868.341695
