Dividing Wavelength (nm)	Counts (n)	Blue Motor Position (mm): 4.800000	Red Motor Position (mm): 0.000000	
326.493990	2061.670606
326.888308	2061.670606
327.282561	2061.670606
327.676750	2036.018695
328.070874	2040.160003
328.464933	2047.472196
328.858929	2052.629297
329.252859	2067.919116
329.646726	2080.486713
330.040528	2098.289548
330.434265	2115.558020
330.827938	2138.107101
331.221547	2155.065543
331.615091	2174.239572
332.008571	2196.728159
332.401986	2214.417568
332.795338	2238.489077
333.188625	2254.242683
333.581847	2275.954933
333.975006	2293.800617
334.368100	2309.420633
334.761129	2326.434527
335.154095	2342.258709
335.546996	2355.832015
335.939833	2373.523945
336.332606	2385.738661
336.725315	2397.731566
337.117960	2405.424366
337.510540	2415.443660
337.903056	2425.508323
338.295508	2430.420928
338.687896	2440.924172
339.080220	2442.323092
339.472480	2447.263423
339.864676	2450.698969
340.256807	2452.740636
340.648875	2457.423868
341.040879	2455.609053
341.432818	2458.172480
341.824694	2460.809003
342.216506	2459.750361
342.608253	2456.725668
342.999937	2458.462346
343.391557	2459.001749
343.783113	2458.124589
344.174605	2454.767180
344.566033	2454.658795
344.957397	2452.975050
345.348697	2451.142591
345.739934	2450.837601
346.131106	2445.587239
346.522215	2444.384924
346.913260	2443.868206
347.304241	2443.641354
347.695159	2441.433328
348.086012	2438.401074
348.476802	2436.571135
348.867528	2432.429828
349.258191	2428.563262
349.648789	2431.691298
350.039324	2428.568304
350.429796	2433.120466
350.820203	2429.137954
351.210548	2428.757347
351.600828	2429.773139
351.991045	2431.764395
352.381198	2429.158119
352.771288	2426.912285
353.161314	2427.030752
353.551276	2431.502255
353.941175	2428.031421
354.331010	2428.732141
354.720782	2429.228695
355.110490	2430.005033
355.500135	2428.346493
355.889717	2427.678540
356.279235	2430.478901
356.668689	2430.151226
357.058080	2428.467481
357.447408	2431.046031
357.836672	2429.642069
358.225873	2435.578028
358.615010	2430.052923
359.004084	2432.407142
359.393095	2432.354210
359.782043	2433.165836
360.170927	2433.410332
360.559748	2435.235230
360.948505	2436.180446
361.337199	2436.654314
361.725830	2436.979469
362.114398	2437.992741
362.502903	2435.008378
362.891344	2436.956784
363.279722	2436.283790
363.668037	2439.215221
364.056289	2436.442586
364.444478	2438.822011
364.832603	2439.883173
365.220665	2442.176898
365.608665	2441.327464
365.996601	2437.198759
366.384474	2440.044490
366.772284	2440.309151
367.160031	2438.315375
367.547715	2441.080448
367.935336	2440.455344
368.322893	2441.120777
368.710388	2437.050045
369.097820	2439.164809
369.485189	2437.322267
369.872495	2442.970880
370.259738	2444.016920
370.646918	2442.396189
371.034035	2444.276539
371.421090	2443.500201
371.808081	2444.778134
372.195010	2442.648246
372.581875	2445.448607
372.968678	2446.308124
373.355418	2444.261416
373.742096	2443.560695
374.128710	2442.010540
374.515262	2444.483226
374.901751	2446.270315
375.288177	2447.061777
375.674540	2445.501539
376.060841	2444.463062
376.447079	2446.860130
376.833254	2446.363577
377.219367	2444.140428
377.605417	2447.661674
377.991404	2446.595470
378.377329	2445.632609
378.763191	2448.248968
379.148991	2449.358022
379.534727	2447.989349
379.920402	2446.842486
380.306013	2447.669236
380.691563	2448.770728
381.077049	2449.216870
381.462474	2448.092693
381.847835	2450.681325
382.233134	2448.853907
382.618371	2448.022116
383.003545	2449.199226
383.388657	2449.312652
383.773706	2451.679473
384.158693	2449.743670
384.543618	2451.797941
384.928480	2449.239555
385.313280	2450.353650
385.698017	2451.533280
386.082692	2452.964968
386.467305	2450.162086
386.851856	2453.569906
387.236344	2451.646706
387.620770	2450.323403
388.005133	2448.833742
388.389435	2451.407251
388.773674	2448.579164
389.157851	2451.608897
389.541965	2452.738116
389.926018	2455.319187
390.310008	2452.753239
390.693936	2454.426902
391.077802	2457.325566
391.461606	2454.613425
391.845348	2453.297684
392.229027	2455.825822
392.612645	2455.238528
392.996200	2451.865996
393.379694	2454.663837
393.763125	2456.529063
394.146494	2455.946810
394.529801	2456.261882
394.913047	2455.702314
395.296230	2457.764146
395.679351	2457.055864
396.062410	2457.703652
396.445408	2458.074177
396.828343	2454.540328
397.211217	2457.214660
397.594028	2458.568210
397.976778	2456.483693
398.359466	2457.103755
398.742092	2459.402521
399.124656	2461.030814
399.507158	2457.759105
399.889598	2459.357151
400.271977	2457.270113
400.654294	2459.112655
401.036549	2459.538632
401.418742	2460.456122
401.800874	2458.532922
402.182944	2461.847481
402.564952	2457.282716
402.946898	2460.793880
403.328783	2458.580813
403.710606	2460.609877
404.092367	2458.185082
404.474067	2461.555094
404.855705	2460.771194
405.237282	2461.343365
405.618797	2461.292954
406.000250	2463.581638
406.381642	2460.846812
406.762972	2461.524847
407.144240	2456.511419
407.525447	2459.599126
407.906593	2456.125771
408.287677	2463.248922
408.668700	2460.829168
409.049661	2461.960907
409.430560	2461.575258
409.811399	2464.060547
410.192176	2464.645321
410.572891	2462.351596
410.953545	2466.321505
411.334138	2461.552573
411.714669	2465.204889
412.095139	2463.032152
412.475547	2463.397636
412.855894	2465.346042
413.236180	2464.862091
413.616405	2464.138685
413.996568	2462.896041
414.376670	2463.266566
414.756711	2464.415949
415.136691	2466.974334
415.516609	2464.325208
415.896466	2465.030969
416.276262	2465.240177
416.655997	2464.294961
417.035670	2468.461475
417.415283	2464.063068
417.794834	2464.307564
418.174324	2467.065075
418.553753	2466.785291
418.933121	2465.290589
419.312428	2465.358644
419.691674	2465.973665
420.070859	2465.643470
420.449983	2467.975003
420.829045	2464.307564
421.208047	2466.117338
421.586988	2468.300158
421.965867	2468.174129
422.344686	2469.147072
422.723444	2470.026753
423.102141	2467.549026
423.480777	2465.703963
423.859352	2468.658080
424.237866	2468.128758
424.616319	2468.789150
424.994712	2467.654890
425.373044	2471.055148
425.751314	2465.323356
426.129524	2464.335290
426.507673	2466.566001
426.885762	2462.759930
427.263789	2468.385857
427.641756	2472.103708
428.019662	2471.521455
428.397508	2467.851495
428.775292	2468.950467
429.153016	2468.579942
429.530679	2469.353759
429.908282	2472.764099
430.285824	2470.316619
430.663305	2470.825776
431.040726	2468.373254
431.418086	2472.257463
431.795385	2472.630509
432.172624	2469.129428
432.549802	2470.306537
432.926920	2468.920220
433.303977	2470.896352
433.680974	2471.297124
434.057910	2470.757720
434.434786	2472.738894
434.811601	2469.583131
435.188355	2469.613378
435.565050	2470.939202
435.941683	2472.627988
436.318257	2469.762092
436.694770	2470.856023
437.071222	2470.515745
437.447614	2470.157823
437.823946	2471.526496
438.200218	2469.557926
438.576429	2473.162351
438.952580	2474.757876
439.328670	2472.252422
439.704700	2472.418780
440.080670	2473.840386
440.456580	2473.981538
440.832429	2470.977010
441.208218	2473.729480
441.583947	2474.946919
441.959616	2473.500108
442.335224	2474.130252
442.710773	2472.507001
443.086261	2472.449027
443.461689	2473.185036
443.837057	2473.875674
444.212365	2471.213945
444.587612	2474.452886
444.962800	2470.177988
445.337927	2471.778554
445.712995	2469.638584
446.088002	2477.777527
446.462949	2474.470530
446.837837	2474.788123
447.212664	2474.944398
447.587431	2475.864409
447.962139	2473.721919
448.336786	2477.278453
448.711374	2473.396764
449.085901	2477.127218
449.460369	2474.631847
449.834776	2474.735191
450.209124	2475.753504
450.583412	2473.333750
450.957640	2475.811477
451.331808	2474.367186
451.705917	2474.261322
452.079965	2476.015644
452.453954	2473.220324
452.827883	2478.541262
453.201752	2474.977166
453.575562	2475.574543
453.949311	2477.812815
454.323001	2476.822228
454.696632	2478.684935
455.070202	2476.479430
455.443713	2474.319295
455.817164	2475.637557
456.190556	2478.263998
456.563888	2476.144193
456.937160	2476.499594
457.310373	2474.568833
457.683526	2479.884729
458.056619	2475.360294
458.429653	2476.277784
458.802628	2475.980356
459.175542	2476.973463
459.548398	2477.424646
459.921194	2476.290387
460.293930	2478.460603
460.666607	2477.205356
461.039224	2477.293576
461.411782	2476.189563
461.784280	2475.382979
462.156719	2478.717702
462.529099	2475.569502
462.901419	2478.720223
463.273680	2476.040849
463.645882	2474.215952
464.018024	2474.271404
464.390106	2472.207052
464.762130	2479.778865
465.134094	2480.091417
465.505999	2478.568988
465.877845	2475.947588
466.249631	2478.836169
466.621358	2476.023205
466.993026	2478.390027
467.364634	2482.990080
467.736184	2481.344143
468.107674	2477.235603
468.479105	2476.940695
468.850477	2479.287352
469.221790	2478.619400
469.593043	2477.996817
469.964238	2480.593011
470.335373	2479.483958
470.706449	2480.393886
471.077467	2478.493371
471.448425	2480.968577
471.819324	2479.352887
472.190164	2481.318938
472.560945	2479.317599
472.931667	2482.186016
473.302330	2478.808443
473.672934	2481.271047
474.043479	2479.773824
474.413965	2477.359111
474.784393	2479.647795
475.154761	2477.643936
475.525070	2480.792137
475.895321	2480.426653
476.265513	2481.195429
476.635645	2478.296766
477.005719	2478.851293
477.375734	2480.582929
477.745691	2482.443115
478.115588	2478.589153
478.485427	2481.565954
478.855207	2480.441777
479.224928	2480.351036
479.594591	2480.779534
479.964194	2479.962867
480.333739	2481.812971
480.703226	2480.003196
481.072653	2481.437405
481.442022	2482.566623
481.811333	2477.669142
482.180584	2476.484471
482.549777	2479.211735
482.918912	2477.343988
483.287988	2481.465131
483.657005	2481.013948
484.025964	2482.947230
484.394864	2480.492188
484.763706	2480.061170
485.132489	2480.043526
485.501213	2482.997642
485.869879	2482.574185
486.238487	2480.600573
486.607036	2481.528145
486.975527	2481.084524
487.343959	2482.851448
487.712333	2481.951602
488.080648	2478.014461
488.448905	2482.813640
488.817104	2482.561582
489.185244	2482.937148
489.553326	2483.244658
489.921350	2481.533187
490.289315	2481.102168
490.657222	2480.794658
491.025070	2480.451859
491.392861	2482.344812
491.760593	2480.593011
492.128267	2482.675008
492.495883	2480.837507
492.863440	2481.573516
493.230939	2478.528659
493.598380	2485.016624
493.965763	2482.080152
494.333088	2479.176447
494.700354	2482.221304
495.067563	2482.206181
495.434713	2481.056798
495.801805	2483.710965
496.168839	2482.102837
496.535815	2483.915132
496.902733	2481.109730
497.269593	2482.977477
497.636395	2480.179637
498.003139	2484.174751
498.369825	2481.175265
498.736453	2480.610655
499.103023	2482.508650
499.469535	2483.965543
499.835989	2481.583598
500.202385	2480.650985
500.568723	2478.034626
500.935003	2480.466983
501.301226	2477.437249
501.667390	2481.266005
502.033497	2481.621407
502.399546	2485.659371
502.765537	2482.937148
503.131470	2482.798516
503.497345	2485.107365
503.863163	2481.303814
504.228923	2482.337251
504.594625	2483.549648
504.960269	2483.816829
505.325856	2482.599391
505.691385	2483.549648
506.056856	2484.769607
506.422270	2479.151241
506.787625	2486.208857
507.152924	2482.417909
507.518164	2484.409165
507.883347	2482.869092
508.248472	2485.472848
508.613540	2485.366984
508.978550	2484.434371
509.343503	2484.641058
509.708398	2482.254072
510.073236	2484.820019
510.438016	2484.204998
510.802738	2483.017806
511.167403	2484.273054
511.532010	2483.305152
511.896561	2484.734319
512.261053	2483.955461
512.625488	2483.312714
512.989866	2483.174082
513.354186	2484.885554
513.718449	2482.339771
514.082655	2482.969915
514.446803	2483.796665
514.810894	2484.026037
515.174927	2486.536532
515.538904	2483.161479
515.902822	2486.062663
516.266684	2481.916314
516.630488	2485.056953
516.994235	2484.464617
517.357925	2485.188023
517.721558	2485.861017
518.085133	2483.794144
518.448651	2482.312045
518.812112	2480.799699
519.175516	2481.641571
519.538863	2479.352888
519.902152	2481.903711
520.265385	2485.520739
520.628560	2484.464617
520.991678	2484.630976
521.354739	2485.245996
521.717743	2482.833804
522.080690	2484.081490
522.443580	2484.764566
522.806413	2483.365646
523.169189	2485.261120
523.531908	2483.983187
523.894569	2484.623414
524.257174	2484.353712
524.619722	2483.247179
524.982213	2485.500575
525.344647	2483.907570
525.707025	2485.245996
526.069345	2484.709113
526.431608	2482.937148
526.793815	2486.120637
527.155964	2486.665081
527.518057	2487.572489
527.880093	2484.320945
528.242072	2484.449494
528.603995	2485.626603
528.965860	2481.230717
529.327669	2486.012252
529.689421	2483.894967
530.051117	2487.542242
530.412755	2485.866058
530.774337	2482.836325
531.135862	2486.186172
531.497331	2484.845225
531.858743	2485.079638
532.220098	2482.627117
532.581396	2484.946048
532.942638	2483.484113
533.303824	2484.237766
533.664953	2485.366984
534.026025	2485.752632
534.387040	2485.361943
534.747999	2484.862869
535.108902	2485.142653
535.469748	2483.965543
535.830537	2485.283805
536.191270	2484.141984
536.551947	2483.993270
536.912567	2481.684421
537.273131	2483.267343
537.633638	2480.971098
537.994089	2485.283805
538.354483	2485.611480
538.714821	2487.854793
539.075103	2486.392859
539.435328	2484.268013
539.795497	2484.477220
540.155609	2486.407982
540.515665	2484.376397
540.875665	2487.191882
541.235609	2485.548466
541.595496	2487.433857
541.955328	2484.830101
542.315102	2485.586274
542.674821	2485.026706
543.034483	2485.475369
543.394090	2485.182982
543.753640	2484.832622
544.113134	2485.039309
544.472571	2485.876141
544.831953	2486.246665
545.191278	2486.813795
545.550548	2486.632314
545.909761	2485.263640
546.268918	2487.048209
546.628019	2485.840853
546.987064	2484.724237
547.346053	2486.450832
547.704986	2484.255410
548.063863	2488.495020
548.422684	2485.054433
548.781449	2488.900833
549.140158	2486.314721
549.498811	2487.423775
549.857408	2485.417396
550.215949	2486.082828
550.574434	2486.223980
550.932864	2484.467138
551.291237	2486.559217
551.649555	2487.610298
552.007817	2485.850935
552.366022	2485.916470
552.724173	2488.043837
553.082267	2485.994608
553.440305	2485.424957
553.798288	2485.097282
554.156215	2486.133239
554.514086	2485.495533
554.871902	2479.299955
555.229661	2484.131901
555.587365	2481.565954
555.945014	2486.750781
556.302606	2487.249855
556.660143	2486.778507
557.017625	2487.433857
557.375050	2485.177941
557.732421	2486.549135
558.089735	2485.828250
558.446994	2483.993270
558.804197	2485.825729
559.161345	2488.371512
559.518437	2488.333703
559.875474	2487.060812
560.232455	2486.839001
560.589381	2487.244814
560.946251	2486.571820
561.303065	2485.966881
561.659825	2485.125009
562.016528	2483.905049
562.373177	2484.542755
562.729770	2484.507467
563.086307	2484.068887
563.442789	2484.787251
563.799216	2487.597695
564.155587	2487.227170
564.511904	2485.863538
564.868164	2484.963692
565.224370	2485.117447
565.580520	2484.020996
565.936615	2489.132726
566.292654	2484.628455
566.648638	2486.612149
567.004567	2483.607621
567.360441	2487.375884
567.716260	2484.290698
568.072023	2486.942345
568.427732	2485.031747
568.783385	2485.329175
569.138982	2485.369505
569.494525	2485.276243
569.850013	2487.280102
570.205445	2487.615339
570.560823	2486.158445
570.916145	2486.007211
571.271412	2487.534680
571.626625	2490.067860
571.981782	2485.351861
572.336884	2483.930255
572.691931	2483.975626
573.046923	2484.066366
573.401860	2479.892291
573.756743	2485.959320
574.111570	2488.167345
574.466342	2485.868579
574.821059	2484.930924
575.175722	2485.883702
575.530330	2486.869248
575.884882	2486.909577
576.239380	2485.591315
576.593823	2485.435040
576.948211	2486.155925
577.302544	2486.949906
577.656823	2487.305308
578.011047	2484.636017
578.365216	2487.491830
578.719330	2486.586943
579.073389	2486.236583
579.427394	2487.060812
579.781344	2484.462097
580.135239	2484.764566
580.489080	2487.383446
580.842866	2485.616521
581.196597	2486.891933
581.550273	2487.060812
581.903895	2485.573671
582.257463	2486.607108
582.610975	2486.297077
582.964434	2487.345637
583.317837	2485.291367
583.671186	2487.937973
584.024481	2486.972592
584.377721	2484.530153
584.730906	2485.815647
585.084037	2485.684577
585.437113	2485.193064
585.790135	2486.990236
586.143103	2487.731285
586.496016	2487.464104
586.848874	2486.702890
587.201679	2485.729947
587.554428	2488.119454
587.907124	2487.542242
588.259765	2486.292036
588.612352	2486.987715
588.964884	2487.708600
589.317362	2487.794300
589.669786	2487.660709
590.022155	2485.629124
590.374470	2480.885398
590.726731	2486.546614
591.078937	2479.163844
591.431090	2487.766573
591.783188	2485.747591
592.135232	2486.241624
592.487222	2489.604074
592.839157	2484.988898
593.191038	2486.914618
593.542866	2485.666933
593.894639	2486.866727
594.246358	2486.420585
594.598022	2484.976295
594.949633	2488.202633
595.301190	2487.315390
595.652692	2487.524598
596.004141	2486.924701
596.355535	2488.522746
596.706876	2484.381438
597.058162	2486.009731
597.409395	2487.383446
597.760573	2486.591984
598.111698	2485.815647
598.462768	2486.377735
598.813785	2486.768425
599.164748	2486.392859
599.515657	2485.417396
599.866511	2482.934627
600.217312	2483.819350
600.568060	2487.091059
600.918753	2488.290853
601.269392	2486.034937
601.619978	2488.336224
601.970510	2483.635348
602.320988	2485.288846
602.671412	2488.898312
603.021783	2485.175420
603.372100	2489.152891
603.722363	2486.234063
604.072572	2485.961840
604.422728	2486.007211
604.772830	2485.261120
605.122878	2487.234732
605.472872	2486.944865
605.822813	2485.240955
606.172701	2487.459063
606.522534	2487.975781
606.872314	2485.467807
607.222041	2487.837149
607.571714	2484.056284
607.921333	2481.581078
608.270899	2486.821357
608.620411	2483.547128
608.969870	2487.166676
609.319276	2488.323621
609.668627	2489.430154
610.017926	2485.127529
610.367171	2487.207005
610.716362	2487.585092
611.065500	2487.519557
611.414585	2486.597026
611.763616	2488.832777
612.112594	2488.121975
612.461518	2486.937303
612.810389	2485.654330
613.159207	2486.453353
613.507971	2488.036275
613.856682	2486.864207
614.205340	2487.494351
614.553945	2486.710452
614.902496	2487.118785
615.250994	2483.763897
615.599439	2485.823208
615.947830	2484.323465
616.296169	2485.606439
616.644454	2483.232055
616.992686	2486.907057
617.340864	2485.762715
617.688990	2488.033754
618.037063	2483.164000
618.385082	2485.908908
618.733048	2486.798672
619.080961	2486.166007
619.428821	2484.121819
619.776628	2487.796820
620.124382	2486.304639
620.472083	2489.409989
620.819731	2488.006028
621.167326	2484.865389
621.514868	2486.241624
621.862357	2488.764722
622.209793	2487.602736
622.557176	2484.121819
622.904506	2485.072077
623.251783	2487.401090
623.599007	2487.257417
623.946179	2487.181799
624.293297	2486.856645
624.640363	2485.014103
624.987376	2484.608290
625.334336	2481.838176
625.681243	2484.197436
626.028097	2479.239462
626.374899	2486.150883
626.721647	2485.351861
627.068343	2485.830770
627.414987	2486.433188
627.761577	2488.119454
628.108115	2485.651809
628.454600	2487.660709
628.801032	2484.938486
629.147412	2486.496202
629.493739	2486.405462
629.840014	2487.532160
630.186236	2487.544763
630.532405	2486.652478
630.878521	2484.850266
631.224585	2487.879999
631.570597	2484.802375
631.916556	2488.232880
632.262462	2486.397900
632.608316	2486.375215
632.954117	2486.047540
633.299866	2488.404279
633.645562	2486.740698
633.991206	2485.664412
634.336797	2485.908908
634.682336	2486.949906
635.027823	2486.831439
635.373257	2485.435040
635.718639	2488.361429
636.063968	2487.207005
636.409245	2485.450163
636.754470	2486.350009
637.099642	2486.781028
637.444762	2485.493013
637.789829	2486.322283
638.134845	2485.243476
638.479808	2485.324134
638.824719	2488.860504
639.169577	2486.418065
639.514383	2485.535863
639.859137	2487.900164
640.203839	2485.949237
640.548489	2487.655668
640.893086	2485.117447
641.237632	2486.546614
641.582125	2485.485451
641.926566	2486.271871
642.270955	2485.084679
642.615292	2483.532004
642.959576	2483.403455
643.303809	2483.403455
643.647990	2483.637868
643.992118	2485.011583
644.336195	2484.910760
