Dividing Wavelength (nm)	Counts (n)	Blue Motor Position (mm): 21.000000	Red Motor Position (mm): 0.000000	
326.493990	2133.282717
326.888308	2133.282717
327.282561	2133.282717
327.676750	2101.604106
328.070874	2100.550505
328.464933	2101.906576
328.858929	2109.193563
329.252859	2121.909874
329.646726	2130.091667
330.040528	2144.343009
330.434265	2158.506130
330.827938	2178.479182
331.221547	2195.823272
331.615091	2214.039481
332.008571	2230.519013
332.401986	2254.988774
332.795338	2273.227668
333.188625	2292.797428
333.581847	2310.441466
333.975006	2329.194558
334.368100	2348.096365
334.761129	2365.720239
335.154095	2381.942672
335.546996	2402.124931
335.939833	2422.649989
336.332606	2438.264963
336.725315	2451.470266
337.117960	2461.837398
337.510540	2466.326546
337.903056	2479.662918
338.295508	2487.290184
338.687896	2494.804024
339.080220	2503.686537
339.472480	2510.361025
339.864676	2515.253465
340.256807	2517.038033
340.648875	2521.161697
341.040879	2522.212777
341.432818	2527.090094
341.824694	2527.563962
342.216506	2526.868283
342.608253	2529.000691
342.999937	2526.492717
343.391557	2525.136647
343.783113	2523.800741
344.174605	2523.261338
344.566033	2523.878879
344.957397	2522.041378
345.348697	2522.132119
345.739934	2521.007942
346.131106	2518.714217
346.522215	2514.550224
346.913260	2514.235152
347.304241	2515.792868
347.695159	2510.799605
348.086012	2510.613082
348.476802	2508.591580
348.867528	2505.914727
349.258191	2502.663183
349.648789	2503.913389
350.039324	2500.694612
350.429796	2501.128152
350.820203	2498.317708
351.210548	2497.543891
351.600828	2496.724704
351.991045	2495.151864
352.381198	2496.402070
352.771288	2495.925681
353.161314	2494.073057
353.551276	2492.427120
353.941175	2492.643890
354.331010	2496.487769
354.720782	2491.076091
355.110490	2493.546256
355.500135	2491.996101
355.889717	2493.180772
356.279235	2493.732779
356.668689	2496.240753
357.058080	2497.773264
357.447408	2494.156236
357.836672	2490.884527
358.225873	2495.799652
358.615010	2490.534167
359.004084	2496.553304
359.393095	2496.853253
359.782043	2500.034221
360.170927	2498.917606
360.559748	2498.970538
360.948505	2499.804849
361.337199	2501.609582
361.725830	2498.713439
362.114398	2500.682009
362.502903	2499.872904
362.891344	2505.362721
363.279722	2504.818276
363.668037	2504.546054
364.056289	2502.615292
364.444478	2501.680158
364.832603	2502.756444
365.220665	2505.856754
365.608665	2505.851713
365.996601	2508.755417
366.384474	2506.892711
366.772284	2504.891373
367.160031	2509.156189
367.547715	2506.252484
367.935336	2507.086795
368.322893	2509.030160
368.710388	2509.889677
369.097820	2508.735253
369.485189	2507.729543
369.872495	2506.728873
370.259738	2506.703668
370.646918	2508.992352
371.034035	2509.206601
371.421090	2509.365397
371.808081	2509.725839
372.195010	2511.331447
372.581875	2510.020747
372.968678	2512.987466
373.355418	2507.313647
373.742096	2511.013854
374.128710	2511.016375
374.515262	2511.790192
374.901751	2510.784482
375.288177	2511.333968
375.674540	2513.179030
376.060841	2512.440501
376.447079	2515.261026
376.833254	2513.615090
377.219367	2510.194667
377.605417	2511.064266
377.991404	2509.713237
378.377329	2509.456138
378.763191	2509.577125
379.148991	2512.831190
379.534727	2512.654750
379.920402	2514.633403
380.306013	2516.395286
380.691563	2514.000738
381.077049	2516.281860
381.462474	2515.792868
381.847835	2514.749349
382.233134	2515.848321
382.618371	2514.497292
383.003545	2516.675070
383.388657	2516.208763
383.773706	2516.644823
384.158693	2516.274298
384.543618	2517.227076
384.928480	2516.639782
385.313280	2519.183044
385.698017	2515.558454
386.082692	2518.144566
386.467305	2517.406037
386.851856	2519.490554
387.236344	2515.898732
387.620770	2520.776049
388.005133	2517.005266
388.389435	2520.017355
388.773674	2519.598939
389.157851	2516.866634
389.541965	2518.091634
389.926018	2520.776049
390.310008	2520.478621
390.693936	2520.224042
391.077802	2519.654392
391.461606	2520.642458
391.845348	2519.672036
392.229027	2522.285874
392.612645	2519.984587
392.996200	2521.217150
393.379694	2521.111285
393.763125	2522.295957
394.146494	2522.487520
394.529801	2523.795700
394.913047	2525.902902
395.296230	2520.672705
395.679351	2521.386028
396.062410	2522.943745
396.445408	2522.114475
396.828343	2523.919208
397.211217	2520.080369
397.594028	2520.276974
397.976778	2519.402334
398.359466	2519.304032
398.742092	2518.890657
399.124656	2525.068591
399.507158	2524.108251
399.889598	2527.440454
400.271977	2525.081194
400.654294	2525.547501
401.036549	2524.531708
401.418742	2526.326359
401.800874	2527.206040
402.182944	2528.317615
402.564952	2525.880217
402.946898	2526.775022
403.328783	2526.885927
403.710606	2527.125382
404.092367	2526.626308
404.474067	2526.470032
404.855705	2527.296781
405.237282	2528.448685
405.618797	2529.323325
406.000250	2527.153108
406.381642	2529.661082
406.762972	2529.061185
407.144240	2527.755526
407.525447	2532.751310
407.906593	2527.816020
408.287677	2529.716535
408.668700	2528.796524
409.049661	2529.270393
409.430560	2532.116124
409.811399	2530.770136
410.192176	2529.817358
410.572891	2531.228881
410.953545	2531.730476
411.334138	2529.870290
411.714669	2532.615198
412.095139	2531.748120
412.475547	2530.636546
412.855894	2531.730476
413.236180	2531.354910
413.616405	2533.847761
413.996568	2532.685775
414.376670	2530.903727
414.756711	2531.453212
415.136691	2533.991433
415.516609	2533.918337
415.896466	2531.823737
416.276262	2533.920857
416.655997	2528.229395
417.035670	2529.840043
417.415283	2530.656710
417.794834	2525.436595
418.174324	2530.107224
418.553753	2532.738707
418.933121	2532.342976
419.312428	2532.345497
419.691674	2532.799201
420.070859	2532.045548
420.449983	2534.084695
420.829045	2534.903882
421.208047	2534.205683
421.586988	2535.125693
421.965867	2536.769109
422.344686	2533.499921
422.723444	2534.639222
423.102141	2534.677030
423.480777	2532.509334
423.859352	2534.112421
424.237866	2533.217616
424.616319	2535.256763
424.994712	2533.187369
425.373044	2536.151568
425.751314	2536.721218
426.129524	2534.692154
426.507673	2539.012423
426.885762	2535.060158
427.263789	2535.493697
427.641756	2536.118800
428.019662	2534.853471
428.397508	2534.077133
428.775292	2537.202648
429.153016	2534.659386
429.530679	2539.171219
429.908282	2535.531506
430.285824	2539.289686
430.663305	2536.905220
431.040726	2536.292720
431.418086	2537.621064
431.795385	2541.348998
432.172624	2537.699202
432.549802	2538.067206
432.926920	2537.742052
433.303977	2540.123997
433.680974	2537.565612
434.057910	2541.454862
434.434786	2539.524100
434.811601	2540.093750
435.188355	2536.827082
435.565050	2539.773637
435.941683	2538.674665
436.318257	2539.632485
436.694770	2535.362627
437.071222	2538.538554
437.447614	2538.021836
437.823946	2535.546629
438.200218	2537.008564
438.576429	2541.011240
438.952580	2540.713812
439.328670	2540.983514
439.704700	2539.259439
440.080670	2540.870088
440.456580	2540.393699
440.832429	2541.782537
441.208218	2541.414533
441.583947	2542.828576
441.959616	2539.594676
442.335224	2540.723894
442.710773	2540.519728
443.086261	2543.380582
443.461689	2541.381765
443.837057	2544.000644
444.212365	2540.396219
444.587612	2543.471323
444.962800	2542.556354
445.337927	2544.411498
445.712995	2541.883360
446.088002	2542.952084
446.462949	2541.913607
446.837837	2545.172713
447.212664	2543.115922
447.587431	2544.812270
447.962139	2543.012578
448.336786	2546.886705
448.711374	2546.438042
449.085901	2544.565254
449.460369	2544.411498
449.834776	2545.364277
450.209124	2544.648433
450.583412	2544.577857
450.957640	2544.976108
451.331808	2543.554502
451.705917	2545.452497
452.079965	2544.550130
452.453954	2546.170861
452.827883	2549.273691
453.201752	2546.208670
453.575562	2546.082641
453.949311	2544.396375
454.323001	2547.529452
454.696632	2545.109698
455.070202	2547.146324
455.443713	2546.128011
455.817164	2544.184647
456.190556	2543.491488
456.563888	2545.359235
456.937160	2545.119781
457.310373	2546.473330
457.683526	2546.226314
458.056619	2546.352343
458.429653	2547.776469
458.802628	2547.980635
459.175542	2547.930224
459.548398	2547.209339
459.921194	2546.153217
460.293930	2548.638506
460.666607	2548.641027
461.039224	2550.042467
461.411782	2547.899977
461.784280	2552.686553
462.156719	2548.678835
462.529099	2550.964998
462.901419	2550.002138
463.273680	2549.182951
463.645882	2548.111705
464.018024	2551.048177
464.390106	2547.784030
464.762130	2549.762683
465.134094	2551.053219
465.505999	2551.043136
465.877845	2553.329300
466.249631	2555.086142
466.621358	2552.767211
466.993026	2555.985988
467.364634	2557.599157
467.736184	2556.522871
468.107674	2554.042623
468.479105	2556.991698
468.850477	2553.591440
469.221790	2553.654454
469.593043	2552.989022
469.964238	2552.449618
470.335373	2555.126471
470.706449	2555.824671
471.077467	2554.395504
471.448425	2559.509754
471.819324	2557.684857
472.190164	2563.429251
472.560945	2557.773077
472.931667	2557.762994
473.302330	2556.585885
473.672934	2556.482541
474.043479	2559.330793
474.413965	2557.881462
474.784393	2556.172510
475.154761	2557.226112
475.525070	2557.793241
475.895321	2558.204095
476.265513	2558.282233
476.635645	2564.966803
477.005719	2561.745506
477.375734	2568.039387
477.745691	2568.699778
478.115588	2570.910324
478.485427	2574.754203
478.855207	2580.538927
479.224928	2585.058322
479.594591	2590.797676
479.964194	2592.499065
480.333739	2593.567790
480.703226	2599.423090
481.072653	2605.033894
481.442022	2609.505397
481.811333	2615.481685
482.180584	2618.632407
482.549777	2622.075515
482.918912	2626.489045
483.287988	2636.394912
483.657005	2639.540592
484.025964	2641.050418
484.394864	2650.605925
484.763706	2654.827891
485.132489	2659.453150
485.501213	2670.321877
485.869879	2677.303876
486.238487	2683.728826
486.607036	2694.552183
486.975527	2701.314891
487.343959	2710.630944
487.712333	2725.830022
488.080648	2733.371589
488.448905	2746.763414
488.817104	2754.925042
489.185244	2774.880449
489.553326	2796.391053
489.921350	2827.822647
490.289315	2886.204250
490.657222	2906.958680
491.025070	2928.620518
491.392861	2942.705502
491.760593	2945.155503
492.128267	2947.524845
492.495883	2952.230762
492.863440	2958.378449
493.230939	2963.238122
493.598380	2981.227479
493.965763	2995.834223
494.333088	3008.295955
494.700354	3029.453678
495.067563	3053.835218
495.434713	3071.839699
495.801805	3105.247426
496.168839	3129.765077
496.535815	3153.677791
496.902733	3172.415759
497.269593	3205.044628
497.636395	3234.447157
498.003139	3271.988630
498.369825	3288.919345
498.736453	3337.304340
499.103023	3356.168338
499.469535	3399.310532
499.835989	3426.537804
500.202385	3463.575162
500.568723	3482.068634
500.935003	3536.066954
501.301226	3571.803693
501.667390	3626.036427
502.033497	3682.794778
502.399546	3700.453940
502.765537	3732.336717
503.131470	3784.961322
503.497345	3858.408413
503.863163	3844.373841
504.228923	3938.865228
504.594625	3987.749297
504.960269	3994.106192
505.325856	4080.072989
505.691385	4099.662913
506.056856	4171.685878
506.422270	4234.206268
506.787625	4256.450359
507.152924	4340.773739
507.518164	4379.819997
507.883347	4422.024537
508.248472	4461.758911
508.613540	4566.148604
508.978550	4606.424903
509.343503	4652.178415
509.708398	4740.920367
510.073236	4824.303572
510.438016	4888.422008
510.802738	4938.029483
511.167403	5008.519937
511.532010	5052.178850
511.896561	5162.512063
512.261053	5254.639150
512.625488	5281.102687
512.989866	5344.948900
513.354186	5403.632972
513.718449	5438.079177
514.082655	5558.885387
514.446803	5596.946099
514.810894	5704.214291
515.174927	5731.239917
515.538904	5795.244927
515.902822	5928.585966
516.266684	5945.322597
516.630488	6000.553479
516.994235	6078.734213
517.357925	6184.275810
517.721558	6288.642818
518.085133	6375.033072
518.448651	6431.448624
518.812112	6454.965607
519.175516	6541.645727
519.538863	6659.495301
519.902152	6683.788621
520.265385	6846.532191
520.628560	6859.911413
520.991678	6928.493791
521.354739	7019.466453
521.717743	7051.651700
522.080690	7113.330217
522.443580	7263.188597
522.806413	7306.923128
523.169189	7385.630663
523.531908	7482.105744
523.894569	7458.745037
524.257174	7541.107409
524.619722	7673.490629
524.982213	7700.929630
525.344647	7811.250241
525.707025	7843.246444
526.069345	7962.361348
526.431608	7992.255390
526.793815	8115.899770
527.155964	8053.891057
527.518057	8143.137125
527.880093	8178.284049
528.242072	8281.902446
528.603995	8292.773694
528.965860	8301.023543
529.327669	8394.637769
529.689421	8418.489989
530.051117	8462.330383
530.412755	8595.331145
530.774337	8574.370028
531.135862	8624.756360
531.497331	8686.109723
531.858743	8649.296697
532.220098	8818.684507
532.581396	8779.615565
532.942638	8808.960122
533.303824	8839.065893
533.664953	8905.611644
534.026025	8893.031444
534.387040	9015.808746
534.747999	9062.298267
535.108902	9156.648503
535.469748	9016.164148
535.830537	9144.532089
536.191270	9176.911420
536.551947	9240.369465
536.912567	9283.272205
537.273131	9264.037682
537.633638	9286.667422
537.994089	9331.629473
538.354483	9327.823402
538.714821	9481.555909
539.075103	9531.319659
539.435328	9539.887100
539.795497	9430.536912
540.155609	9605.964024
540.515665	9714.583246
540.875665	9532.126244
541.235609	9619.076065
541.595496	9653.696189
541.955328	9828.898971
542.315102	9750.816539
542.674821	9739.415969
543.034483	9777.827041
543.394090	9808.520106
543.753640	9778.132031
544.113134	10004.157205
544.472571	9898.169466
544.831953	10061.071832
545.191278	9906.689016
545.550548	9964.460639
545.909761	10112.113514
546.268918	10115.387744
546.628019	10224.959743
546.987064	10120.197005
547.346053	10061.016379
547.704986	10181.247898
548.063863	10192.119147
548.422684	10205.347134
548.781449	10150.998455
549.140158	10264.459704
549.498811	10169.428913
549.857408	10054.636799
550.215949	10296.607142
550.574434	10169.227267
550.932864	10282.965780
551.291237	10348.578918
551.649555	10318.238733
552.007817	10343.200007
552.366022	10325.702162
552.724173	10330.428243
553.082267	10330.864303
553.440305	10481.587242
553.798288	10302.560745
554.156215	10460.646288
554.514086	10457.830804
554.871902	10322.425412
555.229661	10367.795796
555.587365	10352.095123
555.945014	10257.528118
556.302606	10397.846114
556.660143	10294.114292
557.017625	10458.332399
557.375050	10365.333193
557.732421	10508.265028
558.089735	10433.323235
558.446994	10434.830540
558.804197	10481.320060
559.161345	10494.999231
559.518437	10348.964566
559.875474	10447.390574
560.232455	10487.021605
560.589381	10440.758937
560.946251	10443.370254
561.303065	10549.635257
561.659825	10499.024593
562.016528	10428.163614
562.373177	10310.936622
562.729770	10434.933883
563.086307	10358.504950
563.442789	10451.363004
563.799216	10335.149284
564.155587	10388.804805
564.511904	10348.911634
564.868164	10336.175159
565.224370	10354.492191
565.580520	10284.904104
565.936615	10297.761567
566.292654	10167.140229
566.648638	10299.929263
567.004567	10256.986194
567.360441	10245.787270
567.716260	10159.369291
568.072023	10259.612635
568.427732	10212.858453
568.783385	10121.006110
569.138982	10193.427326
569.494525	10211.023473
569.850013	10086.181819
570.205445	10169.645683
570.560823	10073.079860
570.916145	9993.170010
571.271412	10068.575589
571.626625	10010.662814
571.981782	9983.120470
572.336884	9965.962903
572.691931	9969.181679
573.046923	9911.122711
573.401860	9874.143327
573.756743	9813.770468
574.111570	9855.231438
574.466342	9837.688223
574.821059	9870.859015
575.175722	9761.115616
575.530330	9775.460219
575.884882	9768.858828
576.239380	9689.516108
576.593823	9668.363427
576.948211	9681.883801
577.302544	9571.850536
577.656823	9589.297970
578.011047	9585.610366
578.365216	9565.844001
578.719330	9491.174431
579.073389	9500.840843
579.427394	9449.226989
579.781344	9431.461963
580.135239	9378.890290
580.489080	9385.330364
580.842866	9288.930900
581.196597	9296.472466
581.550273	9334.202982
581.903895	9303.701481
582.257463	9372.228406
582.610975	9249.834231
582.964434	9271.521275
583.317837	9196.022435
583.671186	9176.616513
584.024481	9180.087347
584.377721	9095.882434
584.730906	9077.464578
585.084037	9110.554712
585.437113	9044.268580
585.790135	9062.010921
586.143103	8958.732802
586.496016	8931.727341
586.848874	8990.295467
587.201679	8980.190474
587.554428	8869.698464
587.907124	8911.721522
588.259765	8887.776042
588.612352	8890.561279
588.964884	8765.291127
589.317362	8779.073641
589.669786	8781.664794
590.022155	8832.255294
590.374470	8842.793826
590.726731	8782.100854
591.078937	8638.720356
591.431090	8748.972912
591.783188	8621.202347
592.135232	8618.888457
592.487222	8609.264894
592.839157	8666.035848
593.191038	8600.931867
593.542866	8543.981952
593.894639	8444.963608
594.246358	8499.846650
594.598022	8517.382304
594.949633	8416.314731
595.301190	8388.180051
595.652692	8419.823374
596.004141	8525.226339
596.355535	8310.163154
596.706876	8289.587685
597.058162	8217.847025
597.409395	8300.786608
597.760573	8362.419755
598.111698	8260.228005
598.462768	8256.026203
598.813785	8217.574802
599.164748	8194.965227
599.515657	8178.984770
599.866511	8091.646779
600.217312	8215.364256
600.568060	8076.631702
600.918753	8176.005448
601.269392	8148.027044
601.619978	8064.457316
601.970510	8128.381667
602.320988	8123.030482
602.671412	8175.965118
603.021783	8122.538970
603.372100	8090.575534
603.722363	8091.185514
604.072572	8065.079898
604.422728	8078.023061
604.772830	8009.123091
605.122878	8009.849017
605.472872	8013.254316
605.822813	8036.985548
606.172701	7980.282650
606.522534	8057.853404
606.872314	8059.211995
607.222041	8024.486007
607.571714	8084.866427
607.921333	8042.089716
608.270899	8045.759676
608.620411	8134.052965
608.969870	8037.114097
609.319276	8034.782564
609.668627	8052.502220
610.017926	8086.295594
610.367171	8129.604147
610.716362	8108.403575
611.065500	8095.956966
611.414585	8129.215978
611.763616	8117.507898
612.112594	8099.400074
612.461518	8113.517825
612.810389	8172.748862
613.159207	8116.207281
613.507971	8062.145947
613.856682	8178.520983
614.205340	8133.266545
614.553945	8206.060807
614.902496	8109.943647
615.250994	8164.761154
615.599439	8145.640057
615.947830	8159.838467
616.296169	8131.855022
616.644454	8147.311200
616.992686	8141.138307
617.340864	8203.353707
617.688990	8102.732277
618.037063	8193.873817
618.385082	8147.432188
618.733048	8231.652224
619.080961	8170.016557
619.428821	8190.841563
619.776628	8189.591357
620.124382	8140.813153
620.472083	8128.734548
620.819731	8157.731265
621.167326	8050.780666
621.514868	8055.123620
621.862357	7943.729243
622.209793	7956.347251
622.557176	7901.824652
622.904506	7869.752831
623.251783	7799.700957
623.599007	7755.358968
623.946179	7760.193434
624.293297	7720.786735
624.640363	7635.051831
624.987376	7616.870910
625.334336	7568.490957
625.681243	7518.306270
626.028097	7507.442583
626.374899	7482.133471
626.721647	7474.899415
627.068343	7408.096565
627.414987	7382.157308
627.761577	7332.494380
628.108115	7366.935543
628.454600	7268.501973
628.801032	7318.638769
629.147412	7278.004548
629.493739	7263.722960
629.840014	7204.844803
630.186236	7262.888649
630.532405	7138.901470
630.878521	7191.551281
631.224585	7155.065930
631.570597	7072.975780
631.916556	7108.808302
632.262462	7105.365194
632.608316	7061.590334
632.954117	7047.969137
633.299866	7033.006992
633.645562	7021.354365
633.991206	6941.867972
634.336797	6885.160032
634.682336	6840.669329
635.027823	6811.818805
635.373257	6800.201466
635.718639	6735.157979
636.063968	6749.910916
636.409245	6644.762529
636.754470	6639.481920
637.099642	6596.400219
637.444762	6545.494648
637.789829	6548.894906
638.134845	6492.403736
638.479808	6479.652137
638.824719	6484.877293
639.169577	6410.434574
639.514383	6436.149500
639.859137	6366.468151
640.203839	6371.839501
640.548489	6357.845257
640.893086	6332.931875
641.237632	6301.565816
641.582125	6328.775444
641.926566	6297.605990
642.270955	6310.314738
642.615292	6309.213246
642.959576	6321.465771
643.303809	6311.217105
