Dividing Wavelength (nm)	Counts (n)	Blue Motor Position (mm): 5.800000	Red Motor Position (mm): 0.000000	
326.493990	2065.809393
326.888308	2065.809393
327.282561	2065.809393
327.676750	2037.967101
328.070874	2039.116484
328.464933	2047.930941
328.858929	2055.585933
329.252859	2065.554815
329.646726	2079.107957
330.040528	2095.693353
330.434265	2112.356888
330.827938	2136.758593
331.221547	2156.093938
331.615091	2176.384583
332.008571	2199.024404
332.401986	2218.100131
332.795338	2236.664180
333.188625	2258.270565
333.581847	2277.242948
333.975006	2294.173663
334.368100	2310.416260
334.761129	2327.750268
335.154095	2343.367763
335.546996	2358.670185
335.939833	2373.226517
336.332606	2388.473487
336.725315	2398.868346
337.117960	2410.266395
337.510540	2417.591191
337.903056	2426.244332
338.295508	2435.489808
338.687896	2442.963318
339.080220	2444.032043
339.472480	2452.430605
339.864676	2454.620987
340.256807	2457.093673
340.648875	2458.653910
341.040879	2460.718262
341.432818	2461.502162
341.824694	2464.400825
342.216506	2464.680609
342.608253	2463.490897
342.999937	2459.221040
343.391557	2457.915381
343.783113	2459.576441
344.174605	2457.199537
344.566033	2457.093673
344.957397	2455.795576
345.348697	2455.399845
345.739934	2448.380038
346.131106	2450.555296
346.522215	2446.756787
346.913260	2444.513473
347.304241	2440.987186
347.695159	2439.749583
348.086012	2442.880139
348.476802	2438.736311
348.867528	2435.547781
349.258191	2430.650300
349.648789	2430.408325
350.039324	2431.184662
350.429796	2433.405291
350.820203	2434.877308
351.210548	2433.644746
351.600828	2433.508634
351.991045	2430.047882
352.381198	2429.949580
352.771288	2432.407142
353.161314	2431.081319
353.551276	2429.427820
353.941175	2431.136772
354.331010	2431.013263
354.720782	2430.005033
355.110490	2431.996288
355.500135	2431.993768
355.889717	2433.148192
356.279235	2429.155598
356.668689	2433.233892
357.058080	2430.983016
357.447408	2431.527461
357.836672	2431.928233
358.225873	2434.020312
358.615010	2433.493511
359.004084	2435.464602
359.393095	2434.789087
359.782043	2435.830086
360.170927	2435.832606
360.559748	2434.544592
360.948505	2438.275045
361.337199	2438.383430
361.725830	2438.143975
362.114398	2438.680858
362.502903	2438.093564
362.891344	2441.448452
363.279722	2437.521393
363.668037	2440.309151
364.056289	2438.615323
364.444478	2440.803184
364.832603	2440.641867
365.220665	2440.961980
365.608665	2444.573967
365.996601	2441.176229
366.384474	2442.580191
366.772284	2439.754624
367.160031	2441.173709
367.547715	2444.468103
367.935336	2442.255036
368.322893	2440.299069
368.710388	2440.730087
369.097820	2441.937444
369.485189	2440.019285
369.872495	2440.462906
370.259738	2445.554472
370.646918	2448.233845
371.034035	2442.426436
371.421090	2446.630758
371.808081	2446.320727
372.195010	2445.582198
372.581875	2445.927517
372.968678	2449.118567
373.355418	2448.528752
373.742096	2445.204111
374.128710	2449.274843
374.515262	2448.039760
374.901751	2448.861468
375.288177	2445.791406
375.674540	2447.270984
376.060841	2448.833742
376.447079	2449.194185
376.833254	2447.754935
377.219367	2451.298866
377.605417	2450.464555
377.991404	2449.942796
378.377329	2451.598815
378.763191	2449.438681
379.148991	2450.341047
379.534727	2451.717282
379.920402	2451.102261
380.306013	2450.073866
380.691563	2452.239042
381.077049	2452.775924
381.462474	2451.593774
381.847835	2450.325924
382.233134	2451.661829
382.618371	2452.773404
383.003545	2454.381532
383.388657	2453.486727
383.773706	2454.008487
384.158693	2455.190637
384.543618	2452.947324
384.928480	2453.206943
385.313280	2451.170317
385.698017	2449.829370
386.082692	2455.823302
386.467305	2455.868672
386.851856	2456.360185
387.236344	2455.256172
387.620770	2451.644185
388.005133	2451.208126
388.389435	2452.062601
388.773674	2450.449432
389.157851	2454.142077
389.541965	2456.836574
389.926018	2454.469752
390.310008	2456.919753
390.693936	2455.097376
391.077802	2458.323714
391.461606	2456.985288
391.845348	2458.318673
392.229027	2456.080401
392.612645	2458.144753
392.996200	2456.483693
393.379694	2459.029476
393.763125	2460.801441
394.146494	2458.860597
394.529801	2456.544187
394.913047	2458.535443
395.296230	2457.408745
395.679351	2457.106276
396.062410	2460.269600
396.445408	2458.278344
396.828343	2458.749692
397.211217	2459.533591
397.594028	2459.538632
397.976778	2461.766822
398.359466	2460.085598
398.742092	2460.849332
399.124656	2459.286575
399.507158	2458.734568
399.889598	2463.107769
400.271977	2458.399332
400.654294	2461.731534
401.036549	2461.061061
401.418742	2459.931842
401.800874	2460.027624
402.182944	2459.095011
402.564952	2459.778087
402.946898	2462.522995
403.328783	2460.166256
403.710606	2466.102215
404.092367	2461.920577
404.474067	2460.572069
404.855705	2463.170784
405.237282	2460.682974
405.618797	2463.087605
406.000250	2464.161370
406.381642	2462.364199
406.762972	2461.119034
407.144240	2460.960238
407.525447	2464.998202
407.906593	2462.034003
408.287677	2465.502317
408.668700	2465.199848
409.049661	2464.652883
409.430560	2467.634725
409.811399	2467.004581
410.192176	2464.559622
410.572891	2464.252111
410.953545	2466.961731
411.334138	2466.818058
411.714669	2465.257821
412.095139	2465.893007
412.475547	2466.170270
412.855894	2466.997019
413.236180	2466.709674
413.616405	2467.238995
413.996568	2467.533902
414.376670	2468.539613
414.756711	2464.819241
415.136691	2467.536423
415.516609	2467.443162
415.896466	2468.524489
416.276262	2466.008953
416.655997	2467.513738
417.035670	2465.688840
417.415283	2467.007102
417.794834	2469.026084
418.174324	2467.937195
418.553753	2466.008953
418.933121	2470.407360
419.312428	2468.101032
419.691674	2467.155816
420.070859	2470.077164
420.449983	2470.493060
420.829045	2468.010291
421.208047	2467.307050
421.586988	2470.120014
421.965867	2471.385344
422.344686	2468.191773
422.723444	2470.961887
423.102141	2466.934005
423.480777	2468.433748
423.859352	2468.403501
424.237866	2469.212607
424.616319	2471.103039
424.994712	2472.015488
425.373044	2470.929119
425.751314	2466.656742
426.129524	2466.833182
426.507673	2467.876701
426.885762	2467.039869
427.263789	2471.813842
427.641756	2468.539612
428.019662	2474.488174
428.397508	2471.347535
428.775292	2470.888790
429.153016	2472.522124
429.530679	2472.965746
429.908282	2471.576908
430.285824	2472.481795
430.663305	2470.626650
431.040726	2471.536578
431.418086	2474.057155
431.795385	2472.247381
432.172624	2473.182515
432.549802	2472.232258
432.926920	2476.066055
433.303977	2473.837865
433.680974	2476.439101
434.057910	2471.939871
434.434786	2473.033801
434.811601	2472.779223
435.188355	2472.973307
435.565050	2472.393575
435.941683	2472.133955
436.318257	2473.621096
436.694770	2472.184367
437.071222	2475.045222
437.447614	2474.173102
437.823946	2472.610344
438.200218	2476.892804
438.576429	2474.203349
438.952580	2476.446662
439.328670	2473.900880
439.704700	2474.780561
440.080670	2472.355766
440.456580	2475.143524
440.832429	2474.626806
441.208218	2473.268215
441.583947	2474.697382
441.959616	2473.878194
442.335224	2475.481281
442.710773	2475.753504
443.086261	2474.752835
443.461689	2473.195118
443.837057	2475.095633
444.212365	2475.211580
444.587612	2471.256794
444.962800	2471.327371
445.337927	2473.701754
445.712995	2473.484984
446.088002	2476.373566
446.462949	2476.050932
446.837837	2471.299644
447.212664	2477.263329
447.587431	2474.876343
447.962139	2476.681076
448.336786	2480.512353
448.711374	2475.819039
449.085901	2476.887763
449.460369	2478.261478
449.834776	2477.230562
450.209124	2476.328195
450.583412	2475.947588
450.957640	2480.129225
451.331808	2476.897846
451.705917	2477.648978
452.079965	2475.743421
452.453954	2476.260140
452.827883	2478.143011
453.201752	2477.512866
453.575562	2479.337764
453.949311	2478.483288
454.323001	2478.780717
454.696632	2477.071765
455.070202	2479.458752
455.443713	2478.117805
455.817164	2480.645943
456.190556	2477.548154
456.563888	2476.509677
456.937160	2480.227528
457.310373	2479.163844
457.683526	2477.790130
458.056619	2477.711992
458.429653	2478.891622
458.802628	2480.736684
459.175542	2478.392548
459.548398	2480.237610
459.921194	2479.725933
460.293930	2479.541931
460.666607	2477.250726
461.039224	2481.250882
461.411782	2482.324648
461.784280	2478.566468
462.156719	2481.021509
462.529099	2482.412868
462.901419	2479.766262
463.273680	2477.033957
463.645882	2474.906590
464.018024	2479.259626
464.390106	2476.194605
464.762130	2479.819194
465.134094	2479.814153
465.505999	2484.434371
465.877845	2478.679893
466.249631	2481.649133
466.621358	2478.463124
466.993026	2479.897332
467.364634	2483.337920
467.736184	2482.385142
468.107674	2483.022847
468.479105	2480.706437
468.850477	2478.415233
469.221790	2479.297435
469.593043	2480.393886
469.964238	2482.254072
470.335373	2478.042187
470.706449	2478.203504
471.077467	2480.313227
471.448425	2478.135449
471.819324	2479.849441
472.190164	2482.034781
472.560945	2480.154431
472.931667	2483.284988
473.302330	2479.799030
473.672934	2480.829946
474.043479	2482.188537
474.413965	2482.712817
474.784393	2481.938999
475.154761	2485.482931
475.525070	2481.386993
475.895321	2481.634010
476.265513	2482.783393
476.635645	2481.039153
477.005719	2482.629638
477.375734	2482.430512
477.745691	2482.364977
478.115588	2482.528814
478.485427	2481.210553
478.855207	2481.016468
479.224928	2482.712817
479.594591	2483.229535
479.964194	2482.599391
480.333739	2484.777169
480.703226	2483.073259
481.072653	2482.251551
481.442022	2485.719865
481.811333	2480.136787
482.180584	2480.159472
482.549777	2480.635861
482.918912	2478.044708
483.287988	2481.883547
483.657005	2482.380100
484.025964	2481.419761
484.394864	2480.305666
484.763706	2483.539566
485.132489	2483.007724
485.501213	2483.877323
485.869879	2483.731130
486.238487	2482.198619
486.607036	2482.843887
486.975527	2485.276243
487.343959	2482.291880
487.712333	2483.970584
488.080648	2483.423619
488.448905	2482.417909
488.817104	2482.349853
489.185244	2481.013948
489.553326	2480.272898
489.921350	2487.131388
490.289315	2482.611993
490.657222	2483.395893
491.025070	2482.899339
491.392861	2485.510657
491.760593	2481.840697
492.128267	2483.668115
492.495883	2483.479072
492.863440	2483.710965
493.230939	2482.672487
493.598380	2486.849083
493.965763	2482.964874
494.333088	2483.108547
494.700354	2484.094093
495.067563	2485.245996
495.434713	2484.096613
495.801805	2487.529639
496.168839	2483.491675
496.535815	2483.806747
496.902733	2483.476551
497.269593	2484.739360
497.636395	2483.002683
498.003139	2483.436222
498.369825	2484.709113
498.736453	2486.465956
499.103023	2485.407313
499.469535	2487.133908
499.835989	2482.458238
500.202385	2482.997642
500.568723	2481.603763
500.935003	2483.297590
501.301226	2479.262147
501.667390	2487.166676
502.033497	2486.317242
502.399546	2484.600729
502.765537	2484.832622
503.131470	2483.763897
503.497345	2485.273723
503.863163	2484.111737
504.228923	2484.935965
504.594625	2483.481593
504.960269	2484.351192
505.325856	2483.693321
505.691385	2485.170379
506.056856	2483.665595
506.422270	2485.026706
506.787625	2486.922180
507.152924	2485.671974
507.518164	2486.009731
507.883347	2484.840183
508.248472	2485.561068
508.613540	2486.796151
508.978550	2485.961840
509.343503	2486.276912
509.708398	2487.575009
510.073236	2488.253045
510.438016	2485.934114
510.802738	2484.915801
511.167403	2485.845894
511.532010	2487.065853
511.896561	2483.539566
512.261053	2487.398569
512.625488	2485.855976
512.989866	2484.000831
513.354186	2485.558548
513.718449	2486.276912
514.082655	2486.534011
514.446803	2485.266161
514.810894	2487.675833
515.174927	2486.024855
515.538904	2488.812613
515.902822	2487.209526
516.266684	2488.031234
516.630488	2486.735657
516.994235	2487.368322
517.357925	2486.614670
517.721558	2488.416882
518.085133	2485.417396
518.448651	2486.609628
518.812112	2481.031592
519.175516	2485.079638
519.538863	2482.286839
519.902152	2487.002838
520.265385	2487.103662
520.628560	2486.357571
520.991678	2488.800010
521.354739	2487.718682
521.717743	2487.489310
522.080690	2485.845894
522.443580	2486.513847
522.806413	2487.554845
523.169189	2486.770945
523.531908	2484.192395
523.894569	2486.183651
524.257174	2486.478558
524.619722	2486.569299
524.982213	2487.383446
525.344647	2488.036275
525.707025	2486.990236
526.069345	2487.910246
526.431608	2486.720534
526.793815	2489.619197
527.155964	2487.149032
527.518057	2486.254227
527.880093	2489.959475
528.242072	2487.837149
528.603995	2486.617190
528.965860	2487.771614
529.327669	2486.856645
529.689421	2485.966881
530.051117	2488.898312
530.412755	2486.438229
530.774337	2486.811275
531.135862	2490.201451
531.497331	2487.862355
531.858743	2483.695842
532.220098	2488.011069
532.581396	2487.282623
532.942638	2488.560555
533.303824	2488.555514
533.664953	2489.717500
534.026025	2484.696511
534.387040	2487.138950
534.747999	2486.123157
535.108902	2485.616521
535.469748	2487.222129
535.830537	2486.803713
536.191270	2489.173055
536.551947	2486.014772
536.912567	2481.850779
537.273131	2487.595174
537.633638	2482.904380
537.994089	2490.035093
538.354483	2486.745740
538.714821	2489.561224
539.075103	2487.625421
539.435328	2485.361943
539.795497	2486.937303
540.155609	2487.640544
540.515665	2488.353868
540.875665	2486.413023
541.235609	2489.044506
541.595496	2485.707262
541.955328	2488.628611
542.315102	2488.585761
542.674821	2486.004690
543.034483	2488.437047
543.394090	2486.566779
543.753640	2485.903867
544.113134	2485.644247
544.472571	2488.260606
544.831953	2486.294556
545.191278	2487.658188
545.550548	2485.097282
545.909761	2488.769763
546.268918	2487.131388
546.628019	2487.585092
546.987064	2486.564258
547.346053	2486.143322
547.704986	2489.233549
548.063863	2488.978971
548.422684	2486.294556
548.781449	2488.121975
549.140158	2486.102993
549.498811	2490.254383
549.857408	2489.767911
550.215949	2487.577530
550.574434	2485.641727
550.932864	2488.797489
551.291237	2486.521408
551.649555	2487.370843
552.007817	2490.773622
552.366022	2486.740698
552.724173	2490.156080
553.082267	2487.600215
553.440305	2487.358240
553.798288	2489.105000
554.156215	2485.130050
554.514086	2487.116264
554.871902	2484.373877
555.229661	2488.847901
555.587365	2481.588639
555.945014	2488.303456
556.302606	2486.881851
556.660143	2487.620380
557.017625	2485.674494
557.375050	2486.657519
557.732421	2485.593836
558.089735	2488.608446
558.446994	2490.304794
558.804197	2490.085504
559.161345	2490.403097
559.518437	2489.452839
559.875474	2486.856645
560.232455	2488.053919
560.589381	2489.021821
560.946251	2489.838487
561.303065	2488.220277
561.659825	2487.721203
562.016528	2489.180617
562.373177	2489.588950
562.729770	2487.020482
563.086307	2487.902684
563.442789	2488.502582
563.799216	2490.201451
564.155587	2485.470328
564.511904	2487.373363
564.868164	2489.440236
565.224370	2488.668940
565.580520	2486.967550
565.936615	2489.054588
566.292654	2489.505771
566.648638	2487.194402
567.004567	2487.451501
567.360441	2489.392345
567.716260	2489.107520
568.072023	2489.261275
568.427732	2486.612149
568.783385	2490.514002
569.138982	2487.587612
569.494525	2490.128354
569.850013	2488.784886
570.205445	2489.888899
570.560823	2488.036275
570.916145	2487.867396
571.271412	2491.123982
571.626625	2489.352016
571.981782	2490.004846
572.336884	2487.441419
572.691931	2485.036788
573.046923	2486.818836
573.401860	2483.970584
573.756743	2487.479227
574.111570	2489.841008
574.466342	2485.571151
574.821059	2489.372181
575.175722	2487.872438
575.530330	2488.512664
575.884882	2489.573827
576.239380	2487.217088
576.593823	2489.790597
576.948211	2489.155411
577.302544	2488.179948
577.656823	2489.180617
578.011047	2488.084166
578.365216	2489.029382
578.719330	2486.997797
579.073389	2488.616008
579.427394	2487.143991
579.781344	2488.177427
580.135239	2490.256903
580.489080	2490.274547
580.842866	2488.842860
581.196597	2492.006184
581.550273	2488.255565
581.903895	2487.852273
582.257463	2488.114413
582.610975	2487.403610
582.964434	2489.515854
583.317837	2487.408651
583.671186	2489.916625
584.024481	2488.550473
584.377721	2490.508961
584.730906	2488.278250
585.084037	2487.567448
585.437113	2491.091214
585.790135	2487.988384
586.143103	2490.312356
586.496016	2488.172386
586.848874	2489.636841
587.201679	2490.077942
587.554428	2488.978971
587.907124	2487.741367
588.259765	2490.632469
588.612352	2490.118272
588.964884	2488.424444
589.317362	2489.657006
589.669786	2489.329331
590.022155	2486.871768
590.374470	2484.653661
590.726731	2488.172386
591.078937	2484.915801
591.431090	2490.866883
591.783188	2488.179948
592.135232	2490.763539
592.487222	2491.030720
592.839157	2492.351503
593.191038	2490.201451
593.542866	2489.001656
593.894639	2487.559886
594.246358	2491.534836
594.598022	2490.138436
594.949633	2489.606594
595.301190	2485.182982
595.652692	2491.393683
596.004141	2488.424444
596.355535	2491.035762
596.706876	2488.870586
597.058162	2489.606594
597.409395	2488.714310
597.760573	2490.450988
598.111698	2488.210195
598.462768	2490.367809
598.813785	2491.731441
599.164748	2490.690442
599.515657	2490.599702
599.866511	2490.788745
600.217312	2489.909064
600.568060	2490.816471
600.918753	2492.374188
601.269392	2491.537356
601.619978	2488.179948
601.970510	2492.026348
602.320988	2488.104331
602.671412	2490.546770
603.021783	2493.173211
603.372100	2490.203971
603.722363	2492.328817
604.072572	2490.017448
604.422728	2490.514002
604.772830	2490.957624
605.122878	2491.859990
605.472872	2489.384784
605.822813	2490.153560
606.172701	2490.168683
606.522534	2491.691112
606.872314	2493.899137
607.222041	2491.837305
607.571714	2487.854793
607.921333	2486.881851
608.270899	2488.495020
608.620411	2485.427478
608.969870	2489.946872
609.319276	2491.786893
609.668627	2493.495845
610.017926	2490.052737
610.367171	2487.897643
610.716362	2489.253714
611.065500	2492.651451
611.414585	2490.241780
611.763616	2495.008191
612.112594	2490.090545
612.461518	2494.625063
612.810389	2491.189517
613.159207	2491.907881
613.507971	2490.393014
613.856682	2491.940649
614.205340	2492.132213
614.553945	2491.595330
614.902496	2491.393683
615.250994	2491.050885
615.599439	2491.575165
615.947830	2491.328148
616.296169	2490.705566
616.644454	2491.267655
616.992686	2490.667757
617.340864	2493.649600
617.688990	2494.015083
618.037063	2491.623056
618.385082	2492.737151
618.733048	2496.003819
619.080961	2492.351503
619.428821	2491.476863
619.776628	2494.156236
620.124382	2493.906699
620.472083	2493.079949
620.819731	2492.308653
621.167326	2492.464929
621.514868	2489.649444
621.862357	2491.799496
622.209793	2493.977275
622.557176	2492.767398
622.904506	2494.914929
623.251783	2494.821668
623.599007	2493.949548
623.946179	2490.448467
624.293297	2494.483911
624.640363	2494.730927
624.987376	2489.997284
625.334336	2489.054588
625.681243	2489.596512
626.028097	2487.396048
626.374899	2493.861328
626.721647	2493.427789
627.068343	2492.215392
627.414987	2493.382419
627.761577	2493.735299
628.108115	2492.689260
628.454600	2491.759167
628.801032	2496.656648
629.147412	2493.901657
629.493739	2494.478870
629.840014	2497.619508
630.186236	2491.491986
630.532405	2493.682367
630.878521	2494.037769
631.224585	2493.906699
631.570597	2495.925681
631.916556	2493.763026
632.262462	2493.516009
632.608316	2495.066164
632.954117	2495.814775
633.299866	2494.249497
633.645562	2494.005001
633.991206	2496.669251
634.336797	2494.640187
634.682336	2497.155722
635.027823	2497.710249
635.373257	2494.988026
635.718639	2495.214878
636.063968	2495.164467
636.409245	2494.037769
636.754470	2495.111534
637.099642	2494.990547
637.444762	2494.302429
637.789829	2494.710763
638.134845	2499.651093
638.479808	2495.519868
638.824719	2496.066833
639.169577	2496.001298
639.514383	2495.595485
639.859137	2495.439209
640.203839	2496.714621
640.548489	2491.585247
640.893086	2496.059271
641.237632	2496.271000
641.582125	2499.668738
641.926566	2494.567090
642.270955	2495.603047
642.615292	2492.903509
642.959576	2495.966010
643.303809	2491.968375
643.647990	2494.030207
643.992118	2496.724704
644.336195	2498.756289
