Dividing Wavelength (nm)	Counts (n)	Blue Motor Position (mm): 10.400000	Red Motor Position (mm): 0.000000	
326.493990	2061.000133
326.888308	2061.000133
327.282561	2061.000133
327.676750	2036.449713
328.070874	2039.638243
328.464933	2045.412885
328.858929	2054.015614
329.252859	2061.267314
329.646726	2075.067473
330.040528	2093.487849
330.434265	2110.942844
330.827938	2133.600310
331.221547	2152.287867
331.615091	2171.908038
332.008571	2194.787315
332.401986	2214.445294
332.795338	2232.855588
333.188625	2251.154976
333.581847	2272.474016
333.975006	2291.033024
334.368100	2305.168419
334.761129	2325.111224
335.154095	2338.813080
335.546996	2375.091744
335.939833	2436.566094
336.332606	2445.675459
336.725315	2457.587706
337.117960	2468.211938
337.510540	2477.870788
337.903056	2485.845894
338.295508	2492.500217
338.687896	2500.135044
339.080220	2503.805004
339.472480	2510.721467
339.864676	2510.580315
340.256807	2514.807322
340.648875	2516.607014
341.040879	2521.030627
341.432818	2518.787313
341.824694	2521.592716
342.216506	2522.280833
342.608253	2519.803106
342.999937	2517.816891
343.391557	2518.799916
343.783113	2514.477127
344.174605	2515.825636
344.566033	2515.026613
344.957397	2511.699451
345.348697	2510.739111
345.739934	2509.579646
346.131106	2507.593431
346.522215	2503.898266
346.913260	2504.157885
347.304241	2503.021105
347.695159	2499.396515
348.086012	2495.045999
348.476802	2496.500372
348.867528	2495.383757
349.258191	2490.100628
349.648789	2492.154898
350.039324	2486.329844
350.429796	2490.577017
350.820203	2490.803868
351.210548	2491.028200
351.600828	2487.562407
351.991045	2485.704741
352.381198	2487.721203
352.771288	2489.553662
353.161314	2486.148363
353.551276	2485.883702
353.941175	2486.352530
354.331010	2487.998466
354.720782	2489.667088
355.110490	2492.795124
355.500135	2487.635503
355.889717	2487.496872
356.279235	2489.639362
356.668689	2486.874289
357.058080	2489.258755
357.447408	2490.995432
357.836672	2489.704897
358.225873	2491.242449
358.615010	2493.939466
359.004084	2489.717500
359.393095	2492.648931
359.782043	2491.701194
360.170927	2492.699342
360.559748	2491.416369
360.948505	2493.843684
361.337199	2495.350989
361.725830	2493.460557
362.114398	2494.073057
362.502903	2493.455515
362.891344	2494.620022
363.279722	2493.987357
363.668037	2497.226298
364.056289	2495.718993
364.444478	2497.637153
364.832603	2496.409632
365.220665	2494.544405
365.608665	2497.304436
365.996601	2497.438027
366.384474	2497.425424
366.772284	2498.605054
367.160031	2498.400887
367.547715	2501.145796
367.935336	2498.053048
368.322893	2500.014057
368.710388	2496.099601
369.097820	2499.199910
369.485189	2493.642038
369.872495	2503.351300
370.259738	2502.723677
370.646918	2501.281907
371.034035	2504.596465
371.421090	2503.189983
371.808081	2503.734428
372.195010	2504.369613
372.581875	2502.761485
372.968678	2502.403563
373.355418	2502.196876
373.742096	2503.608399
374.128710	2502.690909
374.515262	2505.317350
374.901751	2504.644356
375.288177	2506.466733
375.674540	2503.764675
376.060841	2506.023112
376.447079	2505.022443
376.833254	2503.925992
377.219367	2503.003461
377.605417	2506.378513
377.991404	2503.961280
378.377329	2506.136538
378.763191	2508.790705
379.148991	2509.700634
379.534727	2507.132166
379.920402	2505.914727
380.306013	2506.716271
380.691563	2509.294821
381.077049	2507.691734
381.462474	2506.537310
381.847835	2507.338853
382.233134	2507.656446
382.618371	2507.711898
383.003545	2509.980418
383.388657	2507.442197
383.773706	2510.040912
384.158693	2509.229286
384.543618	2509.105777
384.928480	2509.877074
385.313280	2510.897908
385.698017	2510.837414
386.082692	2508.447907
386.467305	2508.568895
386.851856	2511.540655
387.236344	2512.629544
387.620770	2509.186436
388.005133	2509.584687
388.389435	2508.440345
388.773674	2506.219717
389.157851	2514.204905
389.541965	2509.020078
389.926018	2512.115346
390.310008	2512.445542
390.693936	2511.407064
391.077802	2512.884122
391.461606	2509.733401
391.845348	2513.688186
392.229027	2513.373114
392.612645	2512.768176
392.996200	2514.809843
393.379694	2514.459483
393.763125	2512.495953
394.146494	2509.942609
394.529801	2514.116684
394.913047	2511.573422
395.296230	2513.002589
395.679351	2513.708351
396.062410	2514.988804
396.445408	2515.263547
396.828343	2516.942251
397.211217	2517.423681
397.594028	2514.625841
397.976778	2516.261695
398.359466	2518.890657
398.742092	2515.374452
399.124656	2519.087262
399.507158	2516.153311
399.889598	2518.580626
400.271977	2514.580471
400.654294	2518.293280
401.036549	2515.606345
401.418742	2519.031809
401.800874	2513.531911
402.182944	2518.278157
402.564952	2517.700945
402.946898	2518.041223
403.328783	2517.905112
403.710606	2519.785462
404.092367	2524.418282
404.474067	2518.245389
404.855705	2520.408044
405.237282	2518.840246
405.618797	2517.683301
406.000250	2523.402490
406.381642	2518.832684
406.762972	2518.812519
407.144240	2514.908146
407.525447	2518.053826
407.906593	2513.584843
408.287677	2520.138343
408.668700	2520.849145
409.049661	2520.564320
409.430560	2520.874351
409.811399	2523.268899
410.192176	2523.296626
410.572891	2522.472397
410.953545	2523.077335
411.334138	2520.145904
411.714669	2519.936697
412.095139	2521.633045
412.475547	2522.946265
412.855894	2523.311749
413.236180	2520.786131
413.616405	2523.069774
413.996568	2522.157325
414.376670	2521.040709
414.756711	2524.007428
415.136691	2522.689167
415.516609	2521.963240
415.896466	2524.647655
416.276262	2522.699249
416.655997	2525.015659
417.035670	2520.846625
417.415283	2524.995494
417.794834	2522.548014
418.174324	2524.725793
418.553753	2523.566327
418.933121	2525.003056
419.312428	2522.447191
419.691674	2526.540608
420.070859	2523.662109
420.449983	2525.277799
420.829045	2525.323169
421.208047	2523.311749
421.586988	2524.957686
421.965867	2524.914836
422.344686	2524.952645
422.723444	2526.825433
423.102141	2526.056657
423.480777	2521.940555
423.859352	2522.628673
424.237866	2523.737727
424.616319	2523.914167
424.994712	2523.825947
425.373044	2526.359127
425.751314	2524.950124
426.129524	2519.863600
426.507673	2521.703621
426.885762	2519.782941
427.263789	2525.245032
427.641756	2525.295443
428.019662	2525.058509
428.397508	2523.944414
428.775292	2524.385515
429.153016	2527.168232
429.530679	2524.592202
429.908282	2526.744775
430.285824	2525.446678
430.663305	2525.207223
431.040726	2525.660927
431.418086	2525.827285
431.795385	2523.694877
432.172624	2525.297964
432.549802	2527.301822
432.926920	2524.395597
433.303977	2525.786956
433.680974	2523.868797
434.057910	2527.586648
434.434786	2527.710156
434.811601	2525.660927
435.188355	2526.923736
435.565050	2527.778211
435.941683	2526.356606
436.318257	2524.864424
436.694770	2526.893489
437.071222	2525.050947
437.447614	2526.452388
437.823946	2527.122861
438.200218	2527.579086
438.576429	2526.553211
438.952580	2525.209743
439.328670	2527.417769
439.704700	2526.805269
440.080670	2527.397604
440.456580	2524.070443
440.832429	2526.976668
441.208218	2525.199661
441.583947	2526.510361
441.959616	2527.695032
442.335224	2526.616225
442.710773	2527.712676
443.086261	2525.212264
443.461689	2525.101359
443.837057	2528.105886
444.212365	2527.558921
444.587612	2522.973992
444.962800	2521.587674
445.337927	2525.013138
445.712995	2521.010462
446.088002	2526.593540
446.462949	2522.979033
446.837837	2526.132275
447.212664	2525.802079
447.587431	2527.432892
447.962139	2526.742254
448.336786	2526.535567
448.711374	2527.175793
449.085901	2528.758716
449.460369	2526.293592
449.834776	2526.096987
450.209124	2524.733354
450.583412	2526.591020
450.957640	2525.061029
451.331808	2526.487676
451.705917	2527.576565
452.079965	2527.468180
452.453954	2524.793848
452.827883	2526.016328
453.201752	2528.617563
453.575562	2525.809641
453.949311	2526.855680
454.323001	2527.810979
454.696632	2527.889117
455.070202	2524.382994
455.443713	2525.315608
455.817164	2528.040351
456.190556	2529.535053
456.563888	2530.107224
456.937160	2528.637728
457.310373	2529.328366
457.683526	2527.271575
458.056619	2526.722090
458.429653	2529.315763
458.802628	2528.123530
459.175542	2529.537574
459.548398	2526.268386
459.921194	2529.729138
460.293930	2527.183355
460.666607	2529.035979
461.039224	2528.161339
461.411782	2528.632687
461.784280	2528.554549
462.156719	2528.947759
462.529099	2529.343490
462.901419	2527.329549
463.273680	2527.657224
463.645882	2525.401307
464.018024	2530.150074
464.390106	2524.710669
464.762130	2531.559077
465.134094	2525.615556
465.505999	2529.217461
465.877845	2529.421627
466.249631	2529.782070
466.621358	2529.648479
466.993026	2531.496062
467.364634	2533.232740
467.736184	2530.591175
468.107674	2529.714014
468.479105	2529.469518
468.850477	2529.393901
469.221790	2529.610671
469.593043	2531.780887
469.964238	2530.525640
470.335373	2527.705115
470.706449	2529.434230
471.077467	2530.981865
471.448425	2531.314581
471.819324	2529.792152
472.190164	2532.164015
472.560945	2530.560928
472.931667	2530.571011
473.302330	2531.720394
473.672934	2532.413552
474.043479	2531.445651
474.413965	2533.580579
474.784393	2530.092101
475.154761	2533.323481
475.525070	2530.686957
475.895321	2530.245856
476.265513	2529.416586
476.635645	2533.096629
477.005719	2530.334076
477.375734	2531.680064
477.745691	2532.471526
478.115588	2531.937163
478.485427	2532.796680
478.855207	2533.842719
479.224928	2536.010416
479.594591	2532.993285
479.964194	2533.996475
480.333739	2532.158974
480.703226	2533.610826
481.072653	2533.953625
481.442022	2535.907072
481.811333	2533.177287
482.180584	2529.189734
482.549777	2531.843902
482.918912	2528.761236
483.287988	2535.486136
483.657005	2536.905220
484.025964	2532.799201
484.394864	2534.208203
484.763706	2534.621578
485.132489	2533.026052
485.501213	2534.440096
485.869879	2535.922195
486.238487	2533.971269
486.607036	2532.108562
486.975527	2534.006557
487.343959	2531.894313
487.712333	2532.710980
488.080648	2533.489839
488.448905	2533.487318
488.817104	2537.089222
489.185244	2535.571835
489.553326	2534.326670
489.921350	2536.880015
490.289315	2534.949253
490.657222	2535.639891
491.025070	2537.071578
491.392861	2538.180632
491.760593	2537.540406
492.128267	2536.743903
492.495883	2538.919161
492.863440	2534.218285
493.230939	2536.249870
493.598380	2535.281969
493.965763	2537.142155
494.333088	2535.213913
494.700354	2534.825744
495.067563	2539.093081
495.434713	2535.962525
495.801805	2532.894983
496.168839	2533.590662
496.535815	2538.301620
496.902733	2534.649304
497.269593	2536.960673
497.636395	2537.250539
498.003139	2535.929757
498.369825	2535.168543
498.736453	2535.859181
499.103023	2535.387833
499.469535	2538.664583
499.835989	2537.242978
500.202385	2530.770136
500.568723	2531.548994
500.935003	2532.973120
501.301226	2530.598737
501.667390	2539.841693
502.033497	2536.043183
502.399546	2536.020498
502.765537	2535.294572
503.131470	2534.596372
503.497345	2536.267514
503.863163	2535.115611
504.228923	2535.874304
504.594625	2536.532175
504.960269	2534.440096
505.325856	2536.600231
505.691385	2536.786753
506.056856	2534.697195
506.422270	2537.643749
506.787625	2535.796167
507.152924	2534.825744
507.518164	2535.299613
507.883347	2533.555374
508.248472	2537.585776
508.613540	2535.939839
508.978550	2536.154088
509.343503	2536.985879
509.708398	2537.948739
510.073236	2539.566950
510.438016	2540.930582
510.802738	2539.214069
511.167403	2539.400592
511.532010	2540.726415
511.896561	2541.056611
512.261053	2537.537885
512.625488	2541.732125
512.989866	2539.224151
513.354186	2539.939995
513.718449	2538.062165
514.082655	2540.403781
514.446803	2542.884029
514.810894	2541.802701
515.174927	2544.650953
515.538904	2545.112219
515.902822	2543.506611
516.266684	2546.939637
516.630488	2544.149358
516.994235	2545.487785
517.357925	2545.560882
517.721558	2551.653116
518.085133	2548.756973
518.448651	2547.534493
518.812112	2545.354194
519.175516	2548.197405
519.538863	2544.459389
519.902152	2551.844680
520.265385	2554.582026
520.628560	2551.708569
520.991678	2554.662685
521.354739	2556.502706
521.717743	2558.002449
522.080690	2556.480021
522.443580	2559.792059
522.806413	2561.087635
523.169189	2561.705177
523.531908	2560.754919
523.894569	2562.579817
524.257174	2565.508727
524.619722	2563.300702
524.982213	2564.626525
525.344647	2564.508058
525.707025	2566.297668
526.069345	2570.113821
526.431608	2570.572566
526.793815	2570.794377
527.155964	2571.366548
527.518057	2572.253791
527.880093	2574.358473
528.242072	2575.467527
528.603995	2575.031467
528.965860	2573.856878
529.327669	2577.920048
529.689421	2576.198494
530.051117	2579.747466
530.412755	2579.833166
530.774337	2580.576736
531.135862	2583.230904
531.497331	2581.907601
531.858743	2581.897518
532.220098	2584.279464
532.581396	2586.434557
532.942638	2586.716862
533.303824	2590.187696
533.664953	2588.680391
534.026025	2589.234918
534.387040	2592.478900
534.747999	2592.776328
535.108902	2597.572986
535.469748	2597.401587
535.830537	2599.052565
536.191270	2597.048706
536.551947	2597.746906
536.912567	2600.204469
537.273131	2599.574324
537.633638	2596.287492
537.994089	2605.301075
538.354483	2601.368975
538.714821	2606.485746
539.075103	2608.499687
539.435328	2609.651591
539.795497	2609.235696
540.155609	2612.053701
540.515665	2614.886829
540.875665	2615.884978
541.235609	2616.313476
541.595496	2614.521346
541.955328	2618.221552
542.315102	2620.515277
542.674821	2620.313631
543.034483	2620.406893
543.394090	2621.831019
543.753640	2621.430247
544.113134	2626.920063
544.472571	2625.909312
544.831953	2628.621453
545.191278	2628.215640
545.550548	2627.925774
545.909761	2627.267903
546.268918	2630.993316
546.628019	2631.971300
546.987064	2632.321660
547.346053	2633.034983
547.704986	2633.249232
548.063863	2635.253091
548.422684	2633.193779
548.781449	2633.493728
549.140158	2635.742083
549.498811	2634.696043
549.857408	2636.127731
550.215949	2639.419604
550.574434	2637.899697
550.932864	2639.646456
551.291237	2639.527989
551.649555	2641.184008
552.007817	2640.354738
552.366022	2641.131076
552.724173	2641.839358
553.082267	2642.855151
553.440305	2643.908752
553.798288	2642.262815
554.156215	2644.811118
554.514086	2642.822383
554.871902	2638.265180
555.229661	2643.172743
555.587365	2642.293062
555.945014	2644.944709
556.302606	2644.859009
556.660143	2647.702220
557.017625	2648.350008
557.375050	2646.968732
557.732421	2649.905204
558.089735	2648.564257
558.446994	2651.140287
558.804197	2650.784886
559.161345	2650.802530
559.518437	2648.034936
559.875474	2647.097282
560.232455	2652.231697
560.589381	2652.599701
560.946251	2650.048877
561.303065	2654.071718
561.659825	2655.750422
562.016528	2652.866882
562.373177	2653.000473
562.729770	2653.073570
563.086307	2650.885709
563.442789	2651.404948
563.799216	2655.841163
564.155587	2654.260761
564.511904	2655.024496
564.868164	2653.262613
565.224370	2656.015083
565.580520	2656.516678
565.936615	2654.543066
566.292654	2654.028868
566.648638	2656.186482
567.004567	2656.723365
567.360441	2656.753612
567.716260	2655.309321
568.072023	2657.376194
568.427732	2654.921152
568.783385	2656.771256
569.138982	2655.538694
569.494525	2657.373674
569.850013	2658.144970
570.205445	2655.601708
570.560823	2658.996925
570.916145	2655.004332
571.271412	2657.598005
571.626625	2658.155053
571.981782	2657.996256
572.336884	2657.212357
572.691931	2652.919814
573.046923	2656.264620
573.401860	2653.068528
573.756743	2656.975423
574.111570	2658.548263
574.466342	2658.792759
574.821059	2659.402738
575.175722	2659.337203
575.530330	2660.922646
575.884882	2658.107162
576.239380	2659.987512
576.593823	2660.317708
576.948211	2662.356854
577.302544	2657.945845
577.656823	2658.964158
578.011047	2661.963644
578.365216	2661.678819
578.719330	2661.462050
579.073389	2661.361227
579.427394	2662.601350
579.781344	2664.907678
580.135239	2664.746361
580.489080	2665.376506
580.842866	2664.585044
581.196597	2668.096208
581.550273	2668.743996
581.903895	2666.155364
582.257463	2671.693071
582.610975	2669.343894
582.964434	2673.654080
583.317837	2671.798936
583.671186	2674.019564
584.024481	2679.000224
584.377721	2678.259174
584.730906	2679.494257
585.084037	2681.092303
585.437113	2683.081038
585.790135	2684.545493
586.143103	2682.723116
586.496016	2687.633200
586.848874	2689.311904
587.201679	2690.055474
587.554428	2691.449353
587.907124	2695.457071
588.259765	2699.016125
588.612352	2700.662062
588.964884	2700.654500
589.317362	2707.886035
589.669786	2711.901314
590.022155	2709.037939
590.374470	2713.159082
590.726731	2713.892570
591.078937	2714.983980
591.431090	2725.588047
591.783188	2724.050495
592.135232	2727.836402
592.487222	2731.156002
592.839157	2736.907958
593.191038	2738.942064
593.542866	2739.927609
593.894639	2741.911303
594.246358	2748.190060
594.598022	2752.386821
594.949633	2757.261617
595.301190	2760.772780
595.652692	2764.341917
596.004141	2772.284255
596.355535	2769.400715
596.706876	2771.021446
597.058162	2778.837755
597.409395	2784.151131
597.760573	2793.318470
598.111698	2793.832667
598.462768	2800.456743
598.813785	2807.789102
599.164748	2808.333546
599.515657	2820.258396
599.866511	2824.036741
600.217312	2833.584686
600.568060	2833.241887
600.918753	2847.223528
601.269392	2854.412213
601.619978	2857.777183
601.970510	2868.146837
602.320988	2874.594472
602.671412	2883.983622
603.021783	2895.134654
603.372100	2898.912999
603.722363	2908.786098
604.072572	2917.020823
604.422728	2927.413162
604.772830	2935.912547
605.122878	2944.850513
605.472872	2954.111113
605.822813	2967.699543
606.172701	2974.379072
606.522534	2989.537821
606.872314	3003.607682
607.222041	3013.773168
607.571714	3028.886548
607.921333	3032.697660
608.270899	3049.456976
608.620411	3066.158319
608.969870	3077.269022
609.319276	3093.640169
609.668627	3109.517283
610.017926	3129.092083
610.367171	3144.109681
610.716362	3162.666168
611.065500	3176.632685
611.414585	3197.190510
611.763616	3217.569374
612.112594	3233.287692
612.461518	3251.881988
612.810389	3276.717233
613.159207	3292.599388
613.507971	3313.794919
613.856682	3343.230216
614.205340	3359.029193
614.553945	3396.910943
614.902496	3403.260276
615.250994	3432.120882
615.599439	3458.118113
615.947830	3484.916886
616.296169	3509.608458
616.644454	3537.929660
616.992686	3567.445616
617.340864	3609.859364
617.688990	3627.866365
618.037063	3672.407480
618.385082	3700.579968
618.733048	3738.164291
619.080961	3768.940535
619.428821	3797.576810
619.776628	3825.663598
620.124382	3851.663349
620.472083	3880.256774
620.819731	3911.237185
621.167326	3922.060542
621.514868	3945.212041
621.862357	3953.613124
622.209793	3977.997185
622.557176	3985.868947
622.904506	3999.661544
623.251783	4013.864995
623.599007	4028.083569
623.946179	4047.693658
624.293297	4066.547573
624.640363	4072.566711
624.987376	4092.582612
625.334336	4111.633133
625.681243	4130.393787
626.028097	4152.408505
626.374899	4181.821118
626.721647	4212.201631
627.068343	4236.091659
627.414987	4259.245679
627.761577	4278.938946
628.108115	4328.410310
628.454600	4331.581195
628.801032	4374.680540
629.147412	4406.845622
629.493739	4438.337710
629.840014	4449.282055
630.186236	4509.044934
630.532405	4524.251575
630.878521	4579.570677
631.224585	4608.763998
631.570597	4629.488182
631.916556	4680.562632
632.262462	4712.783167
632.608316	4752.303292
632.954117	4782.010812
633.299866	4818.501204
633.645562	4848.962376
633.991206	4848.526317
634.336797	4854.711812
634.682336	4879.680647
635.027823	4895.124222
635.373257	4921.484416
635.718639	4928.791568
636.063968	4957.455569
636.409245	4943.456285
636.754470	4973.773784
637.099642	4990.026464
637.444762	4983.036904
637.789829	5032.311662
638.134845	5044.705339
638.479808	5070.296757
638.824719	5103.089462
639.169577	5103.248259
639.514383	5144.706708
639.859137	5156.429911
640.203839	5204.494793
640.548489	5220.724787
640.893086	5255.715436
641.237632	5275.985916
641.582125	5315.793387
641.926566	5342.851780
642.270955	5381.827461
642.615292	5413.697636
642.959576	5447.256597
643.303809	5484.024253
643.647990	5539.429054
643.992118	5577.731741
644.336195	5605.954641
