Dividing Wavelength (nm)	Counts (n)	Blue Motor Position (mm): 18.500000	Red Motor Position (mm): 0.000000	
326.493990	2101.780547
326.888308	2101.780547
327.282561	2101.780547
327.676750	2077.976218
328.070874	2081.978894
328.464933	2086.470563
328.858929	2096.636049
329.252859	2106.615013
329.646726	2122.368619
330.040528	2140.554582
330.434265	2160.588127
330.827938	2178.774089
331.221547	2198.532892
331.615091	2219.385625
332.008571	2239.053687
332.401986	2260.302150
332.795338	2281.603546
333.188625	2301.929478
333.581847	2320.876655
333.975006	2337.222596
334.368100	2354.380163
334.761129	2372.855992
335.154095	2388.818806
335.546996	2426.158632
335.939833	2488.681543
336.332606	2503.517658
336.725315	2513.763804
337.117960	2517.935358
337.510540	2528.347862
337.903056	2539.859337
338.295508	2543.539379
338.687896	2552.316028
339.080220	2560.853222
339.472480	2565.579303
339.864676	2566.053172
340.256807	2571.177505
340.648875	2573.461147
341.040879	2575.001220
341.432818	2571.885787
341.824694	2577.242013
342.216506	2574.981055
342.608253	2575.545665
342.999937	2570.244891
343.391557	2571.784964
343.783113	2571.542988
344.174605	2569.312278
344.566033	2564.913871
344.957397	2564.714746
345.348697	2562.418500
345.739934	2561.546380
346.131106	2561.281720
346.522215	2558.035217
346.913260	2559.212326
347.304241	2557.168138
347.695159	2553.931717
348.086012	2553.984650
348.476802	2549.568599
348.867528	2550.647406
349.258191	2548.073897
349.648789	2547.804195
350.039324	2546.662374
350.429796	2547.426108
350.820203	2546.170861
351.210548	2545.823022
351.600828	2545.434853
351.991045	2542.722712
352.381198	2543.534338
352.771288	2544.839997
353.161314	2541.018802
353.551276	2542.765562
353.941175	2539.972763
354.331010	2539.279604
354.720782	2547.577343
355.110490	2546.153217
355.500135	2543.771272
355.889717	2541.699358
356.279235	2540.454193
356.668689	2546.574153
357.058080	2546.188505
357.447408	2544.071221
357.836672	2541.701878
358.225873	2543.942671
358.615010	2541.021322
359.004084	2546.143135
359.393095	2547.567261
359.782043	2548.174720
360.170927	2545.817980
360.559748	2546.543907
360.948505	2551.988353
361.337199	2551.650595
361.725830	2551.348126
362.114398	2552.736964
362.502903	2551.874927
362.891344	2551.136398
363.279722	2555.549928
363.668037	2551.585060
364.056289	2553.490617
364.444478	2553.823333
364.832603	2552.116902
365.220665	2555.537325
365.608665	2554.798796
365.996601	2550.302087
366.384474	2556.049002
366.772284	2552.968857
367.160031	2557.478169
367.547715	2556.298539
367.935336	2555.895247
368.322893	2557.826009
368.710388	2557.248797
369.097820	2558.940104
369.485189	2556.427089
369.872495	2558.234342
370.259738	2559.842470
370.646918	2558.740978
371.034035	2559.355999
371.421090	2559.746688
371.808081	2560.018911
372.195010	2561.246432
372.581875	2560.775084
372.968678	2560.656617
373.355418	2559.502192
373.742096	2564.192986
374.128710	2564.795404
374.515262	2562.287430
374.901751	2562.184086
375.288177	2560.074363
375.674540	2562.612584
376.060841	2564.553429
376.447079	2566.428738
376.833254	2564.480332
377.219367	2559.996226
377.605417	2562.458829
377.991404	2561.145609
378.377329	2563.908161
378.763191	2558.229301
379.148991	2565.120558
379.534727	2564.240877
379.920402	2566.637946
380.306013	2565.591906
380.691563	2568.014181
381.077049	2563.925805
381.462474	2566.297668
381.847835	2567.772205
382.233134	2571.205231
382.618371	2565.725497
383.003545	2568.329253
383.388657	2567.784808
383.773706	2568.092319
384.158693	2569.876887
384.543618	2568.477967
384.928480	2567.225240
385.313280	2571.868143
385.698017	2568.689695
386.082692	2570.234809
386.467305	2571.525344
386.851856	2570.847309
387.236344	2569.637432
387.620770	2572.462999
388.005133	2572.117680
388.389435	2574.623133
388.773674	2573.864440
389.157851	2572.170612
389.541965	2574.023236
389.926018	2571.936198
390.310008	2574.527352
390.693936	2571.648853
391.077802	2574.797053
391.461606	2574.247567
391.845348	2574.539954
392.229027	2575.074317
392.612645	2574.124059
392.996200	2576.969791
393.379694	2575.691858
393.763125	2576.664801
394.146494	2574.587845
394.529801	2575.449883
394.913047	2577.350398
395.296230	2576.851323
395.679351	2578.804771
396.062410	2578.056159
396.445408	2576.483319
396.828343	2579.150090
397.211217	2574.829821
397.594028	2577.640264
397.976778	2573.902248
398.359466	2576.143041
398.742092	2576.092630
399.124656	2578.393917
399.507158	2580.296952
399.889598	2579.641602
400.271977	2579.439956
400.654294	2582.210070
401.036549	2581.617734
401.418742	2580.828794
401.800874	2582.404154
402.182944	2580.803588
402.564952	2583.034299
402.946898	2580.848958
403.328783	2581.690831
403.710606	2583.041860
404.092367	2581.285018
404.474067	2583.888774
404.855705	2582.477251
405.237282	2582.772159
405.618797	2582.759556
406.000250	2584.370204
406.381642	2585.885071
406.762972	2584.239134
407.144240	2584.897005
407.525447	2586.449680
407.906593	2583.626634
408.287677	2584.791141
408.668700	2584.425657
409.049661	2587.878847
409.430560	2585.905236
409.811399	2586.754670
410.192176	2585.771645
410.572891	2586.386666
410.953545	2585.988415
411.334138	2589.204671
411.714669	2587.578899
412.095139	2587.475555
412.475547	2587.198292
412.855894	2586.621080
413.236180	2586.490010
413.616405	2588.430854
413.996568	2586.091758
414.376670	2590.086873
414.756711	2587.062181
415.136691	2590.222984
415.516609	2588.912284
415.896466	2590.396904
416.276262	2590.843046
416.655997	2586.590833
417.035670	2587.651996
417.415283	2588.730802
417.794834	2588.400607
418.174324	2585.572520
418.553753	2593.038468
418.933121	2587.914136
419.312428	2587.689804
419.691674	2592.463777
420.070859	2591.286667
420.449983	2592.201637
420.829045	2592.549477
421.208047	2593.154415
421.586988	2591.574013
421.965867	2592.693149
422.344686	2592.957810
422.723444	2593.282964
423.102141	2593.101483
423.480777	2592.788931
423.859352	2591.379929
424.237866	2594.911257
424.616319	2595.342276
424.994712	2595.526278
425.373044	2593.645928
425.751314	2595.009560
426.129524	2592.972933
426.507673	2595.934611
426.885762	2596.761361
427.263789	2597.018459
427.641756	2594.243304
428.019662	2596.466453
428.397508	2593.456884
428.775292	2597.031062
429.153016	2598.412338
429.530679	2598.142637
429.908282	2596.700867
430.285824	2596.393356
430.663305	2596.940322
431.040726	2599.259252
431.418086	2598.588779
431.795385	2598.409818
432.172624	2599.564242
432.549802	2600.222113
432.926920	2594.951586
433.303977	2600.905189
433.680974	2598.528285
434.057910	2602.314192
434.434786	2600.960642
434.811601	2602.949377
435.188355	2600.935436
435.565050	2602.563729
435.941683	2602.225971
436.318257	2600.864860
436.694770	2600.491814
437.071222	2601.069027
437.447614	2600.504417
437.823946	2602.558687
438.200218	2602.291506
438.576429	2601.651280
438.952580	2604.953236
439.328670	2602.891404
439.704700	2604.005499
440.080670	2605.074223
440.456580	2604.998606
440.832429	2605.137238
441.208218	2604.290324
441.583947	2603.352669
441.959616	2605.681682
442.335224	2604.726384
442.710773	2606.755448
443.086261	2605.661518
443.461689	2608.093874
443.837057	2606.553802
444.212365	2607.564553
444.587612	2609.765017
444.962800	2605.757300
445.337927	2609.575974
445.712995	2607.529265
446.088002	2610.087651
446.462949	2609.016406
446.837837	2609.838114
447.212664	2609.739811
447.587431	2613.566047
447.962139	2614.654936
448.336786	2618.400513
448.711374	2618.264402
449.085901	2610.841303
449.460369	2610.564040
449.834776	2614.717951
450.209124	2616.252982
450.583412	2615.191819
450.957640	2616.353805
451.331808	2615.159052
451.705917	2614.392796
452.079965	2618.123250
452.453954	2616.563013
452.827883	2613.871037
453.201752	2615.244751
453.575562	2614.962447
453.949311	2620.187603
454.323001	2618.178703
454.696632	2617.724999
455.070202	2620.180041
455.443713	2622.998046
455.817164	2620.076697
456.190556	2619.159207
456.563888	2622.922428
456.937160	2618.203908
457.310373	2624.366719
457.683526	2625.102727
458.056619	2623.923097
458.429653	2624.649024
458.802628	2624.117182
459.175542	2626.146246
459.548398	2630.650517
459.921194	2631.041207
460.293930	2634.234778
460.666607	2638.028246
461.039224	2639.959008
461.411782	2638.807104
461.784280	2643.805408
462.156719	2643.742394
462.529099	2641.650315
462.901419	2642.673669
463.273680	2642.479585
463.645882	2641.630150
464.018024	2642.590490
464.390106	2645.015285
464.762130	2650.048877
465.134094	2657.038437
465.505999	2669.573266
465.877845	2677.465192
466.249631	2678.997703
466.621358	2679.852179
466.993026	2680.399144
467.364634	2679.232117
467.736184	2674.884122
468.107674	2675.524348
468.479105	2672.071158
468.850477	2672.862619
469.221790	2671.700633
469.593043	2668.973369
469.964238	2669.779953
470.335373	2669.459840
470.706449	2675.995696
471.077467	2683.086079
471.448425	2697.554191
471.819324	2705.264635
472.190164	2701.859336
472.560945	2693.816175
472.931667	2692.339117
473.302330	2687.676050
473.672934	2688.545649
474.043479	2691.983716
474.413965	2688.659075
474.784393	2690.766277
475.154761	2695.242822
475.525070	2694.408511
475.895321	2696.682071
476.265513	2698.408666
476.635645	2709.365614
477.005719	2710.220090
477.375734	2712.702858
477.745691	2718.686707
478.115588	2724.171483
478.485427	2731.450909
478.855207	2747.660739
479.224928	2756.838160
479.594591	2765.919798
479.964194	2764.382247
480.333739	2769.332660
480.703226	2773.438679
481.072653	2779.248609
481.442022	2783.949485
481.811333	2790.508026
482.180584	2786.555762
482.549777	2788.988118
482.918912	2788.158849
483.287988	2792.766463
483.657005	2793.184879
484.025964	2792.852163
484.394864	2801.313740
484.763706	2803.501600
485.132489	2802.107721
485.501213	2805.389512
485.869879	2813.805719
486.238487	2813.662046
486.607036	2820.918787
486.975527	2824.268634
487.343959	2825.607060
487.712333	2835.843123
488.080648	2838.225068
488.448905	2847.014320
488.817104	2852.680577
489.185244	2864.217257
489.553326	2884.591081
489.921350	2910.570667
490.289315	2936.756941
490.657222	2953.382666
491.025070	2963.195272
491.392861	2964.551342
491.760593	2963.666620
492.128267	2961.677885
492.495883	2960.682257
492.863440	2957.339972
493.230939	2958.189406
493.598380	2960.999849
493.965763	2966.063688
494.333088	2973.201962
494.700354	2979.808394
495.067563	2990.793069
495.434713	3000.950994
495.801805	3016.881040
496.168839	3028.526105
496.535815	3042.565719
496.902733	3056.144067
497.269593	3072.613516
497.636395	3084.046853
498.003139	3109.285390
498.369825	3121.817698
498.736453	3145.498518
499.103023	3159.351609
499.469535	3179.397757
499.835989	3201.919112
500.202385	3217.849158
500.568723	3246.354363
500.935003	3278.131276
501.301226	3301.270172
501.667390	3339.109073
502.033497	3373.094012
502.399546	3389.868451
502.765537	3409.090371
503.131470	3448.000517
503.497345	3489.101044
503.863163	3493.605315
504.228923	3545.332595
504.594625	3597.740430
504.960269	3620.528966
505.325856	3678.512318
505.691385	3708.552553
506.056856	3754.850510
506.422270	3813.983245
506.787625	3850.902135
507.152924	3904.532450
507.518164	3960.784165
507.883347	3987.693845
508.248472	4051.172054
508.613540	4130.429075
508.978550	4201.781566
509.343503	4252.117487
509.708398	4323.361594
510.073236	4411.884256
510.438016	4487.559537
510.802738	4530.686608
511.167403	4636.631497
511.532010	4722.000917
511.896561	4818.652439
512.261053	4948.207572
512.625488	5004.693701
512.989866	5081.354528
513.354186	5160.238503
513.718449	5247.626905
514.082655	5385.227720
514.446803	5461.737312
514.810894	5602.493889
515.174927	5695.772879
515.538904	5789.616478
515.902822	5946.217402
516.266684	6012.778277
516.630488	6161.172202
516.994235	6258.088385
517.357925	6425.495022
517.721558	6564.073820
518.085133	6711.804834
518.448651	6848.835998
518.812112	6950.977337
519.175516	7089.488080
519.538863	7258.265911
519.902152	7392.080819
520.265385	7583.223729
520.628560	7728.845019
520.991678	7842.409613
521.354739	8016.982250
521.717743	8203.893111
522.080690	8341.534255
522.443580	8562.175476
522.806413	8720.838232
523.169189	8872.768527
523.531908	9060.417917
523.894569	9203.995019
524.257174	9386.888081
524.619722	9604.338252
524.982213	9769.015104
525.344647	9921.714175
525.707025	10106.220406
526.069345	10343.946098
526.431608	10507.065233
526.793815	10739.044010
527.155964	10839.983033
527.518057	11050.700743
527.880093	11190.738956
528.242072	11483.970272
528.603995	11617.835592
528.965860	11799.085237
529.327669	12019.121521
529.689421	12181.711335
530.051117	12366.167154
530.412755	12611.613373
530.774337	12835.564112
531.135862	12996.187877
531.497331	13241.608890
531.858743	13414.381835
532.220098	13709.037277
532.581396	13845.342516
532.942638	13962.440958
533.303824	14257.209826
533.664953	14468.751765
534.026025	14592.186937
534.387040	14949.650116
534.747999	15154.497402
535.108902	15419.213432
535.469748	15488.342774
535.830537	15744.483801
536.191270	16027.416040
536.551947	16137.983668
536.912567	16463.647247
537.273131	16749.876401
537.633638	16794.389789
537.994089	17138.635062
538.354483	17224.438021
538.714821	17664.329106
539.075103	18044.858083
539.435328	18181.957303
539.795497	18390.192245
540.155609	18625.450292
540.515665	19051.175735
540.875665	19063.138393
541.235609	19438.308624
541.595496	19675.270581
541.955328	20190.829385
542.315102	20167.783750
542.674821	20314.037705
543.034483	20578.978066
543.394090	20803.914351
543.753640	21030.685615
544.113134	21728.560269
544.472571	21518.213083
544.831953	22336.478052
545.191278	22205.433258
545.550548	22335.772291
545.909761	22787.948667
546.268918	23147.655159
546.628019	23541.565879
546.987064	23572.586619
547.346053	23449.731179
547.704986	24148.057016
548.063863	24157.972966
548.422684	24489.086032
548.781449	24644.943386
549.140158	25102.110505
549.498811	25272.630054
549.857408	25206.469951
550.215949	25901.992906
550.574434	26097.758554
550.932864	26207.799381
551.291237	26846.047266
551.649555	26863.237601
552.007817	27237.916319
552.366022	27268.107790
552.724173	27610.114790
553.082267	28078.853878
553.440305	28489.334871
553.798288	28302.444174
554.156215	28749.246681
554.514086	29107.057698
554.871902	29167.261678
555.229661	29420.259546
555.587365	29533.680466
555.945014	29820.655711
556.302606	29998.782361
556.660143	30363.409019
557.017625	30644.453346
557.375050	30734.989948
557.732421	31185.512826
558.089735	31388.590668
558.446994	31561.068706
558.804197	32092.055961
559.161345	32255.890940
559.518437	31950.026492
559.875474	32385.035219
560.232455	32720.319841
560.589381	33066.591658
560.946251	33049.842424
561.303065	33732.545725
561.659825	33814.681244
562.016528	33768.597537
562.373177	33762.654016
562.729770	34316.240764
563.086307	34176.431924
563.442789	34695.721182
563.799216	34945.848112
564.155587	34978.177032
564.511904	35174.968554
564.868164	35434.020848
565.224370	35809.773332
565.580520	35792.603162
565.936615	36126.917361
566.292654	36088.556701
566.648638	36471.117264
567.004567	36622.737527
567.360441	36833.364497
567.716260	36891.282313
568.072023	37293.450444
568.427732	37449.224618
568.783385	37236.981959
569.138982	37728.244922
569.494525	37845.376131
569.850013	37817.014600
570.205445	37969.877508
570.560823	38081.309693
570.916145	38141.223807
571.271412	38316.837442
571.626625	38250.205991
571.981782	38447.675549
572.336884	38325.992177
572.691931	38752.425902
573.046923	38566.704753
573.401860	38580.719161
573.756743	38706.659787
574.111570	38940.536557
574.466342	38943.286507
574.821059	39172.928709
575.175722	38892.146522
575.530330	39047.179647
575.884882	38916.419678
576.239380	39024.139053
576.593823	39134.031166
576.948211	39182.927837
577.302544	38877.360818
577.656823	39017.777117
578.011047	39352.295483
578.365216	39222.836132
578.719330	39150.712344
579.073389	39121.347623
579.427394	39301.130292
579.781344	39385.491481
580.135239	39179.973721
580.489080	39350.021923
580.842866	38999.376905
581.196597	39490.536524
581.550273	39551.594980
581.903895	39532.778873
582.257463	39983.516000
582.610975	39530.638903
582.964434	39884.202749
583.317837	39643.986727
583.671186	39592.042678
584.024481	39890.146269
584.377721	39539.103001
584.730906	39894.408565
585.084037	40008.421821
585.437113	39847.790495
585.790135	39946.556781
586.143103	39677.591058
586.496016	39859.697700
586.848874	39970.378753
587.201679	40062.805788
587.554428	39668.277527
587.907124	39915.304147
588.259765	39774.565214
588.612352	40062.077342
588.964884	39562.352802
589.317362	39909.925236
589.669786	39922.865878
590.022155	39768.886355
590.374470	40231.770142
590.726731	39876.212520
591.078937	39489.518211
591.431090	39661.471969
591.783188	39395.301567
592.135232	39160.048561
592.487222	39452.637130
592.839157	39593.066032
593.191038	39343.092857
593.542866	39170.473667
593.894639	38665.685288
594.246358	39001.642904
594.598022	39039.373420
594.949633	38698.553611
595.301190	38726.408507
595.652692	38622.568299
596.004141	38993.892130
596.355535	38104.675441
596.706876	38102.049000
597.058162	38011.555247
597.409395	38492.803958
597.760573	38625.338413
598.111698	38273.249105
598.462768	38333.082560
598.813785	38418.444418
599.164748	37930.233874
599.515657	38343.106895
599.866511	37885.828870
600.217312	38531.177221
600.568060	37575.424863
600.918753	38354.323462
601.269392	38334.098353
601.619978	38032.234060
601.970510	38283.003738
602.320988	38494.134823
602.671412	38836.257770
603.021783	38617.489337
603.372100	38328.137188
603.722363	38447.985580
604.072572	38569.623581
604.422728	38625.542580
604.772830	38449.951630
605.122878	38602.307902
605.472872	38563.629649
605.822813	38847.885191
606.172701	38708.840086
606.522534	39002.121813
606.872314	39275.367475
607.222041	39052.838342
607.571714	39457.693407
607.921333	38950.235737
608.270899	39249.370245
608.620411	39633.954831
608.969870	39440.394688
609.319276	39474.336777
609.668627	39552.446935
610.017926	40041.547243
610.367171	40228.750491
610.716362	40312.070682
611.065500	40290.930603
611.414585	40499.473055
611.763616	40806.290281
612.112594	40764.884764
612.461518	40994.098468
612.810389	41318.882366
613.159207	41193.357635
613.507971	41306.886940
613.856682	41769.445573
614.205340	41685.197810
614.553945	42393.237950
614.902496	41856.125693
615.250994	42336.650998
615.599439	42414.163780
615.947830	42637.839776
616.296169	42719.652662
616.644454	42839.995086
616.992686	43033.461968
617.340864	43549.003128
617.688990	43277.554637
618.037063	43880.990835
618.385082	43857.698184
618.733048	44173.934806
619.080961	44199.906830
619.428821	44218.032299
619.776628	44330.293754
620.124382	44187.006517
620.472083	44340.681051
620.819731	44463.551615
621.167326	44141.351308
621.514868	44150.511084
621.862357	43714.158890
622.209793	43763.468936
622.557176	43432.945684
622.904506	43194.355434
623.251783	42855.862118
623.599007	42657.631346
623.946179	42447.780714
624.293297	42413.470621
624.640363	41827.035715
624.987376	41826.932371
625.334336	41596.786054
625.681243	41263.003696
626.028097	41211.110058
626.374899	41084.796387
626.721647	41068.382390
627.068343	40977.445016
627.414987	40750.577969
627.761577	40526.723012
628.108115	40860.293642
628.454600	40309.267800
628.801032	40502.205361
629.147412	40469.372326
629.493739	40468.603550
629.840014	40119.143203
630.186236	40479.636115
630.532405	40069.177807
630.878521	40282.048090
631.224585	40175.551194
631.570597	39893.367567
631.916556	40048.443541
632.262462	39994.694759
632.608316	39998.213484
632.954117	39918.464951
633.299866	39895.714224
633.645562	39827.837608
633.991206	39354.906801
634.336797	38907.844675
634.682336	38905.828213
635.027823	38677.728605
635.373257	38487.851024
635.718639	38269.652242
636.063968	38115.526525
636.409245	37549.888899
636.754470	37612.058928
637.099642	37370.063379
637.444762	36889.343990
637.789829	37037.478295
638.134845	36701.298869
638.479808	36641.777965
638.824719	36559.730666
639.169577	36172.638106
639.514383	36245.681905
