Dividing Wavelength (nm)	Counts (n)	Blue Motor Position (mm): 15.100000	Red Motor Position (mm): 0.000000	
326.493990	2173.579180
326.888308	2173.579180
327.282561	2173.579180
327.676750	2134.369086
328.070874	2128.395318
328.464933	2130.812552
328.858929	2133.622995
329.252859	2138.192801
329.646726	2145.162196
330.040528	2158.957314
330.434265	2171.845023
330.827938	2191.825637
331.221547	2208.713502
331.615091	2223.650441
332.008571	2242.292628
332.401986	2261.506986
332.795338	2278.246137
333.188625	2297.959569
333.581847	2316.798361
333.975006	2334.286124
334.368100	2353.213136
334.761129	2372.775333
335.154095	2390.636142
335.546996	2412.764286
335.939833	2438.050714
336.332606	2453.131326
336.725315	2465.025928
337.117960	2478.881540
337.510540	2491.736482
337.903056	2501.791063
338.295508	2506.207114
338.687896	2520.448374
339.080220	2526.795186
339.472480	2533.429345
339.864676	2539.047711
340.256807	2543.577188
340.648875	2550.234031
341.040879	2549.707231
341.432818	2555.038251
341.824694	2555.076059
342.216506	2556.938766
342.608253	2556.951369
342.999937	2557.606719
343.391557	2557.286605
343.783113	2558.476318
344.174605	2558.683005
344.566033	2555.499516
344.957397	2555.088662
345.348697	2552.477345
345.739934	2551.481717
346.131106	2549.341747
346.522215	2545.142466
346.913260	2547.690769
347.304241	2544.439225
347.695159	2540.449152
348.086012	2542.092568
348.476802	2537.537885
348.867528	2532.509334
349.258191	2532.728624
349.648789	2532.400949
350.039324	2528.655372
350.429796	2530.263500
350.820203	2527.984899
351.210548	2528.862059
351.600828	2526.903571
351.991045	2526.797707
352.381198	2527.289219
352.771288	2524.965247
353.161314	2523.241173
353.551276	2526.742254
353.941175	2519.866120
354.331010	2522.810154
354.720782	2524.201513
355.110490	2524.816533
355.500135	2522.724455
355.889717	2522.091790
356.279235	2522.603467
356.668689	2522.918539
357.058080	2521.202026
357.447408	2524.871986
357.836672	2524.274609
358.225873	2523.586492
358.615010	2524.093128
359.004084	2523.858714
359.393095	2525.542460
359.782043	2524.766122
360.170927	2526.230577
360.559748	2524.829136
360.948505	2528.718387
361.337199	2529.759385
361.725830	2526.568334
362.114398	2527.556401
362.502903	2529.774508
362.891344	2529.063706
363.279722	2529.918181
363.668037	2529.903058
364.056289	2530.916330
364.444478	2532.214427
364.832603	2531.647297
365.220665	2534.356917
365.608665	2531.619571
365.996601	2533.416742
366.384474	2535.009747
366.772284	2533.063861
367.160031	2533.767102
367.547715	2535.511341
367.935336	2535.675179
368.322893	2531.664941
368.710388	2533.741896
369.097820	2534.845909
369.485189	2530.079498
369.872495	2536.673327
370.259738	2535.105528
370.646918	2537.522762
371.034035	2536.340611
371.421090	2536.128883
371.808081	2539.836651
372.195010	2535.491177
372.581875	2539.176260
372.968678	2537.800025
373.355418	2539.299768
373.742096	2540.915458
374.128710	2541.054090
374.515262	2539.143493
374.901751	2538.546116
375.288177	2539.771116
375.674540	2541.389327
376.060841	2540.103833
376.447079	2540.000489
376.833254	2540.610468
377.219367	2542.616848
377.605417	2541.696837
377.991404	2539.624923
378.377329	2540.935623
378.763191	2544.096426
379.148991	2542.130376
379.534727	2541.704399
379.920402	2539.340098
380.306013	2545.061807
380.691563	2541.162475
381.077049	2541.777496
381.462474	2544.275387
381.847835	2544.474513
382.233134	2543.710778
382.618371	2542.211035
383.003545	2545.691952
383.388657	2542.889070
383.773706	2546.460727
384.158693	2543.995603
384.543618	2542.606765
384.928480	2544.625748
385.313280	2543.123484
385.698017	2549.893753
386.082692	2546.909390
386.467305	2546.405275
386.851856	2547.383259
387.236344	2545.535676
387.620770	2545.364277
388.005133	2545.129863
388.389435	2544.832435
388.773674	2542.826056
389.157851	2548.381407
389.541965	2546.445604
389.926018	2547.229503
390.310008	2549.866027
390.693936	2549.092210
391.077802	2549.268650
391.461606	2548.774617
391.845348	2550.586912
392.229027	2552.235369
392.612645	2550.720503
392.996200	2551.196892
393.379694	2549.598846
393.763125	2549.513146
394.146494	2552.041285
394.529801	2550.576830
394.913047	2552.240410
395.296230	2553.268806
395.679351	2549.697148
396.062410	2551.269988
396.445408	2550.203784
396.828343	2551.411141
397.211217	2554.173693
397.594028	2552.114382
397.976778	2550.561706
398.359466	2552.646223
398.742092	2550.448280
399.124656	2551.892571
399.507158	2551.285112
399.889598	2553.725030
400.271977	2554.829043
400.654294	2553.210833
401.036549	2554.347613
401.418742	2554.277037
401.800874	2554.009855
402.182944	2554.531615
402.564952	2553.992211
402.946898	2553.576316
403.328783	2552.880637
403.710606	2555.580175
404.092367	2554.022458
404.474067	2555.620504
404.855705	2556.197716
405.237282	2554.488765
405.618797	2555.955741
406.000250	2557.447922
406.381642	2555.328117
406.762972	2556.061605
407.144240	2554.662685
407.525447	2554.801317
407.906593	2552.462221
408.287677	2556.979095
408.668700	2556.316183
409.049661	2559.272820
409.430560	2558.015052
409.811399	2559.189641
410.192176	2559.164435
410.572891	2557.536142
410.953545	2557.919270
411.334138	2559.787018
411.714669	2556.840463
412.095139	2556.379198
412.475547	2559.895402
412.855894	2562.234498
413.236180	2561.059909
413.616405	2558.433468
413.996568	2560.964127
414.376670	2558.763663
414.756711	2559.456822
415.136691	2560.830537
415.516609	2563.242729
415.896466	2561.342214
416.276262	2560.971689
416.655997	2562.310115
417.035670	2559.930691
417.415283	2563.381360
417.794834	2562.536967
418.174324	2560.517985
418.553753	2562.980589
418.933121	2562.489076
419.312428	2564.913871
419.691674	2560.248283
420.070859	2562.287430
420.449983	2562.950342
420.829045	2561.604354
421.208047	2564.460167
421.586988	2560.787687
421.965867	2563.799776
422.344686	2562.852039
422.723444	2563.484704
423.102141	2564.742472
423.480777	2565.712894
423.859352	2565.964952
424.237866	2563.215002
424.616319	2564.026628
424.994712	2563.804817
425.373044	2564.566032
425.751314	2563.451937
426.129524	2559.328273
426.507673	2560.853222
426.885762	2559.134188
427.263789	2565.728018
427.641756	2562.584858
428.019662	2566.829510
428.397508	2565.322205
428.775292	2565.218861
429.153016	2568.155333
429.530679	2564.359344
429.908282	2567.263049
430.285824	2567.467216
430.663305	2566.950497
431.040726	2564.122410
431.418086	2565.785991
431.795385	2565.294478
432.172624	2563.391443
432.549802	2565.181052
432.926920	2565.102914
433.303977	2566.640466
433.680974	2565.785991
434.057910	2565.700291
434.434786	2567.595765
434.811601	2565.511248
435.188355	2566.267421
435.565050	2568.525858
435.941683	2565.118038
436.318257	2568.727504
436.694770	2568.853533
437.071222	2568.389747
437.447614	2569.289593
437.823946	2568.362020
438.200218	2567.860426
438.576429	2568.445199
438.952580	2566.027966
439.328670	2568.901424
439.704700	2568.339335
440.080670	2567.719273
440.456580	2567.232802
440.832429	2567.172308
441.208218	2568.382185
441.583947	2565.163408
441.959616	2568.377144
442.335224	2569.387895
442.710773	2567.542833
443.086261	2568.314129
443.461689	2568.001578
443.837057	2570.436455
444.212365	2569.602144
444.587612	2566.063254
444.962800	2567.620971
445.337927	2568.291444
445.712995	2564.084601
446.088002	2570.880077
446.462949	2569.415622
446.837837	2571.111970
447.212664	2570.368400
447.587431	2572.886456
447.962139	2573.393092
448.336786	2571.066599
448.711374	2572.974676
449.085901	2570.184398
449.460369	2570.965776
449.834776	2571.454768
450.209124	2571.316137
450.583412	2570.668348
450.957640	2571.003585
451.331808	2569.917216
451.705917	2572.273956
452.079965	2573.377968
452.453954	2571.273287
452.827883	2573.546847
453.201752	2571.399316
453.575562	2572.072310
453.949311	2571.515262
454.323001	2573.990469
454.696632	2570.781774
455.070202	2576.039698
455.443713	2575.144893
455.817164	2574.272773
456.190556	2576.475758
456.563888	2574.534913
456.937160	2570.678431
457.310373	2574.151786
457.683526	2574.315623
458.056619	2574.640777
458.429653	2574.817218
458.802628	2575.827969
459.175542	2572.543657
459.548398	2576.495922
459.921194	2577.312589
460.293930	2575.071796
460.666607	2576.634554
461.039224	2574.519790
461.411782	2578.068762
461.784280	2576.561457
462.156719	2578.464493
462.529099	2578.363670
462.901419	2580.072621
463.273680	2577.166396
463.645882	2573.342680
464.018024	2576.798391
464.390106	2574.771847
464.762130	2578.530028
465.134094	2576.574060
465.505999	2578.550192
465.877845	2582.152097
466.249631	2581.867272
466.621358	2582.457087
466.993026	2581.353074
467.364634	2587.362129
467.736184	2585.058322
468.107674	2579.893660
468.479105	2584.667632
468.850477	2582.106726
469.221790	2581.247210
469.593043	2581.824422
469.964238	2580.186047
470.335373	2581.864751
470.706449	2583.185533
471.077467	2582.348702
471.448425	2582.933476
471.819324	2583.798033
472.190164	2585.504464
472.560945	2586.046388
472.931667	2582.346181
473.302330	2583.175451
473.672934	2583.452714
474.043479	2581.814339
474.413965	2581.101016
474.784393	2580.828794
475.154761	2583.215780
475.525070	2583.384659
475.895321	2582.633527
476.265513	2585.690987
476.635645	2586.099320
477.005719	2585.600246
477.375734	2583.251068
477.745691	2585.270050
478.115588	2587.190730
478.485427	2585.600246
478.855207	2584.513877
479.224928	2584.695359
479.594591	2588.521595
479.964194	2591.846236
480.333739	2591.374888
480.703226	2589.043354
481.072653	2589.741554
481.442022	2590.961513
481.811333	2587.248703
482.180584	2586.502612
482.549777	2589.184506
482.918912	2585.796851
483.287988	2590.306163
483.657005	2589.968406
484.025964	2588.440936
484.394864	2590.548138
484.763706	2591.579054
485.132489	2589.320618
485.501213	2589.923035
485.869879	2594.089549
486.238487	2591.402614
486.607036	2589.121492
486.975527	2587.654516
487.343959	2591.344641
487.712333	2590.006214
488.080648	2589.975968
488.448905	2592.620053
488.817104	2593.202306
489.185244	2594.129878
489.553326	2593.472008
489.921350	2590.643920
490.289315	2597.537698
490.657222	2596.821854
491.025070	2598.286310
491.392861	2597.189859
491.760593	2598.692122
492.128267	2596.151381
492.495883	2596.436206
492.863440	2594.371854
493.230939	2594.427306
493.598380	2596.436206
493.965763	2595.952255
494.333088	2595.957297
494.700354	2592.569641
495.067563	2593.308170
495.434713	2595.133068
495.801805	2596.040476
496.168839	2594.835640
496.535815	2594.656679
496.902733	2597.126844
497.269593	2593.905547
497.636395	2597.409149
498.003139	2597.608274
498.369825	2596.113572
498.736453	2596.947883
499.103023	2597.212544
499.469535	2598.624067
499.835989	2597.893100
500.202385	2594.543253
500.568723	2593.217429
500.935003	2594.258428
501.301226	2593.950917
501.667390	2599.143306
502.033497	2602.231012
502.399546	2599.649942
502.765537	2597.817482
503.131470	2601.111876
503.497345	2602.115066
503.863163	2597.986361
504.228923	2600.106166
504.594625	2599.634818
504.960269	2602.785539
505.325856	2602.528441
505.691385	2600.585076
506.056856	2606.894080
506.422270	2602.919130
506.787625	2606.465582
507.152924	2605.845520
507.518164	2606.609255
507.883347	2605.976590
508.248472	2605.018771
508.613540	2607.932557
508.978550	2610.334667
509.343503	2607.040273
509.708398	2610.241406
510.073236	2609.454986
510.438016	2611.894904
510.802738	2610.848865
511.167403	2612.356170
511.532010	2613.681993
511.896561	2615.504371
512.261053	2617.414968
512.625488	2619.630555
512.989866	2615.068311
513.354186	2620.348919
513.718449	2618.377828
514.082655	2622.771194
514.446803	2620.711882
514.810894	2621.604167
515.174927	2625.382512
515.538904	2625.548870
515.902822	2625.700104
516.266684	2627.051133
516.630488	2630.889972
516.994235	2628.581124
517.357925	2628.775208
517.721558	2630.484159
518.085133	2631.056330
518.448651	2631.613378
518.812112	2632.135137
519.175516	2632.558594
519.538863	2633.486166
519.902152	2638.648308
520.265385	2641.446148
520.628560	2643.127373
520.991678	2642.908083
521.354739	2642.693834
521.717743	2645.574853
522.080690	2646.126860
522.443580	2650.149700
522.806413	2651.994763
523.169189	2651.258754
523.531908	2656.564569
523.894569	2655.243786
524.257174	2658.432316
524.619722	2658.172697
524.982213	2662.291319
525.344647	2662.777791
525.707025	2663.884324
526.069345	2666.573780
526.431608	2667.340035
526.793815	2670.715087
527.155964	2673.631395
527.518057	2671.803977
527.880093	2673.621313
528.242072	2681.717406
528.603995	2682.773527
528.965860	2682.065245
529.327669	2686.473734
529.689421	2691.056143
530.051117	2692.129909
530.412755	2691.230063
530.774337	2697.927236
531.135862	2697.738193
531.497331	2704.818493
531.858743	2704.516024
532.220098	2709.574822
532.581396	2715.084803
532.942638	2717.383569
533.303824	2722.676781
533.664953	2728.544684
534.026025	2729.373954
534.387040	2733.197669
534.747999	2739.085737
535.108902	2743.390882
535.469748	2743.070769
535.830537	2751.721389
536.191270	2760.813110
536.551947	2759.446957
536.912567	2761.130702
537.273131	2774.225099
537.633638	2776.208793
537.994089	2786.858231
538.354483	2788.047943
538.714821	2799.922381
539.075103	2810.339926
539.435328	2810.828917
539.795497	2816.870740
540.155609	2829.161073
540.515665	2837.547033
540.875665	2841.640450
541.235609	2852.345340
541.595496	2866.586600
541.955328	2872.567929
542.315102	2888.944117
542.674821	2889.861607
543.034483	2894.643141
543.394090	2911.586459
543.753640	2920.640372
544.113134	2940.474792
544.472571	2950.544496
544.831953	2968.077629
545.191278	2970.094091
545.550548	2981.867706
545.909761	2993.878255
546.268918	3018.012779
546.628019	3029.274717
546.987064	3046.737273
547.346053	3057.157338
547.704986	3075.043352
548.063863	3095.830550
548.422684	3104.191304
548.781449	3117.920886
549.140158	3148.487923
549.498811	3168.634894
549.857408	3171.778053
550.215949	3206.309957
550.574434	3217.108109
550.932864	3248.595156
551.291237	3267.159205
551.649555	3299.573824
552.007817	3324.018379
552.366022	3342.184177
552.724173	3367.037065
553.082267	3393.263668
553.440305	3439.894341
553.798288	3444.499435
554.156215	3488.667505
554.514086	3524.189995
554.871902	3518.924510
555.229661	3567.090215
555.587365	3598.037858
555.945014	3621.340592
556.302606	3678.766896
556.660143	3703.037531
557.017625	3760.788989
557.375050	3772.005557
557.732421	3815.233451
558.089735	3852.878267
558.446994	3888.557034
558.804197	3939.591155
559.161345	3983.481961
559.518437	3986.320130
559.875474	4058.302766
560.232455	4093.716872
560.589381	4140.292092
560.946251	4172.805014
561.303065	4250.390892
561.659825	4307.061023
562.016528	4326.474507
562.373177	4353.729505
562.729770	4411.702774
563.086307	4482.253722
563.442789	4542.014080
563.799216	4581.748455
564.155587	4619.662973
564.511904	4690.337429
564.868164	4716.175863
565.224370	4792.814005
565.580520	4816.792253
565.936615	4903.961365
566.292654	4912.685082
566.648638	5026.325292
567.004567	5045.854722
567.360441	5107.520637
567.716260	5127.894460
568.072023	5239.926542
568.427732	5280.159991
568.783385	5306.114372
569.138982	5396.761880
569.494525	5480.558459
569.850013	5530.186098
570.205445	5589.399492
570.560823	5614.133913
570.916145	5680.399880
571.271412	5737.506071
571.626625	5806.121216
571.981782	5869.453232
572.336884	5897.839969
572.691931	5996.664228
573.046923	5999.152038
573.401860	6084.241674
573.756743	6167.314848
574.111570	6211.404779
574.466342	6263.837821
574.821059	6357.479774
575.175722	6361.285845
575.530330	6462.577749
575.884882	6519.147057
576.239380	6596.531289
576.593823	6642.632641
576.948211	6694.808583
577.302544	6734.943730
577.656823	6787.971627
578.011047	6893.258646
578.365216	6939.969977
578.719330	6996.614903
579.073389	7033.501025
579.427394	7178.371184
579.781344	7166.761407
580.135239	7248.649910
580.489080	7301.403064
580.842866	7305.040257
581.196597	7475.421174
581.550273	7491.479770
581.903895	7606.763397
582.257463	7743.141732
582.610975	7719.239101
582.964434	7862.629681
583.317837	7879.497381
583.671186	7984.358423
584.024481	8069.390085
584.377721	8055.814258
584.730906	8161.983478
585.084037	8260.210361
585.437113	8306.145355
585.790135	8429.867873
586.143103	8368.327988
586.496016	8423.001822
586.848874	8626.218295
587.201679	8662.532247
587.554428	8626.636711
587.907124	8824.900250
588.259765	8823.907143
588.612352	8958.780693
588.964884	8892.252586
589.317362	9021.462400
589.669786	9120.344633
590.022155	9208.731183
590.374470	9368.984423
590.726731	9382.789623
591.078937	9359.186941
591.431090	9467.836409
591.783188	9435.751985
592.135232	9491.749122
592.487222	9651.924224
592.839157	9714.119459
593.191038	9772.617009
593.542866	9772.944684
593.894639	9774.136917
594.246358	9925.600904
594.598022	9952.767683
594.949633	9941.535992
595.301190	9978.603596
595.652692	10136.979006
596.004141	10313.245471
596.355535	10104.350137
596.706876	10176.020222
597.058162	10212.034225
597.409395	10360.493685
597.760573	10508.819555
598.111698	10475.593310
598.462768	10518.339774
598.813785	10560.171268
599.164748	10562.180168
599.515657	10631.012083
599.866511	10615.066913
600.217312	10853.231185
600.568060	10701.643689
600.918753	10938.567838
601.269392	10972.245266
601.619978	10911.267469
601.970510	11122.242278
602.320988	11134.396500
602.671412	11321.728298
603.021783	11343.221257
603.372100	11276.539394
603.722363	11435.302973
604.072572	11472.481483
604.422728	11579.553070
604.772830	11570.400855
605.122878	11561.556151
605.472872	11652.851447
605.822813	11729.915566
606.172701	11772.120106
606.522534	11949.835902
606.872314	12036.979808
607.222041	11977.148874
607.571714	12178.663957
607.921333	12161.884477
608.270899	12272.008483
608.620411	12486.302892
608.969870	12354.721214
609.319276	12447.181017
609.668627	12550.365875
610.017926	12706.049308
610.367171	12837.499915
610.716362	12961.038432
611.065500	12873.163558
611.414585	13028.869677
611.763616	13097.280655
612.112594	13148.367708
612.461518	13154.926250
612.810389	13360.093649
613.159207	13287.992547
613.507971	13317.637052
613.856682	13604.864354
614.205340	13600.967542
614.553945	13785.249441
614.902496	13622.916726
615.250994	13900.250763
615.599439	13898.688006
615.947830	13934.704529
616.296169	13992.571934
616.644454	14062.351586
616.992686	14055.379670
617.340864	14265.139561
617.688990	14172.684800
618.037063	14349.490668
618.385082	14292.437409
618.733048	14538.884297
619.080961	14484.255834
619.428821	14580.962808
619.776628	14578.913579
620.124382	14547.517273
620.472083	14642.664011
620.819731	14727.715838
621.167326	14536.129307
621.514868	14616.818015
621.862357	14500.929450
622.209793	14563.081836
622.557176	14506.741900
622.904506	14408.862857
623.251783	14395.274427
623.599007	14304.775633
623.946179	14303.217917
624.293297	14315.160410
624.640363	14170.819573
624.987376	14216.671387
625.334336	14094.125979
625.681243	14023.602757
626.028097	14064.234457
626.374899	14089.677160
626.721647	13986.288136
627.068343	13886.069998
627.414987	13882.780645
627.761577	13920.082663
628.108115	13991.871214
628.454600	13778.287608
628.801032	13883.730902
629.147412	13863.702398
629.493739	13922.038630
629.840014	13812.023009
630.186236	13913.279626
630.532405	13758.922015
630.878521	13942.876240
631.224585	13872.758831
631.570597	13776.316517
631.916556	13811.092917
632.262462	13821.611284
632.608316	13794.895689
632.954117	13763.766564
633.299866	13799.720073
633.645562	13758.869083
633.991206	13564.275504
634.336797	13477.766783
634.682336	13497.462571
635.027823	13434.107870
635.373257	13382.922515
635.718639	13300.623157
636.063968	13281.035754
636.409245	13112.373870
636.754470	13156.456240
637.099642	13035.927293
637.444762	12853.306453
637.789829	12942.524794
638.134845	12803.784678
638.479808	12841.794978
638.824719	12826.605982
639.169577	12701.829863
639.514383	12772.113629
639.859137	12609.412910
640.203839	12715.178838
640.548489	12577.784710
640.893086	12595.753903
641.237632	12482.196872
641.582125	12654.725321
641.926566	12517.537881
642.270955	12541.143084
642.615292	12527.287472
