Dividing Wavelength (nm)	Counts (n)	Blue Motor Position (mm): 16.500000	Red Motor Position (mm): 0.000000	
326.493990	2174.892401
326.888308	2174.892401
327.282561	2174.892401
327.676750	2134.790022
328.070874	2133.121400
328.464933	2133.945629
328.858929	2135.314302
329.252859	2139.402678
329.646726	2149.328710
330.040528	2165.059630
330.434265	2175.101609
330.827938	2194.991481
331.221547	2210.177957
331.615091	2226.654969
332.008571	2246.012999
332.401986	2264.146030
332.795338	2282.382404
333.188625	2302.665486
333.581847	2320.942190
333.975006	2337.288131
334.368100	2354.508713
334.761129	2375.716847
335.154095	2393.693601
335.546996	2413.558268
335.939833	2443.401899
336.332606	2454.114351
336.725315	2468.854685
337.117960	2484.779690
337.510540	2491.630618
337.903056	2502.670745
338.295508	2513.335306
338.687896	2520.624814
339.080220	2529.719056
339.472480	2537.142155
339.864676	2540.635674
340.256807	2548.250337
340.648875	2551.680842
341.040879	2555.333158
341.432818	2558.836760
341.824694	2560.628890
342.216506	2560.223077
342.608253	2562.431103
342.999937	2563.320867
343.391557	2560.162584
343.783113	2561.042265
344.174605	2561.811041
344.566033	2560.228119
344.957397	2561.145609
345.348697	2556.384239
345.739934	2555.149156
346.131106	2556.096893
346.522215	2552.094217
346.913260	2552.590771
347.304241	2547.665563
347.695159	2544.444266
348.086012	2544.686241
348.476802	2542.437887
348.867528	2540.050900
349.258191	2535.402957
349.648789	2537.457227
350.039324	2530.971782
350.429796	2536.098636
350.820203	2531.546474
351.210548	2533.981351
351.600828	2529.530012
351.991045	2528.909950
352.381198	2529.174611
352.771288	2526.613705
353.161314	2527.271575
353.551276	2529.890455
353.941175	2526.850639
354.331010	2523.704959
354.720782	2526.477594
355.110490	2525.577748
355.500135	2528.015146
355.889717	2524.662778
356.279235	2527.788294
356.668689	2528.476411
357.058080	2526.001205
357.447408	2527.450536
357.836672	2523.654547
358.225873	2528.068078
358.615010	2528.511699
359.004084	2527.236287
359.393095	2528.504138
359.782043	2529.545136
360.170927	2529.711494
360.559748	2530.195445
360.948505	2533.978831
361.337199	2529.920702
361.725830	2532.227030
362.114398	2533.336083
362.502903	2533.205013
362.891344	2534.195600
363.279722	2535.423121
363.668037	2534.119983
364.056289	2533.991433
364.444478	2535.826413
364.832603	2536.756506
365.220665	2538.168029
365.608665	2535.939839
365.996601	2537.500077
366.384474	2538.818338
366.772284	2540.494522
367.160031	2538.788091
367.547715	2539.387989
367.935336	2539.085519
368.322893	2535.407998
368.710388	2537.298430
369.097820	2536.030580
369.485189	2535.803728
369.872495	2540.244985
370.259738	2540.096271
370.646918	2541.606096
371.034035	2539.882022
371.421090	2544.298073
371.808081	2541.245654
372.195010	2541.313709
372.581875	2542.957126
372.968678	2543.544420
373.355418	2541.023843
373.742096	2542.347146
374.128710	2543.864533
374.515262	2543.491488
374.901751	2538.911600
375.288177	2543.678011
375.674540	2543.930068
376.060841	2545.596170
376.447079	2546.354863
376.833254	2545.699513
377.219367	2545.195398
377.605417	2547.128680
377.991404	2546.606921
378.377329	2546.864020
378.763191	2546.848896
379.148991	2546.564071
379.534727	2546.070038
379.920402	2544.782023
380.306013	2545.588608
380.691563	2547.879812
381.077049	2547.209339
381.462474	2549.573640
381.847835	2547.201777
382.233134	2547.083310
382.618371	2548.104144
383.003545	2549.404761
383.388657	2549.949206
383.773706	2547.355532
384.158693	2549.719833
384.543618	2552.366439
384.928480	2549.961809
385.313280	2549.800492
385.698017	2549.278733
386.082692	2548.356201
386.467305	2552.406768
386.851856	2548.938455
387.236344	2550.584391
387.620770	2546.511139
388.005133	2548.794782
388.389435	2548.252858
388.773674	2549.051881
389.157851	2551.796789
389.541965	2551.905174
389.926018	2551.753939
390.310008	2550.634803
390.693936	2554.760987
391.077802	2553.034392
391.461606	2551.509443
391.845348	2553.674619
392.229027	2556.154866
392.612645	2553.946841
392.996200	2557.173179
393.379694	2552.784855
393.763125	2556.212840
394.146494	2554.355174
394.529801	2557.394990
394.913047	2556.202757
395.296230	2556.376677
395.679351	2555.880123
396.062410	2554.329969
396.445408	2559.260217
396.828343	2557.021945
397.211217	2556.706873
397.594028	2556.512788
397.976778	2556.210319
398.359466	2558.486400
398.742092	2556.916081
399.124656	2557.783159
399.507158	2558.279713
399.889598	2556.366595
400.271977	2558.982954
400.654294	2558.209137
401.036549	2561.735424
401.418742	2559.318190
401.800874	2555.171841
402.182944	2557.248797
402.564952	2560.205433
402.946898	2558.604867
403.328783	2558.859445
403.710606	2556.515309
404.092367	2558.831719
404.474067	2559.471946
404.855705	2559.635783
405.237282	2560.691905
405.618797	2561.649724
406.000250	2561.228788
406.381642	2559.565207
406.762972	2558.148643
407.144240	2558.546894
407.525447	2560.825495
407.906593	2554.438353
408.287677	2562.453788
408.668700	2561.042265
409.049661	2560.790207
409.430560	2559.741647
409.811399	2561.624518
410.192176	2562.390774
410.572891	2560.608726
410.953545	2561.732903
411.334138	2562.731052
411.714669	2561.201061
412.095139	2564.157698
412.475547	2561.248952
412.855894	2566.111145
413.236180	2562.831875
413.616405	2565.150805
413.996568	2562.836916
414.376670	2564.828172
414.756711	2564.366906
415.136691	2563.973696
415.516609	2566.703481
415.896466	2562.902451
416.276262	2563.477142
416.655997	2566.910168
417.035670	2565.665003
417.415283	2565.312122
417.794834	2566.274983
418.174324	2565.995199
418.553753	2566.937894
418.933121	2566.955538
419.312428	2565.768347
419.691674	2568.611557
420.070859	2568.672051
420.449983	2565.034859
420.829045	2566.713563
421.208047	2565.423028
421.586988	2566.033007
421.965867	2568.336815
422.344686	2564.785322
422.723444	2568.765313
423.102141	2570.280179
423.480777	2569.856722
423.859352	2568.135168
424.237866	2567.406722
424.616319	2569.740776
424.994712	2570.020560
425.373044	2569.571897
425.751314	2567.459654
426.129524	2564.399673
426.507673	2566.736248
426.885762	2565.949828
427.263789	2569.944943
427.641756	2569.506362
428.019662	2569.329922
428.397508	2569.347566
428.775292	2568.853533
429.153016	2568.878739
429.530679	2570.164233
429.908282	2570.449058
430.285824	2567.580642
430.663305	2571.958884
431.040726	2569.763461
431.418086	2568.299006
431.795385	2569.793708
432.172624	2571.139696
432.549802	2569.914696
432.926920	2570.464182
433.303977	2570.554922
433.680974	2572.210941
434.057910	2571.303534
434.434786	2572.137845
434.811601	2571.540468
435.188355	2572.720098
435.565050	2570.025601
435.941683	2571.308575
436.318257	2571.212793
436.694770	2572.190777
437.071222	2572.276476
437.447614	2570.265056
437.823946	2575.525500
438.200218	2575.134811
438.576429	2574.257650
438.952580	2572.379820
439.328670	2572.838565
439.704700	2571.540468
440.080670	2571.913513
440.456580	2573.030129
440.832429	2571.530386
441.208218	2574.643298
441.583947	2572.389902
441.959616	2574.575242
442.335224	2573.995510
442.710773	2577.531879
443.086261	2574.345870
443.461689	2574.492063
443.837057	2573.352763
444.212365	2573.897207
444.587612	2573.897207
444.962800	2574.857547
445.337927	2572.873853
445.712995	2570.998544
446.088002	2573.990469
446.462949	2579.775193
446.837837	2576.044739
447.212664	2573.907290
447.587431	2575.825449
447.962139	2576.513566
448.336786	2578.265367
448.711374	2579.734863
449.085901	2578.489698
449.460369	2578.330902
449.834776	2578.676221
450.209124	2576.700089
450.583412	2578.361149
450.957640	2578.822415
451.331808	2578.835017
451.705917	2577.040367
452.079965	2579.911304
452.453954	2579.326530
452.827883	2580.964905
453.201752	2576.596745
453.575562	2580.581777
453.949311	2579.477765
454.323001	2580.566654
454.696632	2579.523135
455.070202	2582.855338
455.443713	2579.540779
455.817164	2580.972467
456.190556	2578.797209
456.563888	2582.641089
456.937160	2581.910121
457.310373	2578.701427
457.683526	2581.116140
458.056619	2580.536407
458.429653	2582.623445
458.802628	2581.267374
459.175542	2578.857703
459.548398	2581.027919
459.921194	2582.905749
460.293930	2582.764597
460.666607	2583.422467
461.039224	2582.716706
461.411782	2583.583784
461.784280	2583.430029
462.156719	2584.554207
462.529099	2586.064032
462.901419	2582.804926
463.273680	2582.346181
463.645882	2578.255285
464.018024	2580.770821
464.390106	2578.661098
464.762130	2582.139494
465.134094	2584.387848
465.505999	2586.852973
465.877845	2588.624938
466.249631	2590.530494
466.621358	2590.376739
466.993026	2590.200299
467.364634	2591.354723
467.736184	2590.580906
468.107674	2588.980340
468.479105	2587.941862
468.850477	2588.536718
469.221790	2590.152408
469.593043	2590.621235
469.964238	2588.982860
470.335373	2588.201481
470.706449	2587.467993
471.077467	2589.746595
471.448425	2588.965216
471.819324	2592.534353
472.190164	2596.413521
472.560945	2592.680547
472.931667	2592.799014
473.302330	2589.507140
473.672934	2588.461101
474.043479	2592.007552
474.413965	2590.369177
474.784393	2589.968406
475.154761	2593.222471
475.525070	2590.908581
475.895321	2591.785742
476.265513	2592.065526
476.635645	2591.208530
477.005719	2591.024527
477.375734	2595.344796
477.745691	2592.214240
478.115588	2593.897985
478.485427	2593.769436
478.855207	2595.692636
479.224928	2596.453850
479.594591	2596.685743
479.964194	2597.610795
480.333739	2599.034921
480.703226	2601.305961
481.072653	2603.128338
481.442022	2599.017277
481.811333	2598.503079
482.180584	2598.538367
482.549777	2597.071392
482.918912	2595.997626
483.287988	2599.541557
483.657005	2601.512648
484.025964	2599.473501
484.394864	2600.300251
484.763706	2599.967534
485.132489	2601.184973
485.501213	2599.498707
485.869879	2602.326794
486.238487	2601.986517
486.607036	2601.358893
486.975527	2603.030035
487.343959	2602.107504
487.712333	2601.288317
488.080648	2600.491814
488.448905	2605.681682
488.817104	2603.355190
489.185244	2604.812083
489.553326	2604.433997
489.921350	2603.660180
490.289315	2604.388626
490.657222	2609.054214
491.025070	2610.304420
491.392861	2610.279215
491.760593	2612.865327
492.128267	2607.443566
492.495883	2608.149327
492.863440	2608.164451
493.230939	2607.675459
493.598380	2607.420880
493.965763	2605.994234
494.333088	2608.000613
494.700354	2604.991044
495.067563	2607.186467
495.434713	2608.313165
495.801805	2609.850717
496.168839	2606.889039
496.535815	2606.689913
496.902733	2610.445573
497.269593	2608.787033
497.636395	2611.461365
498.003139	2610.276694
498.369825	2608.781992
498.736453	2609.233175
499.103023	2608.696292
499.469535	2611.622682
499.835989	2610.838783
500.202385	2609.167640
500.568723	2606.994903
500.935003	2609.081941
501.301226	2607.919955
501.667390	2613.750049
502.033497	2618.317334
502.399546	2615.816922
502.765537	2616.489916
503.131470	2617.732561
503.497345	2620.079218
503.863163	2617.044443
504.228923	2619.827160
504.594625	2620.265740
504.960269	2619.081069
505.325856	2625.929477
505.691385	2621.730196
506.056856	2624.533077
506.422270	2625.705145
506.787625	2625.846298
507.152924	2624.649024
507.518164	2627.976185
507.883347	2629.145733
508.248472	2631.620939
508.613540	2632.046917
508.978550	2636.803246
509.343503	2635.482463
509.708398	2636.473050
510.073236	2638.373565
510.438016	2643.074441
510.802738	2639.812814
511.167403	2644.775830
511.532010	2646.739360
511.896561	2648.697848
512.261053	2648.055101
512.625488	2654.263282
512.989866	2651.011738
513.354186	2655.536173
513.718449	2658.399549
514.082655	2662.543377
514.446803	2664.035559
514.810894	2668.718791
515.174927	2668.968328
515.538904	2674.047290
515.902822	2678.150789
516.266684	2680.421829
516.630488	2683.973322
516.994235	2688.477593
517.357925	2692.586133
517.721558	2698.771629
518.085133	2701.743389
518.448651	2705.788915
518.812112	2702.963349
519.175516	2713.663198
519.538863	2717.665874
519.902152	2722.946482
520.265385	2732.464181
520.628560	2737.606158
520.991678	2743.476582
521.354739	2751.219794
521.717743	2759.031062
522.080690	2762.312853
522.443580	2772.584204
522.806413	2785.141718
523.169189	2791.647327
523.531908	2798.989768
523.894569	2807.554688
524.257174	2821.075063
524.619722	2829.503872
524.982213	2838.010819
525.344647	2849.073631
525.707025	2864.567618
526.069345	2875.809391
526.431608	2885.874054
526.793815	2904.352404
527.155964	2909.711150
527.518057	2926.142791
527.880093	2940.757096
528.242072	2958.202009
528.603995	2969.106025
528.965860	2984.985659
529.327669	3006.874349
529.689421	3024.208357
530.051117	3034.756971
530.412755	3058.528532
530.774337	3076.028898
531.135862	3092.667226
531.497331	3119.430712
531.858743	3134.332363
532.220098	3172.214113
532.581396	3178.669311
532.942638	3212.245916
533.303824	3236.980337
533.664953	3269.296654
534.026025	3288.299283
534.387040	3319.302380
534.747999	3359.072042
535.108902	3389.646640
535.469748	3407.154568
535.830537	3450.556382
536.191270	3482.272801
536.551947	3525.583874
536.912567	3531.698794
537.273131	3590.491251
537.633638	3610.386164
537.994089	3671.971420
538.354483	3689.698638
538.714821	3756.640120
539.075103	3814.860406
539.435328	3848.482381
539.795497	3866.607850
540.155609	3938.288016
540.515665	3998.376050
540.875665	4003.732276
541.235609	4064.982295
541.595496	4124.301552
541.955328	4198.532543
542.315102	4246.017691
542.674821	4268.770939
543.034483	4314.290038
543.394090	4367.716186
543.753640	4410.583638
544.113134	4508.127444
544.472571	4554.296852
544.831953	4655.762676
545.191278	4674.949307
545.550548	4743.488835
545.909761	4790.570691
546.268918	4902.106220
546.628019	4954.012461
546.987064	5030.232186
547.346053	5064.708638
547.704986	5130.599039
548.063863	5234.315738
548.422684	5272.608343
548.781449	5317.595600
549.140158	5441.476914
549.498811	5498.479761
549.857408	5511.130537
550.215949	5645.162215
550.574434	5682.242422
550.932864	5796.653929
551.291237	5882.043513
551.649555	5960.715760
552.007817	6059.063631
552.366022	6124.384382
552.724173	6192.596234
553.082267	6278.610922
553.440305	6441.427588
553.798288	6414.744761
554.156215	6583.951090
554.514086	6691.425969
554.871902	6660.831207
555.229661	6793.227030
555.587365	6890.208748
555.945014	6931.437824
556.302606	7105.231603
556.660143	7153.745147
557.017625	7328.622774
557.375050	7338.112746
557.732421	7492.445151
558.089735	7574.230310
558.446994	7663.494021
558.804197	7790.092518
559.161345	7898.603354
559.518437	7892.254021
559.875474	8085.080676
560.232455	8185.313938
560.589381	8291.959548
560.946251	8351.341820
561.303065	8559.899395
561.659825	8696.343265
562.016528	8692.590126
562.373177	8738.893124
562.729770	8908.790091
563.086307	9031.249801
563.442789	9173.216255
563.799216	9231.383608
564.155587	9314.759252
564.511904	9451.145148
564.868164	9508.929374
565.224370	9652.992948
565.580520	9693.009628
565.936615	9874.050065
566.292654	9852.849493
566.648638	10107.652093
567.004567	10131.499272
567.360441	10231.049457
567.716260	10227.901257
568.072023	10490.908335
568.427732	10518.788436
568.783385	10526.093068
569.138982	10717.122552
569.494525	10864.994718
569.850013	10900.882692
570.205445	11030.647033
570.560823	11039.514423
570.916145	11100.540111
571.271412	11228.255223
571.626625	11294.735439
571.981782	11407.516133
572.336884	11418.863770
572.691931	11603.022162
573.046923	11549.785056
573.401860	11661.741522
573.756743	11775.056578
574.111570	11818.924698
574.466342	11892.795246
574.821059	12055.569063
575.175722	11998.508243
575.530330	12138.591826
575.884882	12234.209911
576.239380	12312.811582
576.593823	12351.136954
576.948211	12428.059921
577.302544	12450.425000
577.656823	12495.785302
578.011047	12665.833503
578.365216	12701.277856
578.719330	12737.788413
579.073389	12761.610385
579.427394	12987.113800
579.781344	12925.095005
580.135239	13005.317406
580.489080	13057.369840
580.842866	12985.858552
581.196597	13245.898912
581.550273	13260.906427
581.903895	13367.368034
582.257463	13601.766565
582.610975	13449.599336
582.964434	13701.344477
583.317837	13635.428870
583.671186	13776.422381
584.024481	13858.452036
584.377721	13780.921611
584.730906	13916.158124
585.084037	14036.553481
585.437113	14065.895517
585.790135	14254.646399
586.143103	14028.548129
586.496016	14096.762502
586.848874	14379.397313
587.201679	14402.836158
587.554428	14258.336524
587.907124	14557.453388
588.259765	14490.229601
588.612352	14646.112160
588.964884	14434.151806
589.317362	14621.796155
589.669786	14721.056474
590.022155	14842.505432
590.374470	15046.188212
590.726731	15009.228992
591.078937	14891.540735
591.431090	15030.684143
591.783188	14917.732050
592.135232	14975.337315
592.487222	15151.918852
592.839157	15224.554317
593.191038	15234.213168
593.542866	15205.854157
593.894639	15094.374081
594.246358	15311.768799
594.598022	15295.639628
594.949633	15203.174784
595.301190	15218.961157
595.652692	15413.017854
596.004141	15667.149981
596.355535	15226.049019
596.706876	15293.519822
597.058162	15278.605569
597.409395	15499.917264
597.760573	15655.943496
598.111698	15540.065013
598.462768	15556.385748
598.813785	15562.692232
599.164748	15489.668598
599.515657	15564.930504
599.866511	15465.385360
600.217312	15796.258972
600.568060	15478.169726
600.918753	15781.616941
601.269392	15768.078922
601.619978	15612.763493
601.970510	15866.454519
602.320988	15849.642271
602.671412	16075.032259
603.021783	16039.877773
603.372100	15877.270314
603.722363	16042.451282
604.072572	16032.810075
604.422728	16169.755540
604.772830	16050.345729
605.122878	16010.424831
605.472872	16078.447641
605.822813	16118.590349
606.172701	16114.877539
606.522534	16332.809140
606.872314	16403.097948
607.222041	16275.334945
607.571714	16509.110893
607.921333	16398.301291
608.270899	16507.976634
608.620411	16720.615023
608.969870	16521.827204
609.319276	16574.401397
609.668627	16647.513252
610.017926	16802.193496
610.367171	16940.550483
610.716362	17014.078233
611.065500	16865.807816
611.414585	17019.610899
611.763616	17031.054318
612.112594	17031.248403
612.461518	17014.993202
612.810389	17233.746512
613.159207	17109.441740
613.507971	17058.516004
613.856682	17379.529119
614.205340	17332.923652
614.553945	17508.194489
614.902496	17270.778828
615.250994	17542.708749
615.599439	17507.173655
615.947830	17508.675919
616.296169	17559.445379
616.644454	17565.056184
616.992686	17551.167805
617.340864	17770.112678
617.688990	17573.041371
618.037063	17752.634998
618.385082	17625.187067
618.733048	17908.058812
619.080961	17793.785937
619.428821	17860.024178
619.776628	17784.207744
620.124382	17718.375316
620.472083	17766.036905
620.819731	17821.900452
621.167326	17544.881486
621.514868	17607.739633
621.862357	17401.934527
622.209793	17447.793904
622.557176	17308.814334
622.904506	17152.236095
623.251783	17091.742249
623.599007	16899.379380
623.946179	16866.692538
624.293297	16834.479565
624.640363	16615.017974
624.987376	16631.757125
625.334336	16441.703105
625.681243	16305.387784
626.028097	16314.910524
626.374899	16280.948270
626.721647	16155.733570
627.068343	16000.929818
627.414987	15942.734738
627.761577	15931.568582
628.108115	16001.272617
628.454600	15716.432301
628.801032	15810.522917
629.147412	15753.147024
629.493739	15777.125273
629.840014	15608.612102
630.186236	15712.343925
630.532405	15486.011241
630.878521	15682.933833
631.224585	15566.420165
631.570597	15409.524334
631.916556	15442.664879
632.262462	15428.325317
632.608316	15362.813002
632.954117	15303.576924
633.299866	15309.502801
633.645562	15243.461165
633.991206	15000.394370
634.336797	14871.512231
634.682336	14852.476834
635.027823	14755.621145
635.373257	14655.082893
635.718639	14544.948805
636.063968	14501.292413
636.409245	14268.287762
636.754470	14292.810455
637.099642	14151.141429
637.444762	13936.655456
637.789829	13988.470956
638.134845	13829.717459
638.479808	13847.782434
638.824719	13813.253051
639.169577	13663.137572
639.514383	13720.047158
639.859137	13530.877859
640.203839	13610.162607
640.548489	13451.353658
640.893086	13440.187502
641.237632	13323.187362
