Dividing Wavelength (nm)	Counts (n)	Blue Motor Position (mm): 31.000000	Red Motor Position (mm): 0.000000	
326.493990	2152.459266
326.888308	2152.459266
327.282561	2152.459266
327.676750	2128.783487
328.070874	2133.784312
328.464933	2136.337656
328.858929	2144.889974
329.252859	2157.697025
329.646726	2168.918634
330.040528	2186.313135
330.434265	2206.296269
330.827938	2223.123640
331.221547	2242.839593
331.615091	2262.931112
332.008571	2285.636469
332.401986	2304.003913
332.795338	2322.469659
333.188625	2341.316013
333.581847	2364.825434
333.975006	2383.364277
334.368100	2401.189797
334.761129	2420.530184
335.154095	2434.136258
335.546996	2457.985957
335.939833	2488.220277
336.332606	2501.957421
336.725315	2516.576768
337.117960	2524.602284
337.510540	2529.414066
337.903056	2541.253216
338.295508	2547.542055
338.687896	2552.855431
339.080220	2561.110321
339.472480	2566.277503
339.864676	2570.534758
340.256807	2573.768658
340.648875	2579.712178
341.040879	2578.333423
341.432818	2579.757549
341.824694	2580.647312
342.216506	2576.619430
342.608253	2580.211253
342.999937	2576.831159
343.391557	2579.114802
343.783113	2576.415264
344.174605	2574.862588
344.566033	2572.488205
344.957397	2572.659604
345.348697	2571.429562
345.739934	2567.807493
346.131106	2569.004768
346.522215	2566.219530
346.913260	2564.145095
347.304241	2561.964796
347.695159	2561.420352
348.086012	2560.797769
348.476802	2558.188972
348.867528	2556.545556
349.258191	2556.212840
349.648789	2559.187120
350.039324	2553.596481
350.429796	2556.240566
350.820203	2552.069011
351.210548	2553.873744
351.600828	2550.697817
351.991045	2550.465924
352.381198	2547.441232
352.771288	2548.114226
353.161314	2546.122970
353.551276	2548.661191
353.941175	2547.103475
354.331010	2548.956099
354.720782	2549.039278
355.110490	2551.143959
355.500135	2548.063814
355.889717	2550.176058
356.279235	2550.042467
356.668689	2550.712941
357.058080	2552.255534
357.447408	2546.498536
357.836672	2545.694472
358.225873	2547.234545
358.615010	2549.790410
359.004084	2553.437684
359.393095	2551.484237
359.782043	2553.294012
360.170927	2553.896429
360.559748	2555.255020
360.948505	2554.907181
361.337199	2553.593960
361.725830	2556.406924
362.114398	2555.391132
362.502903	2554.768549
362.891344	2559.393808
363.279722	2557.226112
363.668037	2556.462377
364.056289	2559.242573
364.444478	2556.472459
364.832603	2558.136040
365.220665	2557.616801
365.608665	2561.417831
365.996601	2561.732903
366.384474	2561.241391
366.772284	2561.329611
367.160031	2561.621998
367.547715	2563.945970
367.935336	2562.287430
368.322893	2557.962120
368.710388	2562.625187
369.097820	2566.138872
369.485189	2563.467060
369.872495	2568.286403
370.259738	2564.891186
370.646918	2562.116031
371.034035	2562.594940
371.421090	2563.983778
371.808081	2565.891855
372.195010	2564.838254
372.581875	2564.772719
372.968678	2565.864129
373.355418	2561.647203
373.742096	2565.425548
374.128710	2567.600806
374.515262	2566.781619
374.901751	2567.953687
375.288177	2567.361351
375.674540	2566.486711
376.060841	2567.225240
376.447079	2567.782288
376.833254	2567.898234
377.219367	2566.602658
377.605417	2567.046279
377.991404	2563.567883
378.377329	2564.520661
378.763191	2566.983265
379.148991	2570.675910
379.534727	2569.148440
379.920402	2569.390416
380.306013	2570.353276
380.691563	2571.931157
381.077049	2569.629871
381.462474	2568.440158
381.847835	2572.445355
382.233134	2569.130796
382.618371	2571.762279
383.003545	2573.456106
383.388657	2574.756724
383.773706	2571.817731
384.158693	2573.945098
384.543618	2572.669686
384.928480	2571.414439
385.313280	2575.601117
385.698017	2575.165057
386.082692	2572.198338
386.467305	2571.850499
386.851856	2574.860068
387.236344	2574.751683
387.620770	2576.921900
388.005133	2576.074986
388.389435	2577.539441
388.773674	2574.789492
389.157851	2574.250088
389.541965	2575.457444
389.926018	2576.702609
390.310008	2577.244533
390.693936	2576.765624
391.077802	2576.276632
391.461606	2577.216807
391.845348	2577.380645
392.229027	2579.235789
392.612645	2577.420974
392.996200	2579.114802
393.379694	2578.640933
393.763125	2579.576067
394.146494	2579.165213
394.529801	2579.767631
394.913047	2578.318299
395.296230	2580.196129
395.679351	2578.668659
396.062410	2578.842579
396.445408	2582.820050
396.828343	2583.666963
397.211217	2575.908628
397.594028	2580.082703
397.976778	2577.718402
398.359466	2581.269895
398.742092	2579.099678
399.124656	2581.753846
399.507158	2581.108578
399.889598	2581.728640
400.271977	2582.487333
400.654294	2585.426326
401.036549	2579.974318
401.418742	2581.574885
401.800874	2583.510688
402.182944	2588.372881
402.564952	2585.824577
402.946898	2585.363312
403.328783	2584.647468
403.710606	2587.490679
404.092367	2585.633013
404.474067	2586.424475
404.855705	2583.790472
405.237282	2587.268868
405.618797	2586.943713
406.000250	2586.374063
406.381642	2585.396079
406.762972	2590.147367
407.144240	2587.498240
407.525447	2588.791296
407.906593	2587.720051
408.287677	2588.181317
408.668700	2589.255082
409.049661	2589.446646
409.430560	2590.225505
409.811399	2589.444126
410.192176	2590.356575
410.572891	2591.465628
410.953545	2590.028900
411.334138	2589.723910
411.714669	2591.102665
412.095139	2589.779362
412.475547	2590.343972
412.855894	2592.501586
413.236180	2592.504106
413.616405	2591.453026
413.996568	2590.396904
414.376670	2593.141812
414.756711	2590.858169
415.136691	2593.973602
415.516609	2592.609970
415.896466	2595.370002
416.276262	2593.706421
416.655997	2589.577716
417.035670	2592.236925
417.415283	2592.446133
417.794834	2590.056626
418.174324	2596.342945
418.553753	2598.979468
418.933121	2597.978799
419.312428	2596.017790
419.691674	2596.756319
420.070859	2599.476022
420.449983	2598.666917
420.829045	2598.578697
421.208047	2600.718666
421.586988	2602.886362
421.965867	2602.167998
422.344686	2601.157247
422.723444	2607.216714
423.102141	2606.160592
423.480777	2608.371138
423.859352	2609.712085
424.237866	2612.013372
424.616319	2614.080245
424.994712	2616.144597
425.373044	2617.172992
425.751314	2622.877058
426.129524	2625.201030
426.507673	2629.291926
426.885762	2631.174797
427.263789	2634.968266
427.641756	2638.900366
428.019662	2644.861530
428.397508	2647.881181
428.775292	2655.440391
429.153016	2659.664878
429.530679	2664.927843
429.908282	2675.597445
430.285824	2678.753207
430.663305	2690.509178
431.040726	2693.085208
431.418086	2699.532843
431.795385	2714.817622
432.172624	2726.608881
432.549802	2731.408059
432.926920	2743.796695
433.303977	2754.536873
433.680974	2768.815941
434.057910	2784.471245
434.434786	2793.421813
434.811601	2807.872281
435.188355	2834.519820
435.565050	2843.011644
435.941683	2853.792151
436.318257	2882.935062
436.694770	2895.485014
437.071222	2924.252358
437.447614	2929.991712
437.823946	2945.347067
438.200218	2967.936477
438.576429	2981.688745
438.952580	3005.104904
439.328670	3030.565252
439.704700	3055.831515
440.080670	3066.957342
440.456580	3101.504369
440.832429	3132.078967
441.208218	3128.305663
441.583947	3164.085253
441.959616	3189.641382
442.335224	3218.728840
442.710773	3249.605907
443.086261	3291.175262
443.461689	3298.437044
443.837057	3327.277485
444.212365	3377.396637
444.587612	3404.961666
444.962800	3417.806526
445.337927	3461.573823
445.712995	3440.242181
446.088002	3544.909138
446.462949	3582.064962
446.837837	3619.694655
447.212664	3641.497645
447.587431	3783.212042
447.962139	3963.937407
448.336786	4162.473169
448.711374	4184.359338
449.085901	4034.097666
449.460369	4033.288561
449.834776	4035.993140
450.209124	4201.612688
450.583412	4240.850508
450.957640	4343.067464
451.331808	4296.560300
451.705917	4242.854367
452.079965	4269.753964
452.453954	4323.946368
452.827883	4338.422041
453.201752	4370.261969
453.575562	4424.414043
453.949311	4541.885531
454.323001	4578.537240
454.696632	4604.582361
455.070202	4749.127366
455.443713	4800.337927
455.817164	4897.143204
456.190556	4979.003981
456.563888	4993.961084
456.937160	5083.749076
457.310373	4992.136187
457.683526	5064.000355
458.056619	5093.682669
458.429653	5103.994349
458.802628	5169.110934
459.175542	5220.500456
459.548398	5359.923648
459.921194	5545.276792
460.293930	5618.698678
460.666607	5859.113825
461.039224	6060.870884
461.411782	6196.246030
461.784280	6155.669783
462.156719	6188.013826
462.529099	6185.899062
462.901419	6083.218319
463.273680	5991.204659
463.645882	6008.314335
464.018024	6031.128077
464.390106	6117.682168
464.762130	6373.457711
465.134094	6741.144349
465.505999	7333.910945
465.877845	8008.636619
466.249631	8354.535391
466.621358	8324.240577
466.993026	8162.084301
467.364634	7987.826736
467.736184	7735.065803
468.107674	7601.586132
468.479105	7540.686473
468.850477	7490.519430
469.221790	7341.765062
469.593043	7140.922973
469.964238	7058.275776
470.335373	7042.320524
470.706449	7208.781944
471.077467	7404.698827
471.448425	8057.394659
471.819324	8634.135427
472.190164	8664.725148
472.560945	8199.356072
472.931667	7742.861948
473.302330	7565.068013
473.672934	7454.586085
474.043479	7533.480143
474.413965	7442.497398
474.784393	7397.978969
475.154761	7550.655354
475.525070	7567.689413
475.895321	7533.359155
476.265513	7630.993702
476.635645	7793.003784
477.005719	7794.329608
477.375734	7878.229531
477.745691	7982.611663
478.115588	8192.550515
478.485427	8428.330321
478.855207	8903.065861
479.224928	9335.072581
479.594591	9711.513183
479.964194	9727.745698
480.333739	9807.020363
480.703226	9817.523607
481.072653	9920.534545
481.442022	10033.342965
481.811333	10181.149596
482.180584	10027.769969
482.549777	9965.095824
482.918912	9911.614223
483.287988	9898.723993
483.657005	9799.695567
484.025964	9728.010359
484.394864	9788.915059
484.763706	9745.165405
485.132489	9658.024020
485.501213	9652.652671
485.869879	9706.797183
486.238487	9647.094798
486.607036	9733.343900
486.975527	9670.818468
487.343959	9729.810051
487.712333	9775.918964
488.080648	9815.713833
488.448905	9917.729143
488.817104	9929.938817
489.185244	10098.051216
489.553326	10311.972579
489.921350	10777.480287
490.289315	11405.242573
490.657222	11697.947088
491.025070	11869.467307
491.392861	11782.923298
491.760593	11625.727518
492.128267	11371.754188
492.495883	11139.556121
492.863440	10907.226984
493.230939	10675.812817
493.598380	10494.422019
493.965763	10472.387136
494.333088	10342.053144
494.700354	10280.346901
495.067563	10252.991079
495.434713	10249.845399
495.801805	10296.781062
496.168839	10249.248023
496.535815	10222.915555
496.902733	10266.650086
497.269593	10230.641124
497.636395	10238.981713
498.003139	10349.582108
498.369825	10273.901785
498.736453	10367.954593
499.103023	10312.217075
499.469535	10318.599176
499.835989	10362.893274
500.202385	10339.391415
500.568723	10359.626607
500.935003	10420.125494
501.301226	10389.621472
501.667390	10553.446369
502.033497	10654.977728
502.399546	10586.478530
502.765537	10490.376493
503.131470	10592.658984
503.497345	10686.368993
503.863163	10459.300300
504.228923	10591.365928
504.594625	10718.360155
504.960269	10620.425660
505.325856	10771.594740
505.691385	10650.954887
506.056856	10722.050280
506.422270	10819.815897
506.787625	10756.723336
507.152924	10808.450616
507.518164	10868.578978
507.883347	10733.155942
508.248472	10813.978241
508.613540	10915.915413
508.978550	10994.443987
509.343503	10971.572272
509.708398	11025.968843
510.073236	11149.832513
510.438016	11171.887561
510.802738	11080.441030
511.167403	11205.401152
511.532010	11261.695717
511.896561	11369.962057
512.261053	11556.560367
512.625488	11479.942390
512.989866	11467.636934
513.354186	11442.363109
513.718449	11458.194853
514.082655	11596.967736
514.446803	11554.049873
514.810894	11665.406440
515.174927	11657.108701
515.538904	11643.341310
515.902822	11795.977366
516.266684	11665.681183
516.630488	11770.544745
516.994235	11758.118301
517.357925	11878.760674
517.721558	11933.540372
518.085133	11998.828356
518.448651	12033.002338
518.812112	11995.231492
519.175516	11996.741318
519.538863	12088.686923
519.902152	12098.681011
520.265385	12208.069008
520.628560	12228.261350
520.991678	12175.961899
521.354739	12229.904766
521.717743	12306.288329
522.080690	12276.923608
522.443580	12411.950913
522.806413	12426.807194
523.169189	12423.520362
523.531908	12482.075884
523.894569	12440.569544
524.257174	12457.283489
524.619722	12565.423801
524.982213	12545.929659
525.344647	12523.088191
525.707025	12534.950026
526.069345	12645.633600
526.431608	12618.509672
526.793815	12699.062269
527.155964	12596.709202
527.518057	12625.539561
527.880093	12591.889859
528.242072	12706.079555
528.603995	12622.419087
528.965860	12638.737302
529.327669	12667.776868
529.689421	12621.098304
530.051117	12621.473870
530.412755	12661.044407
530.774337	12663.428873
531.135862	12628.715488
531.497331	12683.903519
531.858743	12642.775266
532.220098	12737.617014
532.581396	12663.123883
532.942638	12593.447575
533.303824	12651.670382
533.664953	12636.690593
534.026025	12580.128847
534.387040	12696.077906
534.747999	12667.791992
535.108902	12715.181358
535.469748	12591.005136
535.830537	12610.222015
536.191270	12647.652582
536.551947	12587.715783
536.912567	12645.245431
537.273131	12665.470540
537.633638	12557.115980
537.994089	12614.602778
538.354483	12528.358717
538.714821	12655.206751
539.075103	12746.549938
539.435328	12669.072445
539.795497	12649.505206
540.155609	12652.204744
540.515665	12742.529618
540.875665	12605.586674
541.235609	12704.544524
541.595496	12659.801763
541.955328	12848.827388
542.315102	12692.738142
542.674821	12634.767393
543.034483	12649.469918
543.394090	12649.893375
543.753640	12614.045730
544.113134	12861.347094
544.472571	12620.858849
544.831953	12906.193198
545.191278	12717.769991
545.550548	12652.373623
545.909761	12760.720622
546.268918	12806.453969
546.628019	12870.131304
546.987064	12749.894744
547.346053	12603.338319
547.704986	12800.427270
548.063863	12682.978468
548.422684	12740.828229
548.781449	12696.453472
549.140158	12794.067854
549.498811	12744.064649
549.857408	12618.335752
550.215949	12817.990650
550.574434	12780.872634
550.932864	12730.491343
551.291237	12935.242847
551.649555	12821.784118
552.007817	12877.493909
552.366022	12786.032255
552.724173	12833.842558
553.082267	12920.754571
553.440305	13014.704035
553.798288	12839.284484
554.156215	12917.432451
554.514086	12963.090181
554.871902	12900.552147
555.229661	12913.507912
555.587365	12882.189744
555.945014	12893.003019
556.302606	12875.850493
556.660143	12944.110237
557.017625	12957.134058
557.375050	12924.364037
557.732421	13031.296993
558.089735	13019.225950
558.446994	12988.918533
558.804197	13109.989404
559.161345	13096.786622
559.518437	12916.053695
559.875474	13018.363912
560.232455	13049.049416
560.589381	13084.501330
560.946251	13029.772044
561.303065	13200.957025
561.659825	13148.849139
562.016528	13065.758320
562.373177	13019.296526
562.729770	13145.239673
563.086307	13027.543854
563.442789	13134.605358
563.799216	13172.366121
564.155587	13112.686422
564.511904	13134.726346
564.868164	13147.306546
565.224370	13209.242162
565.580520	13152.894665
565.936615	13220.486455
566.292654	13152.559428
566.648638	13219.987381
567.004567	13223.498545
567.360441	13226.873597
567.716260	13196.709853
568.072023	13283.427782
568.427732	13268.334567
568.783385	13169.303620
569.138982	13276.859158
569.494525	13269.801543
569.850013	13222.092063
570.205445	13209.302656
570.560823	13230.231006
570.916145	13175.108509
571.271412	13190.841950
571.626625	13141.219352
571.981782	13134.985966
572.336884	13092.783946
572.691931	13177.903829
573.046923	13059.993761
573.401860	13047.826936
573.756743	13049.528326
574.111570	13070.960791
574.466342	13042.392572
574.821059	13096.365686
575.175722	12962.714615
575.530330	12986.987771
575.884882	12925.881425
576.239380	12923.423862
576.593823	12901.933423
576.948211	12891.954459
577.302544	12773.668825
577.656823	12790.846557
578.011047	12848.822347
578.365216	12794.763534
578.719330	12729.689799
579.073389	12691.603882
579.427394	12714.712531
579.781344	12704.549565
580.135239	12640.005152
580.489080	12659.562308
580.842866	12541.180892
581.196597	12630.868060
581.550273	12629.796815
581.903895	12593.051845
582.257463	12697.078575
582.610975	12534.370293
582.964434	12598.874378
583.317837	12513.028569
583.671186	12473.727733
584.024481	12530.443235
584.377721	12413.266655
584.730906	12486.539826
585.084037	12502.512722
585.437113	12419.235381
585.790135	12446.936521
586.143103	12363.512987
586.496016	12375.183258
586.848874	12388.232285
587.201679	12386.273796
587.554428	12259.138417
587.907124	12303.503091
588.259765	12248.995615
588.612352	12316.002632
588.964884	12172.206239
589.317362	12221.493601
589.669786	12213.342055
590.022155	12179.825943
590.374470	12277.626849
590.726731	12159.752069
591.078937	12042.376363
591.431090	12070.435426
591.783188	12004.789520
592.135232	11928.118611
592.487222	11992.640339
592.839157	11997.444559
593.191038	11923.367324
593.542866	11871.987884
593.894639	11737.308418
594.246358	11788.468568
594.598022	11794.268415
594.949633	11701.889271
595.301190	11691.028105
595.652692	11654.434369
596.004141	11736.045609
596.355535	11513.516475
596.706876	11498.171203
597.058162	11463.450256
597.409395	11555.279914
597.760573	11582.900396
598.111698	11479.241670
598.462768	11480.988430
598.813785	11485.212917
599.164748	11355.562002
599.515657	11440.482759
599.866511	11312.031638
600.217312	11439.436719
600.568060	11211.753006
600.918753	11376.747451
601.269392	11367.738909
601.619978	11275.667275
601.970510	11319.026239
602.320988	11355.163750
602.671412	11427.968094
603.021783	11352.033194
603.372100	11275.047213
603.722363	11294.682507
604.072572	11294.753083
604.422728	11305.742799
604.772830	11253.715570
605.122878	11261.148752
605.472872	11231.274874
605.822813	11290.594131
606.172701	11244.717111
606.522534	11284.547267
606.872314	11333.270019
607.222041	11273.189548
607.571714	11345.215033
607.921333	11217.136958
608.270899	11271.397418
608.620411	11336.418220
608.969870	11280.542071
609.319276	11263.881057
609.668627	11276.768767
610.017926	11362.682631
610.367171	11385.635005
610.716362	11381.586958
611.065500	11355.806497
611.414585	11363.297652
611.763616	11423.967939
612.112594	11390.492157
612.461518	11421.654049
612.810389	11469.154321
613.159207	11414.291444
613.507971	11404.307439
613.856682	11509.496155
614.205340	11462.401696
614.553945	11599.505957
614.902496	11472.305042
615.250994	11551.362938
615.599439	11539.312059
615.947830	11569.274157
616.296169	11531.044567
616.644454	11543.952441
616.992686	11555.358052
617.340864	11656.541571
617.688990	11543.929756
618.037063	11673.966320
618.385082	11651.167701
618.733048	11690.491222
619.080961	11673.900785
619.428821	11655.682055
619.776628	11667.430464
620.124382	11606.016607
620.472083	11622.881787
620.819731	11646.880200
621.167326	11566.115874
621.514868	11553.782691
621.862357	11456.271652
622.209793	11450.224788
622.557176	11363.358146
622.904506	11313.317132
623.251783	11235.096069
623.599007	11173.140288
623.946179	11122.007864
624.293297	11099.025244
624.640363	10958.815632
624.987376	10951.631988
625.334336	10887.150589
625.681243	10798.196909
626.028097	10773.954000
626.374899	10736.659544
626.721647	10706.180728
627.068343	10662.123564
627.414987	10607.306057
627.761577	10541.763495
628.108115	10588.386606
628.454600	10458.042532
628.801032	10474.554832
629.147412	10463.050919
629.493739	10442.198186
629.840014	10355.145021
630.186236	10401.785776
630.532405	10297.204519
630.878521	10338.284882
631.224585	10292.932141
631.570597	10216.263753
631.916556	10219.835410
632.262462	10196.832625
632.608316	10179.012147
632.954117	10155.510287
633.299866	10135.454057
633.645562	10114.765161
633.991206	10014.395788
634.336797	9923.153424
634.682336	9908.047607
635.027823	9849.933185
635.373257	9820.081993
635.718639	9753.014482
636.063968	9728.358198
636.409245	9599.904557
636.754470	9588.120860
637.099642	9541.104539
637.444762	9438.300288
637.789829	9445.231875
638.134845	9369.473415
638.479808	9346.528603
