Dividing Wavelength (nm)	Counts (n)	Blue Motor Position (mm): 7.000000	Red Motor Position (mm): 0.000000	
326.493990	2105.140476
326.888308	2105.140476
327.282561	2105.140476
327.676750	2080.524522
328.070874	2082.288925
328.464933	2087.579616
328.858929	2101.122676
329.252859	2109.725405
329.646726	2128.349948
330.040528	2140.650363
330.434265	2164.114414
330.827938	2182.307938
331.221547	2200.992975
331.615091	2222.342262
332.008571	2243.757083
332.401986	2262.681575
332.795338	2282.957095
333.188625	2304.318985
333.581847	2321.569813
333.975006	2337.704026
334.368100	2356.270596
334.761129	2373.002185
335.154095	2388.244114
335.546996	2410.372259
335.939833	2434.181628
336.332606	2447.707044
336.725315	2458.096862
337.117960	2465.532564
337.510540	2474.087402
337.903056	2482.488485
338.295508	2488.472335
338.687896	2498.068171
339.080220	2504.127638
339.472480	2510.643329
339.864676	2507.600993
340.256807	2515.240862
340.648875	2515.114833
341.040879	2516.538959
341.432818	2520.894516
341.824694	2519.687159
342.216506	2516.365039
342.608253	2515.470234
342.999937	2517.660616
343.391557	2515.155162
343.783113	2517.685821
344.174605	2511.739780
344.566033	2510.353463
344.957397	2509.403206
345.348697	2508.442866
345.739934	2505.256857
346.131106	2506.355828
346.522215	2503.852895
346.913260	2501.831393
347.304241	2501.042452
347.695159	2498.529437
348.086012	2498.179077
348.476802	2493.954590
348.867528	2495.267810
349.258191	2494.483911
349.648789	2494.801503
350.039324	2492.858139
350.429796	2491.000473
350.820203	2490.085504
351.210548	2485.611480
351.600828	2488.116933
351.991045	2490.486276
352.381198	2486.415544
352.771288	2488.789928
353.161314	2486.541573
353.551276	2487.118785
353.941175	2486.080307
354.331010	2488.681543
354.720782	2487.126347
355.110490	2489.747747
355.500135	2488.482417
355.889717	2487.355719
356.279235	2484.588126
356.668689	2488.467294
357.058080	2488.313538
357.447408	2487.002838
357.836672	2485.344299
358.225873	2484.578043
358.615010	2487.355719
359.004084	2492.497696
359.393095	2492.863180
359.782043	2493.967193
360.170927	2492.336379
360.559748	2494.582213
360.948505	2493.947028
361.337199	2495.363592
361.725830	2493.916781
362.114398	2496.321411
362.502903	2494.244456
362.891344	2497.743017
363.279722	2495.257728
363.668037	2497.596823
364.056289	2498.105980
364.444478	2498.005157
364.832603	2497.178408
365.220665	2497.054899
365.608665	2498.158912
365.996601	2499.514982
366.384474	2500.747544
366.772284	2500.089674
367.160031	2498.370640
367.547715	2501.823831
367.935336	2500.102277
368.322893	2499.270486
368.710388	2502.973214
369.097820	2503.195025
369.485189	2503.063955
369.872495	2501.513800
370.259738	2504.672083
370.646918	2497.962307
371.034035	2499.888028
371.421090	2503.068996
371.808081	2501.153357
372.195010	2502.126300
372.581875	2503.396671
372.968678	2503.028667
373.355418	2500.775271
373.742096	2500.384581
374.128710	2502.527072
374.515262	2504.079747
374.901751	2505.486229
375.288177	2503.048831
375.674540	2506.360869
376.060841	2506.655777
376.447079	2505.541682
376.833254	2504.876249
377.219367	2504.087309
377.605417	2502.758965
377.991404	2502.330467
378.377329	2505.723163
378.763191	2503.043790
379.148991	2504.057062
379.534727	2504.563698
379.920402	2509.103257
380.306013	2508.357166
380.691563	2509.299862
381.077049	2509.320027
381.462474	2504.782988
381.847835	2509.320027
382.233134	2506.917917
382.618371	2506.297855
383.003545	2509.892198
383.388657	2510.610562
383.773706	2508.899090
384.158693	2509.831704
384.543618	2509.032681
384.928480	2507.235509
385.313280	2509.685510
385.698017	2509.569564
386.082692	2509.778772
386.467305	2509.012516
386.851856	2510.739111
387.236344	2513.189112
387.620770	2512.679956
388.005133	2510.776920
388.389435	2510.550068
388.773674	2513.095851
389.157851	2511.137363
389.541965	2513.831859
389.926018	2513.136180
390.310008	2514.179699
390.693936	2513.970491
391.077802	2511.797754
391.461606	2512.669873
391.845348	2514.726664
392.229027	2514.073835
392.612645	2515.213135
392.996200	2513.332785
393.379694	2516.004597
393.763125	2513.660460
394.146494	2516.843949
394.529801	2514.676253
394.913047	2517.584998
395.296230	2517.950482
395.679351	2512.674914
396.062410	2515.205574
396.445408	2516.304545
396.828343	2518.290760
397.211217	2512.145593
397.594028	2515.271109
397.976778	2511.729698
398.359466	2515.576098
398.742092	2513.925121
399.124656	2517.222035
399.507158	2518.789834
399.889598	2516.541479
400.271977	2515.757580
400.654294	2516.556603
401.036549	2518.628517
401.418742	2519.455266
401.800874	2519.513240
402.182944	2516.725482
402.564952	2519.727489
402.946898	2517.136336
403.328783	2518.285719
403.710606	2518.809999
404.092367	2518.005935
404.474067	2520.239166
404.855705	2519.999711
405.237282	2519.926614
405.618797	2517.597601
406.000250	2520.193795
406.381642	2520.488703
406.762972	2522.691687
407.144240	2521.580113
407.525447	2523.936852
407.906593	2520.014834
408.287677	2524.382994
408.668700	2520.201357
409.049661	2521.832170
409.430560	2522.976512
409.811399	2522.802593
410.192176	2522.706811
410.572891	2523.614218
410.953545	2522.053981
411.334138	2523.563807
411.714669	2521.875020
412.095139	2525.602953
412.475547	2522.515247
412.855894	2522.827798
413.236180	2524.277130
413.616405	2525.194620
413.996568	2523.914167
414.376670	2524.224198
414.756711	2523.951976
415.136691	2525.655886
415.516609	2526.323838
415.896466	2524.408200
416.276262	2526.122192
416.655997	2523.223529
417.035670	2523.500792
417.415283	2522.369053
417.794834	2520.919722
418.174324	2524.156142
418.553753	2521.194464
418.933121	2527.208561
419.312428	2527.102697
419.691674	2524.655217
420.070859	2522.447191
420.449983	2526.414579
420.829045	2527.231246
421.208047	2526.202851
421.586988	2525.900382
421.965867	2526.961544
422.344686	2528.751154
422.723444	2525.771832
423.102141	2526.170083
423.480777	2527.566483
423.859352	2524.083046
424.237866	2524.778725
424.616319	2525.408869
424.994712	2527.483304
425.373044	2526.928777
425.751314	2528.604961
426.129524	2530.623943
426.507673	2526.767460
426.885762	2528.557070
427.263789	2526.890968
427.641756	2525.706297
428.019662	2530.243336
428.397508	2529.451874
428.775292	2528.136133
429.153016	2529.651000
429.530679	2528.945238
429.908282	2528.940197
430.285824	2526.775022
430.663305	2527.137985
431.040726	2526.255783
431.418086	2528.063037
431.795385	2528.380629
432.172624	2528.400794
432.549802	2528.214271
432.926920	2532.156453
433.303977	2529.325846
433.680974	2529.804755
434.057910	2529.444313
434.434786	2527.800897
434.811601	2530.896165
435.188355	2532.829447
435.565050	2529.845084
435.941683	2530.742410
436.318257	2527.773170
436.694770	2527.115300
437.071222	2525.466842
437.447614	2524.597243
437.823946	2527.289219
438.200218	2528.211751
438.576429	2530.142512
438.952580	2529.915661
439.328670	2527.657224
439.704700	2530.656710
440.080670	2530.051772
440.456580	2529.265352
440.832429	2527.876514
441.208218	2533.235260
441.583947	2535.153419
441.959616	2535.249201
442.335224	2532.554705
442.710773	2531.362472
443.086261	2530.344159
443.461689	2534.145189
443.837057	2529.935825
444.212365	2532.285003
444.587612	2531.813655
444.962800	2532.713501
445.337927	2531.307019
445.712995	2533.789787
446.088002	2534.704757
446.462949	2530.717204
446.837837	2530.175280
447.212664	2529.877852
447.587431	2531.717873
447.962139	2532.927750
448.336786	2533.396577
448.711374	2532.942873
449.085901	2534.926567
449.460369	2533.237781
449.834776	2535.962525
450.209124	2535.072761
450.583412	2534.430014
450.957640	2534.571166
451.331808	2531.133099
451.705917	2531.246525
452.079965	2532.509334
452.453954	2532.857174
452.827883	2533.847761
453.201752	2532.025383
453.575562	2532.413552
453.949311	2534.238450
454.323001	2535.392874
454.696632	2536.567463
455.070202	2537.535365
455.443713	2534.603934
455.817164	2529.421628
456.190556	2531.501103
456.563888	2531.460774
456.937160	2531.813655
457.310373	2533.842719
457.683526	2535.970086
458.056619	2534.606454
458.429653	2535.196269
458.802628	2535.289531
459.175542	2533.956145
459.548398	2536.131403
459.921194	2533.454551
460.293930	2534.697195
460.666607	2536.864891
461.039224	2534.142668
461.411782	2535.927237
461.784280	2536.305323
462.156719	2536.322967
462.529099	2537.464788
462.901419	2533.547812
463.273680	2538.896476
463.645882	2537.663914
464.018024	2534.780374
464.390106	2535.816331
464.762130	2537.482432
465.134094	2539.277083
465.505999	2536.827082
465.877845	2536.348173
466.249631	2537.505118
466.621358	2537.794984
466.993026	2535.755837
467.364634	2537.600900
467.736184	2538.450334
468.107674	2537.348842
468.479105	2534.122503
468.850477	2534.679551
469.221790	2537.744573
469.593043	2537.666435
469.964238	2540.363452
470.335373	2536.973276
470.706449	2538.165509
471.077467	2537.948739
471.448425	2538.273894
471.819324	2537.462268
472.190164	2538.878832
472.560945	2539.622402
472.931667	2538.962011
473.302330	2538.483102
473.672934	2538.823379
474.043479	2541.623740
474.413965	2539.967721
474.784393	2533.966228
475.154761	2536.005374
475.525070	2533.986392
475.895321	2537.111908
476.265513	2536.572504
476.635645	2541.235572
477.005719	2539.173740
477.375734	2540.507125
477.745691	2541.291024
478.115588	2540.456713
478.485427	2540.650798
478.855207	2538.790612
479.224928	2542.410160
479.594591	2543.201622
479.964194	2539.488812
480.333739	2545.069369
480.703226	2541.278421
481.072653	2541.515356
481.442022	2540.184491
481.811333	2540.708771
482.180584	2542.112732
482.549777	2541.207845
482.918912	2541.691796
483.287988	2542.911755
483.657005	2543.693134
484.025964	2541.800181
484.394864	2542.594162
484.763706	2541.951415
485.132489	2541.769934
485.501213	2538.954449
485.869879	2541.780016
486.238487	2541.525438
486.607036	2542.251364
486.975527	2543.246992
487.343959	2539.665252
487.712333	2542.228679
488.080648	2541.742208
488.448905	2543.713299
488.817104	2544.318237
489.185244	2545.969215
489.553326	2541.275901
489.921350	2544.512322
490.289315	2544.973587
490.657222	2542.662218
491.025070	2542.455531
491.392861	2544.489636
491.760593	2545.253371
492.128267	2543.809081
492.495883	2542.425284
492.863440	2542.493339
493.230939	2545.449976
493.598380	2542.727753
493.965763	2538.462937
494.333088	2541.112063
494.700354	2539.002340
495.067563	2539.355221
495.434713	2540.731456
495.801805	2543.627599
496.168839	2542.936961
496.535815	2545.308824
496.902733	2545.316386
497.269593	2544.918134
497.636395	2542.715150
498.003139	2539.892104
498.369825	2543.390665
498.736453	2545.031560
499.103023	2542.505942
499.469535	2545.364277
499.835989	2544.033412
500.202385	2541.167516
500.568723	2542.599204
500.935003	2544.197249
501.301226	2544.106509
501.667390	2544.824873
502.033497	2548.371325
502.399546	2544.232538
502.765537	2542.480737
503.131470	2541.694317
503.497345	2543.108360
503.863163	2541.268339
504.228923	2545.749925
504.594625	2546.806047
504.960269	2547.037940
505.325856	2542.944523
505.691385	2544.908052
506.056856	2545.323947
506.422270	2541.931251
506.787625	2543.481406
507.152924	2543.506611
507.518164	2545.659184
507.883347	2545.157589
508.248472	2545.971736
508.613540	2543.325130
508.978550	2547.171530
509.343503	2545.223124
509.708398	2546.818649
510.073236	2542.450490
510.438016	2547.945347
510.802738	2548.862837
511.167403	2545.946530
511.532010	2544.910573
511.896561	2546.934596
512.261053	2548.668753
512.625488	2543.294883
512.989866	2542.165664
513.354186	2543.330171
513.718449	2542.785726
514.082655	2545.364277
514.446803	2546.231355
514.810894	2545.949050
515.174927	2546.899308
515.538904	2550.750749
515.902822	2548.860317
516.266684	2548.278063
516.630488	2551.973229
516.994235	2551.864844
517.357925	2549.813095
517.721558	2554.599670
518.085133	2550.937272
518.448651	2553.057077
518.812112	2555.348282
519.175516	2553.099927
519.538863	2555.310473
519.902152	2553.775442
520.265385	2550.844011
520.628560	2555.575134
520.991678	2554.508930
521.354739	2555.985988
521.717743	2559.277861
522.080690	2561.296843
522.443580	2560.787687
522.806413	2558.171328
523.169189	2563.167111
523.531908	2561.337172
523.894569	2564.613923
524.257174	2567.063923
524.619722	2564.941598
524.982213	2565.992678
525.344647	2564.931515
525.707025	2568.891342
526.069345	2568.483008
526.431608	2568.112483
526.793815	2568.969479
527.155964	2570.408729
527.518057	2570.277659
527.880093	2570.670869
528.242072	2572.331929
528.603995	2576.082547
528.965860	2577.458782
529.327669	2574.517269
529.689421	2578.073803
530.051117	2578.270408
530.412755	2579.918866
530.774337	2577.504153
531.135862	2579.790316
531.497331	2575.591035
531.858743	2578.706468
532.220098	2581.045563
532.581396	2579.694534
532.942638	2580.115471
533.303824	2583.752663
533.664953	2586.331213
534.026025	2588.204002
534.387040	2592.060485
534.747999	2588.201481
535.108902	2592.176431
535.469748	2586.658888
535.830537	2591.815989
536.191270	2595.314549
536.551947	2591.674836
536.912567	2597.109200
537.273131	2595.732965
537.633638	2597.010898
537.994089	2599.445775
538.354483	2593.328335
538.714821	2595.453181
539.075103	2599.357555
539.435328	2601.802514
539.795497	2599.670106
540.155609	2601.653800
540.515665	2602.157916
540.875665	2601.863008
541.235609	2606.185798
541.595496	2604.686054
541.955328	2605.946343
542.315102	2605.903493
542.674821	2604.214707
543.034483	2608.847527
543.394090	2608.698813
543.753640	2610.042280
544.113134	2609.853237
544.472571	2607.970366
544.831953	2609.356683
545.191278	2611.297528
545.550548	2610.377517
545.909761	2610.402723
546.268918	2614.100409
546.628019	2615.017899
546.987064	2611.597476
547.346053	2615.562344
547.704986	2613.392127
548.063863	2615.917745
548.422684	2614.314658
548.781449	2616.620986
549.140158	2619.358333
549.498811	2618.972684
549.857408	2617.644340
550.215949	2618.642489
550.574434	2616.638630
550.932864	2617.823301
551.291237	2616.386572
551.649555	2621.394959
552.007817	2622.511574
552.366022	2619.058384
552.724173	2622.584671
553.082267	2625.440485
553.440305	2624.452419
553.798288	2623.716410
554.156215	2623.355968
554.514086	2628.238325
554.871902	2628.936525
555.229661	2627.177162
555.587365	2627.618263
555.945014	2628.669344
556.302606	2629.574231
556.660143	2630.668161
557.017625	2633.531537
557.375050	2631.492390
557.732421	2632.021711
558.089735	2635.726959
558.446994	2634.849798
558.804197	2634.842237
559.161345	2635.870632
559.518437	2634.902731
559.875474	2636.256280
560.232455	2638.988586
560.589381	2639.805253
560.946251	2642.769451
561.303065	2639.926240
561.659825	2639.984214
562.016528	2638.507156
562.373177	2639.396919
562.729770	2640.710140
563.086307	2641.972949
563.442789	2642.451858
563.799216	2643.036632
564.155587	2641.778864
564.511904	2645.058135
564.868164	2642.615696
565.224370	2644.334729
565.580520	2644.516211
565.936615	2648.029895
566.292654	2645.824390
566.648638	2645.801705
567.004567	2643.649132
567.360441	2646.734319
567.716260	2646.653660
568.072023	2647.051911
568.427732	2642.802219
568.783385	2643.117291
569.138982	2642.613175
569.494525	2643.628968
569.850013	2639.722074
570.205445	2645.204328
570.560823	2642.905562
570.916145	2643.341622
571.271412	2641.025212
571.626625	2645.534524
571.981782	2643.099647
572.336884	2643.525624
572.691931	2642.207362
573.046923	2637.844244
573.401860	2639.626292
573.756743	2638.247536
574.111570	2634.685961
574.466342	2636.014305
574.821059	2637.314923
575.175722	2631.565487
575.530330	2633.241670
575.884882	2630.443830
576.239380	2631.568007
576.593823	2628.903757
576.948211	2629.932153
577.302544	2626.279837
577.656823	2625.495937
578.011047	2626.794035
578.365216	2624.255814
578.719330	2623.648355
579.073389	2622.292284
579.427394	2619.683487
579.781344	2619.791872
580.135239	2620.991667
580.489080	2619.776748
580.842866	2617.868672
581.196597	2616.068980
581.550273	2618.120729
581.903895	2615.937910
582.257463	2617.561161
582.610975	2613.344236
582.964434	2612.658639
583.317837	2615.577467
583.671186	2613.606376
584.024481	2613.079576
584.377721	2613.457662
584.730906	2611.133690
585.084037	2611.080758
585.437113	2607.244440
585.790135	2608.088833
586.143103	2608.431632
586.496016	2607.504059
586.848874	2602.208327
587.201679	2604.940633
587.554428	2600.670775
587.907124	2603.892073
588.259765	2600.728749
588.612352	2604.993565
588.964884	2605.956425
589.317362	2603.425766
589.669786	2604.330653
590.022155	2605.812752
590.374470	2605.895931
590.726731	2601.656321
591.078937	2603.869387
591.431090	2602.475508
591.783188	2600.426279
592.135232	2599.533995
592.487222	2601.046341
592.839157	2601.374016
593.191038	2599.559201
593.542866	2601.386619
593.894639	2600.401074
594.246358	2601.636156
594.598022	2600.290168
594.949633	2598.566094
595.301190	2599.912082
595.652692	2598.634149
596.004141	2598.611464
596.355535	2598.601382
596.706876	2597.386464
597.058162	2599.344952
597.409395	2598.661876
597.760573	2601.822679
598.111698	2599.108018
598.462768	2600.098604
598.813785	2602.261259
599.164748	2600.063316
599.515657	2601.588265
599.866511	2598.659355
600.217312	2601.101794
600.568060	2600.403594
600.918753	2603.468616
601.269392	2603.027515
601.619978	2600.559870
601.970510	2601.023656
602.320988	2603.652618
602.671412	2603.403081
603.021783	2603.816455
603.372100	2604.902824
603.722363	2600.968203
604.072572	2602.984665
604.422728	2605.840479
604.772830	2602.200766
605.122878	2600.590117
605.472872	2602.712443
605.822813	2602.510797
606.172701	2609.114708
606.522534	2608.091354
606.872314	2610.201077
607.222041	2610.342229
607.571714	2610.155706
607.921333	2610.632095
608.270899	2610.586725
608.620411	2612.351129
608.969870	2614.554113
609.319276	2616.353805
609.668627	2614.780965
610.017926	2616.832715
610.367171	2619.338168
610.716362	2620.235493
611.065500	2620.633745
611.414585	2624.933849
611.763616	2625.735392
612.112594	2628.291257
612.461518	2628.077008
612.810389	2627.676237
613.159207	2630.930301
613.507971	2631.474746
613.856682	2634.305354
614.205340	2635.116980
614.553945	2639.505304
614.902496	2635.442134
615.250994	2637.715694
615.599439	2641.804070
615.947830	2640.553864
616.296169	2644.622075
616.644454	2650.094248
616.992686	2650.593322
617.340864	2655.891575
617.688990	2657.434168
618.037063	2660.594971
618.385082	2664.219561
618.733048	2667.647545
619.080961	2668.706188
619.428821	2675.300017
619.776628	2676.540141
620.124382	2679.521983
620.472083	2681.984587
620.819731	2681.704803
621.167326	2680.285718
621.514868	2683.300328
621.862357	2680.746984
622.209793	2682.060204
622.557176	2683.242355
622.904506	2684.174968
623.251783	2682.866789
623.599007	2684.384176
623.946179	2685.246213
624.293297	2684.850483
624.640363	2688.293591
624.987376	2692.805424
625.334336	2693.972451
625.681243	2696.493028
626.028097	2694.980682
626.374899	2699.810107
626.721647	2701.685416
627.068343	2704.553833
627.414987	2707.286138
627.761577	2710.348639
628.108115	2714.731922
628.454600	2716.352653
628.801032	2720.279712
629.147412	2726.094683
629.493739	2728.106103
629.840014	2730.551063
630.186236	2736.083729
630.532405	2741.071951
630.878521	2747.151583
631.224585	2751.862541
631.570597	2757.065012
631.916556	2761.723038
632.262462	2765.579521
632.608316	2772.445572
632.954117	2775.424894
633.299866	2782.986625
633.645562	2783.858744
633.991206	2782.994187
634.336797	2784.435957
634.682336	2786.482665
635.027823	2787.531225
635.373257	2790.281174
635.718639	2789.552728
636.063968	2789.167079
636.409245	2789.678757
636.754470	2794.916515
637.099642	2795.720579
637.444762	2795.836526
637.789829	2804.673669
638.134845	2806.314564
638.479808	2810.251705
638.824719	2813.155410
639.169577	2812.981490
639.514383	2819.887871
639.859137	2821.624548
640.203839	2829.060250
640.548489	2831.288440
640.893086	2836.309430
641.237632	2835.820438
641.582125	2844.609689
641.926566	2846.515246
642.270955	2856.400948
642.615292	2860.406145
642.959576	2868.474512
643.303809	2872.444420
643.647990	2882.589743
643.992118	2887.212481
644.336195	2894.983419
