Dividing Wavelength (nm)	Counts (n)	Blue Motor Position (mm): 15.100000	Red Motor Position (mm): 0.000000	
326.493990	2135.669703
326.888308	2135.669703
327.282561	2135.669703
327.676750	2102.566967
328.070874	2103.116453
328.464933	2105.919334
328.858929	2111.416712
329.252859	2122.809720
329.646726	2131.972017
330.040528	2144.796713
330.434265	2163.602737
330.827938	2179.837773
331.221547	2196.140864
331.615091	2217.890923
332.008571	2234.801473
332.401986	2254.585482
332.795338	2275.985180
333.188625	2292.152160
333.581847	2313.461117
333.975006	2327.621718
334.368100	2347.776252
334.761129	2368.815507
335.154095	2383.538197
335.546996	2404.763975
335.939833	2423.920360
336.332606	2437.965014
336.725315	2451.964299
337.117960	2459.473097
337.510540	2468.327884
337.903056	2476.912969
338.295508	2484.567961
338.687896	2493.105155
339.080220	2505.282062
339.472480	2508.916734
339.864676	2514.527538
340.256807	2517.612725
340.648875	2521.938035
341.040879	2523.589012
341.432818	2526.601102
341.824694	2525.237470
342.216506	2527.261493
342.608253	2529.630835
342.999937	2527.417769
343.391557	2528.574714
343.783113	2522.452232
344.174605	2524.188910
344.566033	2521.943076
344.957397	2520.579444
345.348697	2518.288239
345.739934	2515.755059
346.131106	2516.856552
346.522215	2513.262209
346.913260	2511.759945
347.304241	2512.732888
347.695159	2507.290962
348.086012	2508.039573
348.476802	2505.808863
348.867528	2502.464057
349.258191	2506.325581
349.648789	2502.814418
350.039324	2500.094715
350.429796	2501.281907
350.820203	2499.688902
351.210548	2497.503562
351.600828	2496.578510
351.991045	2495.620691
352.381198	2497.463233
352.771288	2492.555669
353.161314	2493.705052
353.551276	2495.237563
353.941175	2494.103304
354.331010	2494.370485
354.720782	2490.640031
355.110490	2495.280413
355.500135	2493.715135
355.889717	2492.855618
356.279235	2492.984167
356.668689	2494.720845
357.058080	2493.195896
357.447408	2492.994250
357.836672	2492.371667
358.225873	2490.531646
358.615010	2491.378560
359.004084	2494.935094
359.393095	2493.470639
359.782043	2498.158912
360.170927	2498.063130
360.559748	2497.402739
360.948505	2498.310147
361.337199	2504.248626
361.725830	2498.158912
362.114398	2499.779643
362.502903	2500.860970
362.891344	2498.889879
363.279722	2499.620847
363.668037	2501.806187
364.056289	2502.867350
364.444478	2503.363903
364.832603	2503.323574
365.220665	2507.255674
365.608665	2504.276352
365.996601	2504.480519
366.384474	2505.801301
366.772284	2507.694254
367.160031	2506.202073
367.547715	2507.800119
367.935336	2505.629902
368.322893	2506.496980
368.710388	2507.583349
369.097820	2507.485047
369.485189	2507.666528
369.872495	2506.910355
370.259738	2507.263236
370.646918	2504.357011
371.034035	2509.264574
371.421090	2508.584018
371.808081	2510.431601
372.195010	2508.768020
372.581875	2509.204080
372.968678	2510.678617
373.355418	2511.593587
373.742096	2508.747856
374.128710	2510.000582
374.515262	2509.756086
374.901751	2511.570902
375.288177	2509.572084
375.674540	2510.184584
376.060841	2513.516787
376.447079	2513.128618
376.833254	2512.851355
377.219367	2507.016219
377.605417	2508.856240
377.991404	2508.825993
378.377329	2508.586539
378.763191	2509.073010
379.148991	2512.226252
379.534727	2513.337826
379.920402	2511.311282
380.306013	2515.525687
380.691563	2514.560306
381.077049	2512.934534
381.462474	2517.290091
381.847835	2515.185409
382.233134	2514.797240
382.618371	2515.613907
383.003545	2517.816891
383.388657	2515.071983
383.773706	2516.251613
384.158693	2515.334123
384.543618	2516.196160
384.928480	2517.232118
385.313280	2518.671367
385.698017	2515.392096
386.082692	2517.690863
386.467305	2517.867303
386.851856	2518.169772
387.236344	2517.290091
387.620770	2521.204547
388.005133	2517.504340
388.389435	2519.770338
388.773674	2518.905781
389.157851	2517.605163
389.541965	2519.724968
389.926018	2519.845956
390.310008	2517.602642
390.693936	2517.317817
391.077802	2520.312262
391.461606	2519.185565
391.845348	2519.747653
392.229027	2517.700945
392.612645	2517.050636
392.996200	2522.174969
393.379694	2520.246728
393.763125	2518.323527
394.146494	2520.942407
394.529801	2522.270751
394.913047	2521.063394
395.296230	2521.625483
395.679351	2521.754032
396.062410	2519.997190
396.445408	2521.812006
396.828343	2522.976512
397.211217	2520.748322
397.594028	2518.651202
397.976778	2520.224042
398.359466	2520.876872
398.742092	2519.162879
399.124656	2523.689836
399.507158	2522.893333
399.889598	2524.322500
400.271977	2523.611698
400.654294	2525.053468
401.036549	2524.551873
401.418742	2524.733354
401.800874	2523.198323
402.182944	2525.595392
402.564952	2524.496420
402.946898	2524.773684
403.328783	2523.896523
403.710606	2524.254445
404.092367	2524.350227
404.474067	2525.973478
404.855705	2524.478776
405.237282	2527.848787
405.618797	2524.791328
406.000250	2525.824764
406.381642	2528.219312
406.762972	2527.611853
407.144240	2528.337779
407.525447	2528.584796
407.906593	2525.315608
408.287677	2526.890968
408.668700	2526.961544
409.049661	2527.359796
409.430560	2527.148067
409.811399	2530.555887
410.192176	2526.303674
410.572891	2530.755013
410.953545	2528.909950
411.334138	2528.947759
411.714669	2529.116638
412.095139	2529.913140
412.475547	2528.143695
412.855894	2531.254087
413.236180	2529.149405
413.616405	2529.071267
413.996568	2530.631504
414.376670	2529.585465
414.756711	2529.436751
415.136691	2529.376257
415.516609	2529.204858
415.896466	2530.747451
416.276262	2531.085208
416.655997	2527.780732
417.035670	2528.052954
417.415283	2528.937677
417.794834	2523.646986
418.174324	2527.861390
418.553753	2529.325846
418.933121	2534.755168
419.312428	2529.431710
419.691674	2530.132430
420.070859	2529.550177
420.449983	2531.717873
420.829045	2532.254756
421.208047	2530.951618
421.586988	2530.369364
421.965867	2533.694005
422.344686	2532.532019
422.723444	2532.970600
423.102141	2532.537061
423.480777	2532.332894
423.859352	2533.096629
424.237866	2534.182997
424.616319	2534.364479
424.994712	2532.113604
425.373044	2534.125024
425.751314	2535.609644
426.129524	2532.786598
426.507673	2533.779705
426.885762	2534.682072
427.263789	2534.427493
427.641756	2534.417411
428.019662	2536.204500
428.397508	2534.392205
428.775292	2535.914634
429.153016	2532.771474
429.530679	2536.874973
429.908282	2534.896321
430.285824	2533.389016
430.663305	2535.934798
431.040726	2536.431352
431.418086	2535.839016
431.795385	2537.195087
432.172624	2536.098636
432.549802	2535.390354
432.926920	2536.698533
433.303977	2536.159130
433.680974	2540.320602
434.057910	2538.704912
434.434786	2536.065868
434.811601	2535.692823
435.188355	2534.641742
435.565050	2539.095602
435.941683	2535.254243
436.318257	2536.133924
436.694770	2531.879190
437.071222	2536.365817
437.447614	2531.042358
437.823946	2533.802390
438.200218	2534.374561
438.576429	2536.932947
438.952580	2537.830272
439.328670	2536.872453
439.704700	2535.604603
440.080670	2536.431352
440.456580	2539.042670
440.832429	2538.099974
441.208218	2535.415559
441.583947	2540.166847
441.959616	2538.150385
442.335224	2539.042670
442.710773	2539.493853
443.086261	2537.248019
443.461689	2537.444624
443.837057	2536.764068
444.212365	2538.382278
444.587612	2538.553678
444.962800	2539.226672
445.337927	2540.441590
445.712995	2539.072917
446.088002	2536.907741
446.462949	2537.827752
446.837837	2537.321116
447.212664	2537.721887
447.587431	2538.319264
447.962139	2540.073586
448.336786	2538.616692
448.711374	2539.987886
449.085901	2544.209852
449.460369	2540.108874
449.834776	2542.279090
450.209124	2540.640715
450.583412	2541.449821
450.957640	2537.926054
451.331808	2540.126518
451.705917	2538.372196
452.079965	2538.732639
452.453954	2544.058618
452.827883	2541.714481
453.201752	2541.328833
453.575562	2542.568957
453.949311	2540.519728
454.323001	2541.507794
454.696632	2540.214738
455.070202	2538.934285
455.443713	2541.888401
455.817164	2540.698689
456.190556	2539.950077
456.563888	2539.660211
456.937160	2538.810777
457.310373	2542.357228
457.683526	2540.807073
458.056619	2542.054759
458.429653	2542.042156
458.802628	2540.812115
459.175542	2544.852599
459.548398	2544.487116
459.921194	2542.821014
460.293930	2546.599359
460.666607	2543.211704
461.039224	2541.961498
461.411782	2543.720860
461.784280	2545.255892
462.156719	2541.996786
462.529099	2543.521735
462.901419	2543.438556
463.273680	2542.357228
463.645882	2544.111550
464.018024	2543.403268
464.390106	2546.168341
464.762130	2544.492157
465.134094	2544.287990
465.505999	2545.386962
465.877845	2543.728422
466.249631	2543.103319
466.621358	2545.916283
466.993026	2546.251520
467.364634	2550.223949
467.736184	2544.058618
468.107674	2546.858979
468.479105	2546.359904
468.850477	2542.672300
469.221790	2545.160110
469.593043	2545.001313
469.964238	2542.705068
470.335373	2545.293700
470.706449	2545.114739
471.077467	2544.827394
471.448425	2546.551468
471.819324	2546.553989
472.190164	2545.364277
472.560945	2549.296377
472.931667	2544.192208
473.302330	2547.332847
473.672934	2544.416540
474.043479	2546.027188
474.413965	2546.745553
474.784393	2543.998124
475.154761	2544.575336
475.525070	2543.622558
475.895321	2542.382434
476.265513	2542.856302
476.635645	2545.830583
477.005719	2547.582384
477.375734	2548.353681
477.745691	2547.262271
478.115588	2547.544576
478.485427	2544.988711
478.855207	2549.510626
479.224928	2546.790923
479.594591	2546.768238
479.964194	2547.715975
480.333739	2548.164638
480.703226	2549.465255
481.072653	2548.885523
481.442022	2550.266799
481.811333	2547.224462
482.180584	2547.300080
482.549777	2549.253527
482.918912	2548.731767
483.287988	2549.987015
483.657005	2549.888712
484.025964	2547.741181
484.394864	2549.377035
484.763706	2552.729402
485.132489	2549.344267
485.501213	2550.498692
485.869879	2548.630944
486.238487	2547.337888
486.607036	2551.229659
486.975527	2551.070863
487.343959	2550.055070
487.712333	2549.845862
488.080648	2550.042467
488.448905	2548.310831
488.817104	2549.160265
489.185244	2553.979608
489.553326	2551.847200
489.921350	2550.730585
490.289315	2549.772766
490.657222	2553.082283
491.025070	2551.302756
491.392861	2556.076728
491.760593	2552.058929
492.128267	2554.158569
492.495883	2551.701007
492.863440	2552.923487
493.230939	2548.656150
493.598380	2553.679660
493.965763	2545.923845
494.333088	2550.561706
494.700354	2548.116747
495.067563	2549.699669
495.434713	2549.613969
495.801805	2551.557334
496.168839	2551.373332
496.535815	2553.142777
496.902733	2551.796789
497.269593	2551.585060
497.636395	2551.073383
498.003139	2551.143959
498.369825	2551.627910
498.736453	2553.077242
499.103023	2553.241079
499.469535	2552.288301
499.835989	2552.447098
500.202385	2551.239741
500.568723	2554.030020
500.935003	2554.042623
501.301226	2553.805689
501.667390	2553.326779
502.033497	2555.176882
502.399546	2554.156049
502.765537	2553.967006
503.131470	2555.769218
503.497345	2552.966337
503.863163	2555.267623
504.228923	2554.579506
504.594625	2555.234856
504.960269	2555.030689
505.325856	2557.402552
505.691385	2551.965667
506.056856	2554.047664
506.422270	2555.111348
506.787625	2552.515153
507.152924	2554.483724
507.518164	2556.495144
507.883347	2553.374670
508.248472	2555.365926
508.613540	2555.499516
508.978550	2557.319373
509.343503	2557.170659
509.708398	2558.287274
510.073236	2556.701832
510.438016	2557.828529
510.802738	2559.676112
511.167403	2558.730896
511.532010	2557.609239
511.896561	2558.390618
512.261053	2558.143602
512.625488	2559.101421
512.989866	2553.994732
513.354186	2556.656461
513.718449	2555.050854
514.082655	2560.351627
514.446803	2560.626370
514.810894	2560.396997
515.174927	2561.654765
515.538904	2564.155178
515.902822	2561.110321
516.266684	2562.403377
516.630488	2559.754250
516.994235	2564.699622
517.357925	2563.048644
517.721558	2566.511917
518.085133	2561.790876
518.448651	2565.909499
518.812112	2563.489745
519.175516	2564.734910
519.538863	2566.721125
519.902152	2565.730538
520.265385	2565.032338
520.628560	2567.978893
520.991678	2564.545867
521.354739	2566.169118
521.717743	2567.003429
522.080690	2567.968810
522.443580	2566.524520
522.806413	2571.232957
523.169189	2566.630384
523.531908	2570.630540
523.894569	2566.842112
524.257174	2569.302196
524.619722	2568.921588
524.982213	2572.994841
525.344647	2572.717577
525.707025	2571.792526
526.069345	2573.231775
526.431608	2572.135324
526.793815	2572.750345
527.155964	2573.251940
527.518057	2573.826631
527.880093	2574.721436
528.242072	2572.742783
528.603995	2576.354770
528.965860	2577.874678
529.327669	2574.434090
529.689421	2575.457444
530.051117	2578.056159
530.412755	2578.875347
530.774337	2579.356777
531.135862	2577.453741
531.497331	2578.643454
531.858743	2576.463155
532.220098	2579.205542
532.581396	2578.177147
532.942638	2579.374421
533.303824	2583.850966
533.664953	2582.792323
534.026025	2585.073445
534.387040	2586.558065
534.747999	2586.394228
535.108902	2588.940010
535.469748	2587.052098
535.830537	2590.023858
536.191270	2591.248859
536.551947	2594.452512
536.912567	2594.119796
537.273131	2595.652307
537.633638	2596.284972
537.994089	2596.476535
538.354483	2597.555342
538.714821	2602.956939
539.075103	2601.076588
539.435328	2603.705550
539.795497	2603.922320
540.155609	2609.555809
540.515665	2610.987497
540.875665	2612.923300
541.235609	2614.148300
541.595496	2616.699124
541.955328	2618.720627
542.315102	2620.759773
542.674821	2623.676081
543.034483	2627.464508
543.394090	2627.958541
543.753640	2632.021711
544.113134	2635.479943
544.472571	2633.387864
544.831953	2640.140489
545.191278	2640.432876
545.550548	2644.102836
545.909761	2645.559730
546.268918	2651.392345
546.628019	2655.334527
546.987064	2659.311997
547.346053	2664.148985
547.704986	2665.815086
548.063863	2668.736435
548.422684	2674.561488
548.781449	2678.412929
549.140158	2683.522139
549.498811	2686.314938
549.857408	2685.967098
550.215949	2696.677030
550.574434	2696.246011
550.932864	2705.347814
551.291237	2710.119267
551.649555	2716.483723
552.007817	2723.957234
552.366022	2729.053840
552.724173	2735.297309
553.082267	2740.197311
553.440305	2753.354722
553.798288	2749.757859
554.156215	2764.891403
554.514086	2770.199738
554.871902	2774.691406
555.229661	2782.885802
555.587365	2791.034827
555.945014	2792.509364
556.302606	2808.273052
556.660143	2812.817653
557.017625	2828.919098
557.375050	2833.141064
557.732421	2847.962057
558.089735	2854.923890
558.446994	2864.368492
558.804197	2877.210831
559.161345	2882.065463
559.518437	2881.984804
559.875474	2901.418452
560.232455	2916.468817
560.589381	2925.285795
560.946251	2941.808177
561.303065	2952.646658
561.659825	2966.277938
562.016528	2971.268680
562.373177	2969.877321
562.729770	2997.470077
563.086307	3003.214472
563.442789	3021.909591
563.799216	3031.490304
564.155587	3045.608055
564.511904	3055.634910
564.868164	3072.968917
565.224370	3088.664550
565.580520	3105.630553
565.936615	3111.074999
566.292654	3126.011938
566.648638	3147.020947
567.004567	3164.821261
567.360441	3177.945905
567.716260	3191.317566
568.072023	3210.063096
568.427732	3227.424830
568.783385	3230.230232
569.138982	3260.328441
569.494525	3280.286369
569.850013	3283.278294
570.205445	3318.939417
570.560823	3322.289263
570.916145	3341.372551
571.271412	3367.004298
571.626625	3385.984242
571.981782	3398.592168
572.336884	3420.458173
572.691931	3432.647683
573.046923	3458.836477
573.401860	3472.515648
573.756743	3485.584839
574.111570	3518.254037
574.466342	3529.082435
574.821059	3557.136456
575.175722	3568.567273
575.530330	3593.117692
575.884882	3609.292234
576.239380	3627.155563
576.593823	3636.320380
576.948211	3670.741379
577.302544	3664.722241
577.656823	3706.402501
578.011047	3720.792475
578.365216	3748.440683
578.719330	3753.199532
579.073389	3789.211015
579.427394	3790.206643
579.781344	3822.099502
580.135239	3835.191379
580.489080	3859.877909
580.842866	3874.073799
581.196597	3900.706214
581.550273	3930.653189
581.903895	3958.790389
582.257463	3991.888085
582.610975	4004.075074
582.964434	4027.062736
583.317837	4044.439593
583.671186	4059.626069
584.024481	4087.609514
584.377721	4093.059001
584.730906	4118.166468
585.084037	4153.850275
585.437113	4156.965708
585.790135	4193.773693
586.143103	4193.151111
586.496016	4212.282290
586.848874	4254.698558
587.201679	4275.800828
587.554428	4274.437196
587.907124	4316.114935
588.259765	4331.155218
588.612352	4369.415055
588.964884	4357.649002
589.317362	4391.628899
589.669786	4416.973300
590.022155	4448.094864
590.374470	4486.916789
590.726731	4487.045339
591.078937	4477.126869
591.431090	4543.135737
591.783188	4521.544475
592.135232	4555.728539
592.487222	4569.294284
592.839157	4618.548878
593.191038	4623.126246
593.542866	4630.012462
593.894639	4626.650012
594.246358	4664.998070
594.598022	4699.356054
594.949633	4696.117112
595.301190	4710.270152
595.652692	4742.606633
596.004141	4821.387265
596.355535	4756.895784
596.706876	4779.311274
597.058162	4784.911996
597.409395	4837.677753
597.760573	4891.222369
598.111698	4876.630749
598.462768	4899.431888
598.813785	4900.687135
599.164748	4931.337351
599.515657	4936.617959
599.866511	4939.171304
600.217312	5001.616077
600.568060	4974.310667
600.918753	5043.515627
601.269392	5053.381165
601.619978	5047.757758
601.970510	5098.471765
602.320988	5121.119149
602.671412	5178.061502
603.021783	5169.725954
603.372100	5184.501576
603.722363	5215.938212
604.072572	5219.590528
604.422728	5251.783336
604.772830	5238.890585
605.122878	5270.175986
605.472872	5287.739366
605.822813	5333.510522
606.172701	5329.704451
606.522534	5389.550509
606.872314	5414.002626
607.222041	5429.708341
607.571714	5479.567873
607.921333	5486.912834
608.270899	5513.293192
608.620411	5585.046455
608.969870	5556.896652
609.319276	5578.835754
609.668627	5616.069716
610.017926	5654.289224
610.367171	5710.740065
610.716362	5714.059664
611.065500	5740.946658
611.414585	5783.698164
611.763616	5788.724194
612.112594	5811.898378
612.461518	5844.204613
612.810389	5898.011368
613.159207	5889.859823
613.507971	5881.567124
613.856682	5982.107897
614.205340	5964.138704
614.553945	6035.350043
614.902496	5995.759341
615.250994	6049.976951
615.599439	6055.726387
615.947830	6094.334064
616.296169	6095.861533
616.644454	6125.342201
616.992686	6143.571013
617.340864	6203.306166
617.688990	6163.775958
618.037063	6238.974850
618.385082	6227.912038
618.733048	6315.270193
619.080961	6285.424041
619.428821	6319.736655
619.776628	6348.609864
620.124382	6336.632082
620.472083	6349.983578
620.819731	6385.826182
621.167326	6339.823132
621.514868	6365.616196
621.862357	6306.632176
622.209793	6341.688359
622.557176	6314.700542
622.904506	6325.173539
623.251783	6289.298168
623.599007	6280.849194
623.946179	6307.259799
624.293297	6296.247399
624.640363	6252.865749
624.987376	6262.910248
625.334336	6242.833853
625.681243	6225.406584
626.028097	6233.865640
626.374899	6229.709209
626.721647	6247.875007
627.068343	6203.069232
627.414987	6201.025044
627.761577	6189.256470
628.108115	6229.454631
628.454600	6164.950547
628.801032	6224.378189
629.147412	6196.626637
629.493739	6208.425458
629.840014	6171.128481
630.186236	6232.444035
630.532405	6152.718187
630.878521	6201.957657
631.224585	6180.157187
631.570597	6132.359487
631.916556	6173.102092
632.262462	6182.324883
632.608316	6169.265774
632.954117	6161.749414
633.299866	6157.356048
633.645562	6169.900960
633.991206	6116.973886
634.336797	6083.477939
634.682336	6062.093364
635.027823	6051.668258
635.373257	6048.527619
635.718639	6011.989336
636.063968	6033.454569
636.409245	5959.163085
636.754470	5968.968129
637.099642	5948.858967
637.444762	5908.766670
637.789829	5927.726450
638.134845	5891.578856
638.479808	5890.520214
638.824719	5902.873561
639.169577	5851.370613
639.514383	5876.256269
639.859137	5822.446993
640.203839	5836.174055
640.548489	5839.591957
640.893086	5819.024049
641.237632	5810.817051
641.582125	5833.724054
641.926566	5815.258307
642.270955	5840.038099
642.615292	5843.244273
642.959576	5863.779413
643.303809	5863.618096
643.647990	5877.093100
643.992118	5870.252255
644.336195	5826.893290
