Dividing Wavelength (nm)	Counts (n)	Blue Motor Position (mm): 8.000000	Red Motor Position (mm): 0.000000	
326.493990	2064.148333
326.888308	2064.148333
327.282561	2064.148333
327.676750	2037.205887
328.070874	2040.936340
328.464933	2045.163348
328.858929	2053.617363
329.252859	2065.832079
329.646726	2078.296332
330.040528	2095.060689
330.434265	2111.925869
330.827938	2133.381020
331.221547	2153.578403
331.615091	2176.190498
332.008571	2195.684640
332.401986	2215.834132
332.795338	2236.815414
333.188625	2253.476428
333.581847	2273.462082
333.975006	2290.591923
334.368100	2308.598924
334.761129	2326.187510
335.154095	2341.018585
335.546996	2366.085722
335.939833	2401.751886
336.332606	2417.568506
336.725315	2428.200299
337.117960	2442.033226
337.510540	2447.018927
337.903056	2457.731379
338.295508	2462.883438
338.687896	2468.128758
339.080220	2472.149079
339.472480	2476.476909
339.864676	2484.315903
340.256807	2486.725575
340.648875	2488.177427
341.040879	2485.966881
341.432818	2486.166007
341.824694	2492.719507
342.216506	2489.082314
342.608253	2490.796307
342.999937	2487.559886
343.391557	2489.634321
343.783113	2486.745740
344.174605	2484.615852
344.566033	2483.910091
344.957397	2482.869092
345.348697	2480.900522
345.739934	2480.779534
346.131106	2476.955819
346.522215	2475.161168
346.913260	2474.652012
347.304241	2475.345170
347.695159	2471.697895
348.086012	2469.769654
348.476802	2466.283696
348.867528	2467.571711
349.258191	2461.338324
349.648789	2460.609877
350.039324	2457.880093
350.429796	2463.430403
350.820203	2462.396967
351.210548	2459.762964
351.600828	2462.122224
351.991045	2460.403190
352.381198	2457.454115
352.771288	2459.412603
353.161314	2459.077367
353.551276	2459.563838
353.941175	2458.217850
354.331010	2462.941411
354.720782	2459.261369
355.110490	2459.087449
355.500135	2459.934363
355.889717	2457.504527
356.279235	2460.597275
356.668689	2458.038889
357.058080	2460.695577
357.447408	2462.691874
357.836672	2460.176338
358.225873	2462.253294
358.615010	2460.009980
359.004084	2464.116000
359.393095	2462.515434
359.782043	2462.389405
360.170927	2465.540126
360.559748	2462.969137
360.948505	2465.164560
361.337199	2467.304530
361.725830	2465.492235
362.114398	2465.555249
362.502903	2465.698922
362.891344	2466.598768
363.279722	2466.339149
363.668037	2466.220682
364.056289	2468.373254
364.444478	2469.482308
364.832603	2467.990127
365.220665	2469.842751
365.608665	2468.748820
365.996601	2470.772844
366.384474	2472.282669
366.772284	2468.113635
367.160031	2469.918368
367.547715	2474.437762
367.935336	2470.583800
368.322893	2470.241002
368.710388	2467.541464
369.097820	2473.371558
369.485189	2465.852678
369.872495	2475.877012
370.259738	2472.673359
370.646918	2474.034470
371.034035	2473.308544
371.421090	2473.369038
371.808081	2475.057824
372.195010	2474.594038
372.581875	2475.907259
372.968678	2473.676548
373.355418	2476.204687
373.742096	2475.093112
374.128710	2475.617393
374.515262	2472.922896
374.901751	2476.421457
375.288177	2475.277115
375.674540	2476.902887
376.060841	2478.808443
376.447079	2478.826087
376.833254	2477.076807
377.219367	2477.187712
377.605417	2478.226190
377.991404	2475.224182
378.377329	2479.095789
378.763191	2477.759883
379.148991	2478.790799
379.534727	2477.507825
379.920402	2475.781230
380.306013	2478.947075
380.691563	2478.639564
381.077049	2477.563278
381.462474	2476.734008
381.847835	2477.033957
382.233134	2481.434884
382.618371	2477.938844
383.003545	2479.330202
383.388657	2480.028402
383.773706	2479.413381
384.158693	2479.241982
384.543618	2480.678711
384.928480	2480.696355
385.313280	2480.713999
385.698017	2478.702579
386.082692	2480.545120
386.467305	2482.059987
386.851856	2481.782724
387.236344	2479.892291
387.620770	2480.703917
388.005133	2476.839872
388.389435	2478.959678
388.773674	2477.233082
389.157851	2481.898670
389.541965	2481.777682
389.926018	2483.085862
390.310008	2482.609473
390.693936	2485.450163
391.077802	2483.665595
391.461606	2485.261120
391.845348	2483.685759
392.229027	2485.926552
392.612645	2483.849597
392.996200	2485.888743
393.379694	2486.299598
393.763125	2484.820019
394.146494	2486.080307
394.529801	2485.939155
394.913047	2484.981336
395.296230	2486.372694
395.679351	2483.471510
396.062410	2484.537714
396.445408	2485.886223
396.828343	2487.517036
397.211217	2486.022334
397.594028	2487.060812
397.976778	2487.204485
398.359466	2487.244814
398.742092	2487.547283
399.124656	2486.682725
399.507158	2486.246665
399.889598	2488.404279
400.271977	2489.145329
400.654294	2489.047026
401.036549	2488.000987
401.418742	2489.992243
401.800874	2488.943683
402.182944	2489.193220
402.564952	2488.545432
402.946898	2490.226656
403.328783	2490.335041
403.710606	2491.635659
404.092367	2492.258241
404.474067	2490.062819
404.855705	2492.535505
405.237282	2493.735299
405.618797	2489.591471
406.000250	2490.183807
406.381642	2489.644403
406.762972	2489.934269
407.144240	2486.929742
407.525447	2491.698673
407.906593	2486.549135
408.287677	2494.141112
408.668700	2490.534167
409.049661	2494.521719
409.430560	2489.956955
409.811399	2491.207161
410.192176	2493.659682
410.572891	2493.402583
410.953545	2493.153046
411.334138	2489.510813
411.714669	2492.863180
412.095139	2494.191524
412.475547	2492.507778
412.855894	2493.702532
413.236180	2489.601553
413.616405	2491.817140
413.996568	2494.572131
414.376670	2494.778818
414.756711	2495.071205
415.136691	2494.307470
415.516609	2492.696822
415.896466	2496.432317
416.276262	2492.752274
416.655997	2497.354848
417.035670	2493.803355
417.415283	2496.245794
417.794834	2493.349651
418.174324	2493.004332
418.553753	2495.003150
418.933121	2495.298057
419.312428	2492.568272
419.691674	2493.062305
420.070859	2497.886690
420.449983	2494.877121
420.829045	2496.391988
421.208047	2495.338386
421.586988	2493.947028
421.965867	2496.812924
422.344686	2496.654127
422.723444	2497.937101
423.102141	2495.388798
423.480777	2498.277379
423.859352	2496.812924
424.237866	2499.121772
424.616319	2495.403921
424.994712	2497.669920
425.373044	2494.723366
425.751314	2494.972903
426.129524	2491.789414
426.507673	2494.743530
426.885762	2490.861842
427.263789	2497.879128
427.641756	2498.307626
428.019662	2497.070023
428.397508	2498.211844
428.775292	2498.083295
429.153016	2497.506083
429.530679	2499.825013
429.908282	2497.516165
430.285824	2498.453819
430.663305	2497.564056
431.040726	2497.143119
431.418086	2499.240239
431.795385	2500.301402
432.172624	2496.636483
432.549802	2498.358037
432.926920	2494.125989
433.303977	2498.491628
433.680974	2498.620177
434.057910	2497.778305
434.434786	2497.496000
434.811601	2497.745537
435.188355	2499.033552
435.565050	2494.796462
435.941683	2500.886176
436.318257	2501.201248
436.694770	2497.130517
437.071222	2499.583038
437.447614	2500.162771
437.823946	2496.717142
438.200218	2501.594458
438.576429	2496.752430
438.952580	2500.566063
439.328670	2499.923316
439.704700	2497.760661
440.080670	2498.577328
440.456580	2498.050527
440.832429	2502.030518
441.208218	2499.872904
441.583947	2501.430621
441.959616	2497.639673
442.335224	2499.840137
442.710773	2500.213182
443.086261	2502.451454
443.461689	2496.747389
443.837057	2504.568739
444.212365	2499.378871
444.587612	2497.559015
444.962800	2498.708398
445.337927	2497.274189
445.712995	2496.787718
446.088002	2498.915085
446.462949	2499.474653
446.837837	2500.122441
447.212664	2500.193017
447.587431	2501.060096
447.962139	2501.526403
448.336786	2501.665034
448.711374	2501.412977
449.085901	2502.474140
449.460369	2501.617143
449.834776	2500.954232
450.209124	2503.119407
450.583412	2501.917092
450.957640	2505.057731
451.331808	2503.459685
451.705917	2502.128821
452.079965	2500.825682
452.453954	2502.784171
452.827883	2501.612102
453.201752	2499.593120
453.575562	2499.729231
453.949311	2501.304592
454.323001	2501.864160
454.696632	2502.532113
455.070202	2500.959273
455.443713	2501.216372
455.817164	2500.908861
456.190556	2501.029849
456.563888	2501.828872
456.937160	2500.820641
457.310373	2499.867863
457.683526	2500.989520
458.056619	2502.524551
458.429653	2501.959942
458.802628	2500.833244
459.175542	2501.949860
459.548398	2502.108656
459.921194	2501.949860
460.293930	2503.994048
460.666607	2500.850888
461.039224	2500.656804
461.411782	2502.819459
461.784280	2503.774757
462.156719	2501.294510
462.529099	2502.204438
462.901419	2503.124448
463.273680	2501.574294
463.645882	2497.763181
464.018024	2499.308295
464.390106	2500.356855
464.762130	2502.874911
465.134094	2505.627381
465.505999	2502.522031
465.877845	2502.743841
466.249631	2502.343070
466.621358	2503.416835
466.993026	2504.379696
467.364634	2509.582167
467.736184	2503.767196
468.107674	2503.711743
468.479105	2503.595796
468.850477	2503.691578
469.221790	2503.394150
469.593043	2503.709222
469.964238	2504.213338
470.335373	2503.076557
470.706449	2505.236692
471.077467	2504.263749
471.448425	2504.820797
471.819324	2506.270128
472.190164	2505.811383
472.560945	2504.256187
472.931667	2502.655621
473.302330	2505.592093
473.672934	2507.477485
474.043479	2504.173008
474.413965	2502.774088
474.784393	2505.476147
475.154761	2503.797443
475.525070	2506.320540
475.895321	2505.859274
476.265513	2503.661331
476.635645	2504.115035
477.005719	2501.692761
477.375734	2506.743997
477.745691	2505.027484
478.115588	2507.275839
478.485427	2504.233502
478.855207	2505.695437
479.224928	2505.534120
479.594591	2508.589059
479.964194	2503.361383
480.333739	2507.732063
480.703226	2505.730725
481.072653	2507.026302
481.442022	2503.636126
481.811333	2504.354490
482.180584	2503.905827
482.549777	2504.939264
482.918912	2502.423728
483.287988	2506.670900
483.657005	2507.270797
484.025964	2506.880108
484.394864	2507.364059
484.763706	2507.094357
485.132489	2504.185611
485.501213	2507.225427
485.869879	2507.832886
486.238487	2506.559995
486.607036	2508.342043
486.975527	2507.427073
487.343959	2504.084788
487.712333	2504.752741
488.080648	2506.688544
488.448905	2509.521673
488.817104	2506.960767
489.185244	2509.229286
489.553326	2507.376662
489.921350	2510.842455
490.289315	2507.943792
490.657222	2511.162568
491.025070	2509.814060
491.392861	2508.026971
491.760593	2510.658453
492.128267	2508.427742
492.495883	2508.364728
492.863440	2506.013030
493.230939	2508.949502
493.598380	2508.006806
493.965763	2509.630057
494.333088	2507.086795
494.700354	2509.367918
495.067563	2507.779954
495.434713	2507.096878
495.801805	2506.265087
496.168839	2508.364728
496.535815	2507.815242
496.902733	2508.881446
497.269593	2508.442866
497.636395	2511.076869
498.003139	2506.290293
498.369825	2508.599142
498.736453	2509.688031
499.103023	2507.858092
499.469535	2509.141066
499.835989	2507.167454
500.202385	2507.933709
500.568723	2504.616630
500.935003	2505.617299
501.301226	2507.437156
501.667390	2510.227434
502.033497	2509.378000
502.399546	2510.562671
502.765537	2506.512104
503.131470	2509.698113
503.497345	2507.222907
503.863163	2509.080572
504.228923	2507.671569
504.594625	2507.769872
504.960269	2509.723319
505.325856	2508.213493
505.691385	2508.231137
506.056856	2508.952022
506.422270	2511.321365
506.787625	2507.699296
507.152924	2507.011178
507.518164	2509.403206
507.883347	2510.761797
508.248472	2510.358504
508.613540	2508.339522
508.978550	2510.870181
509.343503	2510.678617
509.708398	2507.066631
510.073236	2509.597290
510.438016	2507.812722
510.802738	2510.318175
511.167403	2509.130983
511.532010	2508.873884
511.896561	2509.110819
512.261053	2510.242558
512.625488	2511.979235
512.989866	2510.386231
513.354186	2507.815242
513.718449	2509.655263
514.082655	2508.054697
514.446803	2510.991169
514.810894	2509.811539
515.174927	2509.264574
515.538904	2510.663494
515.902822	2511.984276
516.266684	2511.402023
516.630488	2512.052332
516.994235	2510.557630
517.357925	2509.715757
517.721558	2511.439832
518.085133	2506.711229
518.448651	2510.229955
518.812112	2504.878770
519.175516	2509.292300
519.538863	2504.125117
519.902152	2510.129132
520.265385	2510.708864
520.628560	2512.465707
520.991678	2508.866323
521.354739	2512.054853
521.717743	2509.647702
522.080690	2511.097033
522.443580	2512.979904
522.806413	2512.314472
523.169189	2510.792043
523.531908	2515.404699
523.894569	2512.919410
524.257174	2511.840603
524.619722	2512.261540
524.982213	2515.157683
525.344647	2513.909997
525.707025	2515.200533
526.069345	2513.161386
526.431608	2517.511902
526.793815	2513.990656
527.155964	2517.844618
527.518057	2515.888650
527.880093	2518.517612
528.242072	2514.683814
528.603995	2516.521315
528.965860	2515.931500
529.327669	2518.288239
529.689421	2516.312107
530.051117	2519.878723
530.412755	2519.031809
530.774337	2518.308404
531.135862	2515.916376
531.497331	2519.336799
531.858743	2519.956861
532.220098	2521.312932
532.581396	2520.690349
532.942638	2520.420647
533.303824	2522.288395
533.664953	2524.095648
534.026025	2523.329393
534.387040	2525.297964
534.747999	2525.613036
535.108902	2522.563138
535.469748	2524.584640
535.830537	2525.804600
536.191270	2522.124557
536.551947	2526.235618
536.912567	2522.406862
537.273131	2523.631862
537.633638	2520.327386
537.994089	2527.816020
538.354483	2527.511030
538.714821	2528.068078
539.075103	2529.903058
539.435328	2531.927081
539.795497	2529.373737
540.155609	2534.886238
540.515665	2530.747451
540.875665	2533.875487
541.235609	2532.779036
541.595496	2532.058151
541.955328	2533.714170
542.315102	2534.011598
542.674821	2531.622091
543.034483	2533.109232
543.394090	2535.244160
543.753640	2536.617875
544.113134	2536.955632
544.472571	2538.399922
544.831953	2540.161806
545.191278	2539.052752
545.550548	2541.275901
545.909761	2540.499563
546.268918	2538.122659
546.628019	2541.974101
546.987064	2542.959646
547.346053	2541.941333
547.704986	2543.120963
548.063863	2542.216076
548.422684	2542.324461
548.781449	2544.240099
549.140158	2545.066848
549.498811	2541.855633
549.857408	2543.529297
550.215949	2543.002496
550.574434	2543.531817
550.932864	2546.604400
551.291237	2548.643547
551.649555	2546.352343
552.007817	2546.347302
552.366022	2547.148845
552.724173	2547.768907
553.082267	2549.225800
553.440305	2549.858465
553.798288	2548.499874
554.156215	2549.535831
554.514086	2548.971222
554.871902	2548.424257
555.229661	2549.666901
555.587365	2545.502908
555.945014	2551.340564
556.302606	2552.915925
556.660143	2555.693601
557.017625	2551.506922
557.375050	2551.509443
557.732421	2551.393497
558.089735	2553.372149
558.446994	2553.437684
558.804197	2553.994732
559.161345	2553.490617
559.518437	2554.098076
559.875474	2554.695452
560.232455	2555.227294
560.589381	2553.853580
560.946251	2554.957592
561.303065	2557.878941
561.659825	2555.683518
562.016528	2555.832232
562.373177	2558.143602
562.729770	2557.079918
563.086307	2560.235680
563.442789	2558.103272
563.799216	2558.730896
564.155587	2559.865156
564.511904	2556.679146
564.868164	2557.367264
565.224370	2561.415310
565.580520	2559.343396
565.936615	2563.366237
566.292654	2559.310629
566.648638	2559.978582
567.004567	2558.982954
567.360441	2565.846485
567.716260	2557.861297
568.072023	2564.392112
568.427732	2560.802810
568.783385	2561.939590
569.138982	2560.603685
569.494525	2563.628377
569.850013	2559.103941
570.205445	2559.628221
570.560823	2562.489076
570.916145	2561.155691
571.271412	2562.564693
571.626625	2562.032852
571.981782	2561.387584
572.336884	2560.026473
572.691931	2559.461863
573.046923	2562.783984
573.401860	2558.004970
573.756743	2560.901113
574.111570	2562.294992
574.466342	2564.021587
574.821059	2560.701987
575.175722	2562.189127
575.530330	2565.922102
575.884882	2565.085270
576.239380	2561.286761
576.593823	2561.082594
576.948211	2562.657955
577.302544	2562.557132
577.656823	2562.340362
578.011047	2563.898079
578.365216	2563.351113
578.719330	2561.143088
579.073389	2563.630897
579.427394	2562.960424
579.781344	2561.697615
580.135239	2563.903120
580.489080	2561.531257
580.842866	2560.185269
581.196597	2561.112841
581.550273	2562.965465
581.903895	2562.620146
582.257463	2562.229457
582.610975	2563.404046
582.964434	2560.734755
583.317837	2562.625187
583.671186	2564.094684
584.024481	2565.387740
584.377721	2564.051834
584.730906	2563.106617
585.084037	2561.511092
585.437113	2563.247770
585.790135	2565.780950
586.143103	2558.488921
586.496016	2563.283058
586.848874	2561.546380
587.201679	2565.087791
587.554428	2562.484035
587.907124	2561.788356
588.259765	2562.007646
588.612352	2562.998233
588.964884	2560.233160
589.317362	2564.054354
589.669786	2562.690722
590.022155	2561.427913
590.374470	2560.865825
590.726731	2559.650907
591.078937	2556.134702
591.431090	2560.034034
591.783188	2558.118396
592.135232	2561.677450
592.487222	2561.072512
592.839157	2560.195351
593.191038	2562.945301
593.542866	2559.209806
593.894639	2564.830692
594.246358	2561.929508
594.598022	2560.754919
594.949633	2561.107800
595.301190	2559.043447
595.652692	2562.363047
596.004141	2560.165104
596.355535	2560.820454
596.706876	2561.478325
597.058162	2561.027142
597.409395	2561.435475
597.760573	2561.455640
598.111698	2561.266596
598.462768	2562.090825
598.813785	2561.455640
599.164748	2561.460681
599.515657	2557.281564
599.866511	2561.170814
600.217312	2560.457491
600.568060	2560.901113
600.918753	2563.630897
601.269392	2560.691905
601.619978	2561.165773
601.970510	2560.182748
602.320988	2561.185938
602.671412	2563.303222
603.021783	2560.611246
603.372100	2559.318190
603.722363	2563.391443
604.072572	2562.385732
604.422728	2564.397153
604.772830	2561.243911
605.122878	2563.683830
605.472872	2561.498489
605.822813	2565.334807
606.172701	2563.618295
606.522534	2564.656772
606.872314	2565.712894
607.222041	2566.441341
607.571714	2562.279868
607.921333	2561.470763
608.270899	2563.129303
608.620411	2562.242060
608.969870	2565.884293
609.319276	2565.178532
609.668627	2568.946794
610.017926	2570.373441
610.367171	2571.578277
610.716362	2566.688357
611.065500	2572.084912
611.414585	2569.468554
611.763616	2574.844944
612.112594	2573.219172
612.461518	2574.749162
612.810389	2577.105902
613.159207	2577.501632
613.507971	2576.017012
613.856682	2577.052970
614.205340	2580.034812
614.553945	2581.645461
614.902496	2581.685790
615.250994	2582.988928
615.599439	2583.301480
615.947830	2586.716862
616.296169	2589.139136
616.644454	2587.556214
616.992686	2589.497058
617.340864	2591.999991
617.688990	2592.975454
618.037063	2598.137596
618.385082	2599.939808
618.733048	2603.118256
619.080961	2603.234202
619.428821	2604.144130
619.776628	2610.183433
620.124382	2609.137393
620.472083	2608.129162
620.819731	2610.674945
621.167326	2613.462703
621.514868	2613.603856
621.862357	2612.782147
622.209793	2613.397168
622.557176	2616.464710
622.904506	2616.540328
623.251783	2616.658795
623.599007	2618.566872
623.946179	2620.038888
624.293297	2620.512757
624.640363	2618.569392
624.987376	2620.479989
625.334336	2620.043930
625.681243	2622.080556
626.028097	2621.883951
626.374899	2630.337966
626.721647	2630.912657
627.068343	2633.589510
627.414987	2635.013636
627.761577	2638.353400
628.108115	2641.567136
628.454600	2643.165182
628.801032	2644.009575
629.147412	2648.924700
629.493739	2651.868734
629.840014	2653.658343
630.186236	2659.100269
630.532405	2662.291319
630.878521	2665.358862
631.224585	2671.529234
631.570597	2675.415963
631.916556	2682.103054
632.262462	2684.195133
632.608316	2687.925587
632.954117	2693.977492
633.299866	2698.718697
633.645562	2701.440920
633.991206	2701.014943
634.336797	2702.940663
634.682336	2705.627598
635.027823	2707.828062
635.373257	2708.985007
635.718639	2713.146479
636.063968	2714.686552
636.409245	2714.000955
636.754470	2718.656461
637.099642	2717.688559
637.444762	2721.189640
637.789829	2727.715414
638.134845	2728.632904
638.479808	2735.012484
638.824719	2738.377454
639.169577	2740.439286
639.514383	2744.870461
639.859137	2748.686614
640.203839	2752.346492
640.548489	2757.024682
640.893086	2763.177411
641.237632	2769.690582
641.582125	2776.571757
641.926566	2777.582508
642.270955	2782.134670
642.615292	2785.093827
642.959576	2789.875362
643.303809	2793.668830
643.647990	2810.123156
643.992118	2814.123312
644.336195	2821.715289
