Dividing Wavelength (nm)	Counts (n)	Blue Motor Position (mm): 3.500000	Red Motor Position (mm): 0.000000	
326.493990	2160.530154
326.888308	2160.530154
327.282561	2160.530154
327.676750	2121.819133
328.070874	2115.840325
328.464933	2116.430140
328.858929	2120.047168
329.252859	2125.809207
329.646726	2133.035701
330.040528	2146.271250
330.434265	2158.871614
330.827938	2177.854079
331.221547	2193.481656
331.615091	2212.000334
332.008571	2230.405587
332.401986	2249.251941
332.795338	2270.076947
333.188625	2287.564710
333.581847	2301.664817
333.975006	2321.685760
334.368100	2340.688389
334.761129	2360.449712
335.154095	2378.202136
335.546996	2392.766029
335.939833	2408.726322
336.332606	2421.644279
336.725315	2438.708585
337.117960	2448.012034
337.510540	2461.144240
337.903056	2469.648666
338.295508	2479.662918
338.687896	2490.239259
339.080220	2497.183449
339.472480	2503.726866
339.864676	2508.120232
340.256807	2511.608710
340.648875	2517.216994
341.040879	2521.131450
341.432818	2522.706811
341.824694	2527.022038
342.216506	2525.416431
342.608253	2527.042203
342.999937	2528.743592
343.391557	2527.377440
343.783113	2527.397604
344.174605	2530.596216
344.566033	2523.609177
344.957397	2525.998684
345.348697	2522.348889
345.739934	2524.695546
346.131106	2521.612880
346.522215	2518.683970
346.913260	2517.670698
347.304241	2518.845287
347.695159	2514.850172
348.086012	2512.604338
348.476802	2510.691220
348.867528	2506.121414
349.258191	2500.003974
349.648789	2501.959942
350.039324	2498.095897
350.429796	2501.218892
350.820203	2500.901300
351.210548	2500.195538
351.600828	2497.924498
351.991045	2498.466422
352.381198	2496.734786
352.771288	2496.759992
353.161314	2495.671103
353.551276	2493.780670
353.941175	2492.689260
354.331010	2493.332007
354.720782	2492.190186
355.110490	2495.870228
355.500135	2491.648262
355.889717	2490.879486
356.279235	2492.928715
356.668689	2496.046668
357.058080	2496.402070
357.447408	2495.318222
357.836672	2491.048364
358.225873	2496.354179
358.615010	2494.655310
359.004084	2494.594816
359.393095	2495.003150
359.782043	2494.904847
360.170927	2495.524909
360.559748	2497.942142
360.948505	2494.824189
361.337199	2497.231340
361.725830	2498.045486
362.114398	2497.165805
362.502903	2498.267297
362.891344	2498.733603
363.279722	2498.025321
363.668037	2501.904489
364.056289	2502.711074
364.444478	2505.191322
364.832603	2501.085302
365.220665	2505.597134
365.608665	2503.691578
365.996601	2505.125787
366.384474	2502.859788
366.772284	2506.086126
367.160031	2505.939933
367.547715	2503.661331
367.935336	2506.481857
368.322893	2502.859788
368.710388	2502.627895
369.097820	2504.692247
369.485189	2505.776095
369.872495	2508.248781
370.259738	2506.121414
370.646918	2510.139214
371.034035	2509.660304
371.421090	2510.063597
371.808081	2506.988493
372.195010	2510.870181
372.581875	2506.648215
372.968678	2511.364214
373.355418	2509.851868
373.742096	2509.161230
374.128710	2510.371107
374.515262	2512.609379
374.901751	2510.378669
375.288177	2510.797085
375.674540	2509.529234
376.060841	2510.691220
376.447079	2511.636437
376.833254	2512.057373
377.219367	2514.058711
377.605417	2509.340191
377.991404	2510.073679
378.377329	2511.361694
378.763191	2514.041067
379.148991	2511.192815
379.534727	2509.965294
379.920402	2513.065604
380.306013	2515.056860
380.691563	2516.508712
381.077049	2511.313803
381.462474	2512.833711
381.847835	2514.139370
382.233134	2513.617610
382.618371	2515.233300
383.003545	2515.500481
383.388657	2514.409071
383.773706	2516.198681
384.158693	2516.049967
384.543618	2516.735564
384.928480	2516.904443
385.313280	2513.920079
385.698017	2514.149452
386.082692	2513.713392
386.467305	2517.640451
386.851856	2516.836387
387.236344	2517.201871
387.620770	2514.220028
388.005133	2513.932682
388.389435	2514.782117
388.773674	2513.310100
389.157851	2517.703465
389.541965	2517.085924
389.926018	2519.362005
390.310008	2515.147600
390.693936	2521.081038
391.077802	2517.587519
391.461606	2519.094824
391.845348	2519.417458
392.229027	2521.496934
392.612645	2519.815709
392.996200	2520.463497
393.379694	2518.545338
393.763125	2520.745802
394.146494	2521.161697
394.529801	2521.484331
394.913047	2520.793693
395.296230	2524.362830
395.679351	2521.887623
396.062410	2522.565658
396.445408	2522.260668
396.828343	2521.852335
397.211217	2521.199506
397.594028	2523.571368
397.976778	2522.699249
398.359466	2522.076666
398.742092	2522.850483
399.124656	2523.967099
399.507158	2523.410052
399.889598	2523.969620
400.271977	2522.164887
400.654294	2522.459794
401.036549	2521.075997
401.418742	2524.481297
401.800874	2524.304856
402.182944	2524.960206
402.564952	2526.356606
402.946898	2526.076822
403.328783	2524.541791
403.710606	2524.882068
404.092367	2527.165711
404.474067	2525.968437
404.855705	2525.970958
405.237282	2524.206554
405.618797	2528.078160
406.000250	2526.021369
406.381642	2525.814682
406.762972	2524.549352
407.144240	2522.074146
407.525447	2526.114631
407.906593	2521.617921
408.287677	2527.029600
408.668700	2526.190248
409.049661	2528.010104
409.430560	2527.074970
409.811399	2528.902389
410.192176	2528.612522
410.572891	2527.707635
410.953545	2527.785773
411.334138	2528.257121
411.714669	2531.097811
412.095139	2526.805269
412.475547	2528.763757
412.855894	2529.101514
413.236180	2527.826102
413.616405	2528.723428
413.996568	2528.978006
414.376670	2529.091432
414.756711	2530.477749
415.136691	2529.691329
415.516609	2528.577234
415.896466	2532.179139
416.276262	2530.399611
416.655997	2529.751823
417.035670	2529.605630
417.415283	2530.845753
417.794834	2531.067564
418.174324	2532.358100
418.553753	2530.162677
418.933121	2530.807945
419.312428	2529.754344
419.691674	2529.320804
420.070859	2527.546318
420.449983	2532.526978
420.829045	2531.841381
421.208047	2531.808614
421.586988	2530.974303
421.965867	2532.529499
422.344686	2533.898172
422.723444	2532.025383
423.102141	2530.316432
423.480777	2533.358769
423.859352	2532.685775
424.237866	2531.624612
424.616319	2533.247863
424.994712	2533.739376
425.373044	2532.708460
425.751314	2531.392719
426.129524	2527.311905
426.507673	2531.264169
426.885762	2528.579755
427.263789	2532.789118
427.641756	2533.373892
428.019662	2534.374561
428.397508	2533.935981
428.775292	2535.211393
429.153016	2534.188038
429.530679	2535.218954
429.908282	2534.419932
430.285824	2535.289531
430.663305	2532.511855
431.040726	2534.326670
431.418086	2534.944212
431.795385	2531.581762
432.172624	2535.140817
432.549802	2536.862371
432.926920	2535.665097
433.303977	2533.981351
433.680974	2536.174253
434.057910	2535.589479
434.434786	2535.367668
434.811601	2536.474202
435.188355	2534.298944
435.565050	2535.707946
435.941683	2536.615354
436.318257	2536.443955
436.694770	2533.983872
437.071222	2535.702905
437.447614	2536.002854
437.823946	2537.079140
438.200218	2538.714995
438.576429	2538.117618
438.952580	2537.172402
439.328670	2536.227185
439.704700	2535.813811
440.080670	2537.457227
440.456580	2539.650129
440.832429	2538.283976
441.208218	2536.653163
441.583947	2537.061496
441.959616	2538.036959
442.335224	2537.212731
442.710773	2538.412525
443.086261	2539.332536
443.461689	2538.064686
443.837057	2537.865560
444.212365	2537.651311
444.587612	2536.685930
444.962800	2532.181659
445.337927	2537.066537
445.712995	2533.066382
446.088002	2537.500077
446.462949	2538.853626
446.837837	2536.484284
447.212664	2537.921013
447.587431	2539.387989
447.962139	2536.854809
448.336786	2540.527289
448.711374	2537.278266
449.085901	2538.856147
449.460369	2536.358255
449.834776	2539.045190
450.209124	2539.556867
450.583412	2536.537216
450.957640	2538.604089
451.331808	2537.031249
451.705917	2537.560570
452.079965	2542.160623
452.453954	2538.747762
452.827883	2539.670293
453.201752	2540.234902
453.575562	2542.556354
453.949311	2537.429500
454.323001	2541.699358
454.696632	2541.192722
455.070202	2540.786909
455.443713	2542.810932
455.817164	2541.245654
456.190556	2540.305479
456.563888	2542.067362
456.937160	2541.001158
457.310373	2542.611807
457.683526	2540.928061
458.056619	2540.633154
458.429653	2541.038967
458.802628	2540.285314
459.175542	2541.641384
459.548398	2540.151723
459.921194	2541.961498
460.293930	2542.165664
460.666607	2543.597352
461.039224	2542.382434
461.411782	2539.355221
461.784280	2542.095088
462.156719	2541.162475
462.529099	2541.661549
462.901419	2541.883360
463.273680	2538.215920
463.645882	2537.079140
464.018024	2538.520910
464.390106	2537.648791
464.762130	2542.221117
465.134094	2542.367311
465.505999	2543.304965
465.877845	2542.813453
466.249631	2543.105840
466.621358	2541.225489
466.993026	2543.708257
467.364634	2547.360573
467.736184	2545.611293
468.107674	2545.023999
468.479105	2542.904193
468.850477	2544.262784
469.221790	2543.441076
469.593043	2543.350336
469.964238	2543.912424
470.335373	2542.798329
470.706449	2545.734801
471.077467	2542.329502
471.448425	2543.068031
471.819324	2543.897301
472.190164	2543.559543
472.560945	2544.913093
472.931667	2543.110881
473.302330	2544.386293
473.672934	2544.471992
474.043479	2543.783875
474.413965	2544.000644
474.784393	2543.496529
475.154761	2542.286652
475.525070	2542.480737
475.895321	2543.922507
476.265513	2545.490305
476.635645	2545.364277
477.005719	2546.773279
477.375734	2546.977446
477.745691	2544.797147
478.115588	2548.124308
478.485427	2545.265974
478.855207	2546.473330
479.224928	2545.313865
479.594591	2546.848896
479.964194	2545.911242
480.333739	2544.552651
480.703226	2542.153062
481.072653	2547.385779
481.442022	2547.289997
481.811333	2542.856303
482.180584	2542.387475
482.549777	2540.920499
482.918912	2540.063503
483.287988	2545.802857
483.657005	2546.788403
484.025964	2543.879657
484.394864	2546.042312
484.763706	2544.991231
485.132489	2548.915769
485.501213	2546.100285
485.869879	2546.445604
486.238487	2548.187323
486.607036	2544.711447
486.975527	2546.617003
487.343959	2544.666077
487.712333	2546.251520
488.080648	2544.308155
488.448905	2544.628268
488.817104	2546.687579
489.185244	2548.194884
489.553326	2543.862013
489.921350	2548.562889
490.289315	2549.051881
490.657222	2546.632127
491.025070	2545.913762
491.392861	2546.899308
491.760593	2546.700182
492.128267	2547.652960
492.495883	2546.299411
492.863440	2546.773279
493.230939	2547.380738
493.598380	2548.204967
493.965763	2546.985008
494.333088	2548.512477
494.700354	2548.144473
495.067563	2546.342260
495.434713	2547.847045
495.801805	2546.122970
496.168839	2548.484751
496.535815	2547.181613
496.902733	2544.655994
497.269593	2547.456355
497.636395	2545.197918
498.003139	2548.177240
498.369825	2546.972405
498.736453	2550.110523
499.103023	2546.944678
499.469535	2547.889895
499.835989	2548.744370
500.202385	2543.005017
500.568723	2542.914276
500.935003	2547.237065
501.301226	2541.608617
501.667390	2548.661191
502.033497	2547.264792
502.399546	2550.029864
502.765537	2548.232693
503.131470	2547.973074
503.497345	2547.869730
503.863163	2546.034750
504.228923	2547.421067
504.594625	2546.130532
504.960269	2544.114070
505.325856	2548.202446
505.691385	2550.423074
506.056856	2545.654143
506.422270	2546.503577
506.787625	2546.339740
507.152924	2548.819988
507.518164	2548.439380
507.883347	2546.019627
508.248472	2549.248486
508.613540	2549.906356
508.978550	2549.351829
509.343503	2544.905532
509.708398	2548.187323
510.073236	2548.734288
510.438016	2547.867209
510.802738	2550.113043
511.167403	2548.058773
511.532010	2549.339226
511.896561	2550.314690
512.261053	2548.572971
512.625488	2546.105326
512.989866	2545.666746
513.354186	2548.963660
513.718449	2546.475851
514.082655	2547.811757
514.446803	2549.719833
514.810894	2546.911911
515.174927	2552.371480
515.538904	2548.504915
515.902822	2551.012889
516.266684	2548.489792
516.630488	2550.042467
516.994235	2548.081458
517.357925	2548.033567
517.721558	2550.223949
518.085133	2548.915769
518.448651	2544.040974
518.812112	2545.117260
519.175516	2546.120450
519.538863	2544.033412
519.902152	2547.284956
520.265385	2548.167158
520.628560	2550.105482
520.991678	2548.721685
521.354739	2548.436860
521.717743	2548.663712
522.080690	2547.736139
522.443580	2549.860986
522.806413	2549.248486
523.169189	2550.034906
523.531908	2549.215718
523.894569	2549.243444
524.257174	2549.684545
524.619722	2548.424257
524.982213	2550.660009
525.344647	2548.154555
525.707025	2549.578681
526.069345	2549.535831
526.431608	2548.867878
526.793815	2548.252858
527.155964	2550.130687
527.518057	2550.241593
527.880093	2551.267468
528.242072	2548.973743
528.603995	2550.856614
528.965860	2550.677653
529.327669	2549.046839
529.689421	2550.148332
530.051117	2549.510626
530.412755	2549.157745
530.774337	2548.948537
531.135862	2549.674463
531.497331	2550.531459
531.858743	2548.550286
532.220098	2551.385935
532.581396	2551.685883
532.942638	2550.254196
533.303824	2549.515667
533.664953	2547.622713
534.026025	2549.402241
534.387040	2550.967519
534.747999	2549.079607
535.108902	2550.450801
535.469748	2549.182951
535.830537	2553.636810
536.191270	2548.416695
536.551947	2548.131870
536.912567	2545.434853
537.273131	2547.151366
537.633638	2543.168854
537.994089	2549.031716
538.354483	2550.546583
538.714821	2548.812426
539.075103	2550.942313
539.435328	2551.940462
539.795497	2549.820657
540.155609	2552.449618
540.515665	2550.113043
540.875665	2549.089689
541.235609	2554.594629
541.595496	2551.716130
541.955328	2547.577343
542.315102	2549.114895
542.674821	2550.435677
543.034483	2552.895760
543.394090	2550.360060
543.753640	2550.143290
544.113134	2551.149001
544.472571	2550.831408
544.831953	2550.934752
545.191278	2552.013558
545.550548	2551.673281
545.909761	2550.967519
546.268918	2551.285112
546.628019	2550.488609
546.987064	2551.711089
547.346053	2551.038095
547.704986	2549.679504
548.063863	2548.908208
548.422684	2547.882333
548.781449	2551.227138
549.140158	2547.206818
549.498811	2551.695966
549.857408	2547.859648
550.215949	2548.328475
550.574434	2550.944834
550.932864	2550.813764
551.291237	2548.857796
551.649555	2551.060780
552.007817	2552.731923
552.366022	2549.409802
552.724173	2550.390307
553.082267	2552.842828
553.440305	2549.906356
553.798288	2553.730071
554.156215	2550.569268
554.514086	2548.656150
554.871902	2547.635316
555.229661	2551.040616
555.587365	2544.776982
555.945014	2550.324772
556.302606	2551.055739
556.660143	2551.469114
557.017625	2551.985832
557.375050	2550.009700
557.732421	2552.240410
558.089735	2550.322251
558.446994	2548.993907
558.804197	2552.926007
559.161345	2554.140925
559.518437	2551.524567
559.875474	2550.609597
560.232455	2552.384083
560.589381	2548.600697
560.946251	2551.867365
561.303065	2550.438198
561.659825	2552.842828
562.016528	2551.605225
562.373177	2553.268806
562.729770	2550.234031
563.086307	2552.600853
563.442789	2553.493137
563.799216	2554.536656
564.155587	2552.038764
564.511904	2552.126984
564.868164	2551.824515
565.224370	2549.203115
565.580520	2552.704197
565.936615	2553.218394
566.292654	2551.295194
566.648638	2552.956254
567.004567	2551.446429
567.360441	2548.363763
567.716260	2549.777807
568.072023	2551.743857
568.427732	2552.729402
568.783385	2551.723692
569.138982	2551.176727
569.494525	2551.577499
569.850013	2551.640513
570.205445	2549.258568
570.560823	2549.208156
570.916145	2555.181924
571.271412	2550.483568
571.626625	2551.053219
571.981782	2551.224618
572.336884	2548.822508
572.691931	2548.706562
573.046923	2547.655481
573.401860	2543.824204
573.756743	2551.804351
574.111570	2549.699669
574.466342	2552.154711
574.821059	2550.619679
575.175722	2550.952396
575.530330	2553.755277
575.884882	2550.476007
576.239380	2551.645554
576.593823	2551.716130
576.948211	2554.042623
577.302544	2553.306614
577.656823	2551.491799
578.011047	2552.172355
578.365216	2554.347613
578.719330	2552.424413
579.073389	2553.097407
579.427394	2551.116233
579.781344	2550.571788
580.135239	2555.242418
580.489080	2551.592622
580.842866	2553.046995
581.196597	2556.472459
581.550273	2552.474824
581.903895	2554.879454
582.257463	2553.684701
582.610975	2549.624052
582.964434	2551.945503
583.317837	2550.120605
583.671186	2552.827705
584.024481	2551.164124
584.377721	2550.977601
584.730906	2552.560524
585.084037	2551.501881
585.437113	2553.120092
585.790135	2553.576316
586.143103	2551.774104
586.496016	2553.999773
586.848874	2554.546738
587.201679	2552.290822
587.554428	2553.568754
587.907124	2552.374001
588.259765	2549.858465
588.612352	2551.247303
588.964884	2551.297715
589.317362	2550.360060
589.669786	2550.932231
590.022155	2550.385266
590.374470	2545.896118
590.726731	2547.778989
591.078937	2546.286808
591.431090	2553.946841
591.783188	2548.666232
592.135232	2550.234031
592.487222	2552.830225
592.839157	2553.964485
593.191038	2551.232180
593.542866	2554.254351
593.894639	2552.371480
594.246358	2550.307128
594.598022	2550.458363
594.949633	2553.140256
595.301190	2551.995914
595.652692	2551.348126
596.004141	2549.702189
596.355535	2550.423074
596.706876	2553.634289
597.058162	2552.510112
597.409395	2551.093548
597.760573	2552.406768
598.111698	2550.725544
598.462768	2554.481203
598.813785	2550.334854
599.164748	2554.287119
599.515657	2555.451625
599.866511	2551.801830
600.217312	2551.718651
600.568060	2551.655637
600.918753	2553.001625
601.269392	2554.839125
601.619978	2552.184958
601.970510	2552.429454
602.320988	2550.753270
602.671412	2551.723692
603.021783	2552.527756
603.372100	2554.279557
603.722363	2551.937941
604.072572	2550.909546
604.422728	2550.039947
604.772830	2552.134546
605.122878	2551.408620
605.472872	2551.481717
605.822813	2551.595143
606.172701	2552.815102
606.522534	2551.388455
606.872314	2552.061449
607.222041	2553.210832
607.571714	2549.074566
607.921333	2549.026675
608.270899	2550.304607
608.620411	2550.380225
608.969870	2555.940617
609.319276	2557.337017
609.668627	2559.053530
610.017926	2564.845816
610.367171	2566.489232
610.716362	2566.600137
611.065500	2565.264231
611.414585	2561.700136
611.763616	2560.190310
612.112594	2557.594116
612.461518	2558.662840
612.810389	2553.409958
613.159207	2558.118396
613.507971	2557.614280
613.856682	2554.987839
614.205340	2552.999104
614.553945	2556.432130
614.902496	2554.738302
615.250994	2553.309135
615.599439	2554.271995
615.947830	2551.138918
616.296169	2555.607901
616.644454	2551.637992
616.992686	2556.595967
617.340864	2552.288301
617.688990	2553.830894
618.037063	2552.903322
618.385082	2552.704197
618.733048	2552.966337
619.080961	2553.077242
619.428821	2552.353836
619.776628	2552.343754
620.124382	2553.140256
620.472083	2554.342572
620.819731	2553.283929
621.167326	2554.166131
621.514868	2552.149670
621.862357	2552.747046
622.209793	2551.854762
622.557176	2549.823177
622.904506	2552.353836
623.251783	2554.687891
623.599007	2551.832077
623.946179	2550.314690
624.293297	2552.888199
624.640363	2553.291491
624.987376	2546.672456
625.334336	2547.743701
625.681243	2549.767724
626.028097	2548.512477
626.374899	2553.256203
626.721647	2551.385935
627.068343	2553.760318
627.414987	2552.202602
627.761577	2552.500030
628.108115	2553.644372
628.454600	2554.697973
628.801032	2550.347457
629.147412	2551.206974
629.493739	2550.266799
629.840014	2554.516491
630.186236	2549.828218
630.532405	2555.547407
630.878521	2552.920966
631.224585	2555.126471
631.570597	2552.736964
631.916556	2549.185471
632.262462	2551.234700
632.608316	2551.300235
632.954117	2551.537169
633.299866	2554.292160
633.645562	2550.440718
633.991206	2551.930379
634.336797	2554.070349
634.682336	2550.682694
635.027823	2554.009855
635.373257	2550.027344
635.718639	2550.652447
636.063968	2552.159752
636.409245	2551.448949
636.754470	2550.196222
637.099642	2551.247303
637.444762	2549.296377
637.789829	2549.243444
638.134845	2553.422561
638.479808	2552.560524
638.824719	2548.635985
639.169577	2551.320400
639.514383	2551.690925
639.859137	2549.578681
640.203839	2552.069011
640.548489	2553.029351
640.893086	2551.138918
641.237632	2549.193033
641.582125	2551.464073
641.926566	2551.373332
642.270955	2549.598846
642.615292	2547.907539
642.959576	2548.015923
643.303809	2548.298228
643.647990	2550.062632
643.992118	2550.213867
644.336195	2547.746222
