Dividing Wavelength (nm)	Counts (n)	Blue Motor Position (mm): 6.900000	Red Motor Position (mm): 0.000000	
326.493990	2141.588018
326.888308	2141.588018
327.282561	2141.588018
327.676750	2107.527462
328.070874	2107.383789
328.464933	2110.416043
328.858929	2119.036416
329.252859	2127.124948
329.646726	2138.465023
330.040528	2151.083031
330.434265	2167.726401
330.827938	2184.074863
331.221547	2206.137473
331.615091	2220.955944
332.008571	2243.210118
332.401986	2260.511358
332.795338	2280.045829
333.188625	2299.129117
333.581847	2318.537559
333.975006	2334.455003
334.368100	2356.434433
334.761129	2375.333719
335.154095	2387.470297
335.546996	2407.365211
335.939833	2422.105544
336.332606	2435.363779
336.725315	2448.450614
337.117960	2459.710032
337.510540	2463.823613
337.903056	2479.632672
338.295508	2482.057467
338.687896	2495.350989
339.080220	2500.886176
339.472480	2504.820797
339.864676	2513.206756
340.256807	2517.703465
340.648875	2519.253620
341.040879	2521.806965
341.432818	2525.418951
341.824694	2524.874507
342.216506	2526.190248
342.608253	2527.206040
342.999937	2526.961544
343.391557	2524.652696
343.783113	2523.457943
344.174605	2525.008097
344.566033	2519.004083
344.957397	2521.693539
345.348697	2517.804288
345.739934	2517.136336
346.131106	2516.637261
346.522215	2513.612569
346.913260	2512.264060
347.304241	2511.255830
347.695159	2509.481343
348.086012	2506.796929
348.476802	2503.820128
348.867528	2502.655621
349.258191	2503.109325
349.648789	2503.830210
350.039324	2501.518841
350.429796	2499.267966
350.820203	2497.198572
351.210548	2497.793428
351.600828	2496.434837
351.991045	2495.280413
352.381198	2493.538694
352.771288	2494.108345
353.161314	2493.160608
353.551276	2492.906030
353.941175	2494.952738
354.331010	2493.468118
354.720782	2492.381750
355.110490	2494.249497
355.500135	2493.100114
355.889717	2492.938797
356.279235	2490.478714
356.668689	2494.309991
357.058080	2491.121461
357.447408	2492.583396
357.836672	2492.661534
358.225873	2494.988026
358.615010	2489.031903
359.004084	2494.342758
359.393095	2496.074395
359.782043	2496.651607
360.170927	2495.703870
360.559748	2496.886021
360.948505	2498.310147
361.337199	2499.971207
361.725830	2499.885507
362.114398	2500.979438
362.502903	2499.376351
362.891344	2498.763850
363.279722	2501.743172
363.668037	2503.474809
364.056289	2500.603872
364.444478	2503.661331
364.832603	2503.704181
365.220665	2504.339367
365.608665	2504.140241
365.996601	2503.983965
366.384474	2503.452123
366.772284	2506.159223
367.160031	2504.699809
367.547715	2504.039418
367.935336	2505.950015
368.322893	2508.037053
368.710388	2505.564367
369.097820	2511.825480
369.485189	2507.651405
369.872495	2506.756600
370.259738	2508.447907
370.646918	2505.904645
371.034035	2506.612927
371.421090	2508.480674
371.808081	2509.463699
372.195010	2507.928668
372.581875	2509.541837
372.968678	2506.559995
373.355418	2508.289111
373.742096	2508.190808
374.128710	2508.901611
374.515262	2506.887670
374.901751	2509.239368
375.288177	2511.424708
375.674540	2510.524862
376.060841	2511.994359
376.447079	2509.599811
376.833254	2508.286590
377.219367	2507.074193
377.605417	2510.784482
377.991404	2507.180057
378.377329	2506.373472
378.763191	2508.034532
379.148991	2514.393948
379.534727	2512.816067
379.920402	2510.981087
380.306013	2512.465707
380.691563	2513.529390
381.077049	2511.359173
381.462474	2514.542662
381.847835	2512.332116
382.233134	2514.315810
382.618371	2515.039216
383.003545	2518.378980
383.388657	2516.700276
383.773706	2515.563496
384.158693	2513.965450
384.543618	2515.966788
384.928480	2513.695748
385.313280	2517.274967
385.698017	2517.960564
386.082692	2518.121881
386.467305	2516.012158
386.851856	2516.241531
387.236344	2518.613394
387.620770	2516.670029
388.005133	2518.222704
388.389435	2514.293125
388.773674	2518.205060
389.157851	2519.445184
389.541965	2518.580626
389.926018	2519.316635
390.310008	2518.250431
390.693936	2516.758249
391.077802	2518.200019
391.461606	2518.063908
391.845348	2517.950482
392.229027	2517.400996
392.612645	2517.816891
392.996200	2520.690349
393.379694	2519.238497
393.763125	2518.880575
394.146494	2519.394773
394.529801	2521.302849
394.913047	2520.740761
395.296230	2519.906450
395.679351	2521.416275
396.062410	2524.723272
396.445408	2520.576923
396.828343	2520.773528
397.211217	2517.781603
397.594028	2519.077180
397.976778	2516.354957
398.359466	2522.379136
398.742092	2519.019207
399.124656	2524.062881
399.507158	2520.962571
399.889598	2523.515916
400.271977	2523.402490
400.654294	2522.031296
401.036549	2521.927952
401.418742	2523.503313
401.800874	2524.375433
402.182944	2522.855525
402.564952	2525.214785
402.946898	2522.616070
403.328783	2522.195133
403.710606	2525.696215
404.092367	2523.674712
404.474067	2522.437109
404.855705	2523.515916
405.237282	2523.644465
405.618797	2524.287212
406.000250	2525.751667
406.381642	2523.795700
406.762972	2523.016842
407.144240	2524.319980
407.525447	2527.407687
407.906593	2527.110258
408.287677	2526.732172
408.668700	2528.002543
409.049661	2528.526823
409.430560	2525.955834
409.811399	2527.442975
410.192176	2528.930115
410.572891	2525.391225
410.953545	2527.662265
411.334138	2527.649662
411.714669	2527.407687
412.095139	2529.698891
412.475547	2527.594209
412.855894	2529.535053
413.236180	2529.265352
413.616405	2529.499765
413.996568	2531.435568
414.376670	2528.882224
414.756711	2529.308202
415.136691	2529.056144
415.516609	2527.478263
415.896466	2533.439427
416.276262	2530.936494
416.655997	2525.897861
417.035670	2524.640093
417.415283	2527.609333
417.794834	2524.367871
418.174324	2528.788963
418.553753	2530.462626
418.933121	2530.739889
419.312428	2530.656710
419.691674	2531.430527
420.070859	2530.230733
420.449983	2530.462626
420.829045	2531.974972
421.208047	2530.482790
421.586988	2532.489170
421.965867	2531.899355
422.344686	2531.395239
422.723444	2531.087729
423.102141	2530.548325
423.480777	2532.181659
423.859352	2530.984385
424.237866	2530.404653
424.616319	2531.445651
424.994712	2533.076464
425.373044	2532.647966
425.751314	2532.388347
426.129524	2531.856505
426.507673	2532.922709
426.885762	2535.065199
427.263789	2535.050076
427.641756	2531.352389
428.019662	2532.978162
428.397508	2534.535878
428.775292	2534.114942
429.153016	2532.973120
429.530679	2534.460261
429.908282	2533.537730
430.285824	2534.233409
430.663305	2532.897503
431.040726	2532.600075
431.418086	2533.774664
431.795385	2535.332380
432.172624	2535.481094
432.549802	2533.081505
432.926920	2534.137627
433.303977	2537.459747
433.680974	2534.808100
434.057910	2535.907072
434.434786	2533.043697
434.811601	2533.510003
435.188355	2536.512010
435.565050	2535.143337
435.941683	2535.909592
436.318257	2532.705939
436.694770	2532.826927
437.071222	2532.978162
437.447614	2532.665610
437.823946	2536.416228
438.200218	2534.185518
438.576429	2536.950591
438.952580	2536.365817
439.328670	2536.391023
439.704700	2537.610982
440.080670	2538.513348
440.456580	2538.198276
440.832429	2535.652494
441.208218	2537.852957
441.583947	2536.116280
441.959616	2536.257432
442.335224	2538.629295
442.710773	2536.733821
443.086261	2538.430169
443.461689	2537.202648
443.837057	2536.111239
444.212365	2541.144831
444.587612	2537.968904
444.962800	2537.855478
445.337927	2538.697351
445.712995	2538.689789
446.088002	2536.890097
446.462949	2538.480581
446.837837	2537.721887
447.212664	2539.093081
447.587431	2539.529141
447.962139	2539.082999
448.336786	2540.948226
448.711374	2538.465457
449.085901	2541.621220
449.460369	2538.841023
449.834776	2536.038142
450.209124	2537.414377
450.583412	2537.489994
450.957640	2540.486960
451.331808	2539.773637
451.705917	2539.587114
452.079965	2538.707433
452.453954	2540.154244
452.827883	2543.095757
453.201752	2537.353883
453.575562	2540.461754
453.949311	2540.706250
454.323001	2539.907227
454.696632	2540.408822
455.070202	2540.509645
455.443713	2541.401930
455.817164	2536.632998
456.190556	2537.323636
456.563888	2538.573842
456.937160	2537.873122
457.310373	2538.304141
457.683526	2539.561908
458.056619	2540.280273
458.429653	2539.055273
458.802628	2541.669111
459.175542	2541.616179
459.548398	2541.785057
459.921194	2539.627443
460.293930	2541.396888
460.666607	2541.827907
461.039224	2543.746066
461.411782	2541.137269
461.784280	2540.897814
462.156719	2541.946374
462.529099	2539.463606
462.901419	2542.997455
463.273680	2541.023843
463.645882	2542.090047
464.018024	2543.796478
464.390106	2540.590304
464.762130	2544.018288
465.134094	2541.084337
465.505999	2542.014430
465.877845	2542.969728
466.249631	2541.611138
466.621358	2543.680531
466.993026	2545.696993
467.364634	2545.969215
467.736184	2544.066179
468.107674	2540.676003
468.479105	2542.221117
468.850477	2543.360418
469.221790	2543.887218
469.593043	2541.379244
469.964238	2541.979142
470.335373	2544.698844
470.706449	2541.487629
471.077467	2543.390665
471.448425	2543.977959
471.819324	2545.359235
472.190164	2543.325130
472.560945	2543.589790
472.931667	2547.448794
473.302330	2545.747404
473.672934	2543.062990
474.043479	2544.466951
474.413965	2540.718853
474.784393	2540.592824
475.154761	2541.331353
475.525070	2537.739531
475.895321	2541.162475
476.265513	2542.450490
476.635645	2542.382434
477.005719	2545.102137
477.375734	2544.870243
477.745691	2544.895449
478.115588	2546.392672
478.485427	2547.436191
478.855207	2544.797147
479.224928	2542.485778
479.594591	2543.488967
479.964194	2546.009544
480.333739	2543.095757
480.703226	2544.829914
481.072653	2544.469472
481.442022	2545.891077
481.811333	2545.220604
482.180584	2544.676159
482.549777	2546.324616
482.918912	2543.413350
483.287988	2543.821683
483.657005	2547.390820
484.025964	2545.853268
484.394864	2545.061807
484.763706	2546.387631
485.132489	2545.230686
485.501213	2545.525593
485.869879	2544.696324
486.238487	2545.268495
486.607036	2543.050387
486.975527	2545.780172
487.343959	2544.149358
487.712333	2548.051212
488.080648	2545.144986
488.448905	2546.367466
488.817104	2544.885367
489.185244	2546.546427
489.553326	2545.049204
489.921350	2546.702703
490.289315	2544.739173
490.657222	2546.493495
491.025070	2544.918134
491.392861	2547.968032
491.760593	2548.285625
492.128267	2546.251520
492.495883	2544.905532
492.863440	2547.627755
493.230939	2546.158258
493.598380	2548.313352
493.965763	2542.629451
494.333088	2543.350336
494.700354	2542.722712
495.067563	2545.591128
495.434713	2541.926210
495.801805	2548.146993
496.168839	2546.453166
496.535815	2545.979297
496.902733	2545.576005
497.269593	2547.713454
497.636395	2546.949719
498.003139	2548.114226
498.369825	2547.836962
498.736453	2546.455686
499.103023	2547.703372
499.469535	2547.226983
499.835989	2547.741181
500.202385	2548.658671
500.568723	2546.415357
500.935003	2548.704041
501.301226	2548.507436
501.667390	2547.552137
502.033497	2547.544576
502.399546	2547.405944
502.765537	2547.602549
503.131470	2549.666901
503.497345	2546.969884
503.863163	2549.629093
504.228923	2548.474668
504.594625	2549.104813
504.960269	2547.174051
505.325856	2546.911911
505.691385	2544.852599
506.056856	2547.705892
506.422270	2547.660522
506.787625	2548.298228
507.152924	2548.522559
507.518164	2549.029195
507.883347	2546.412837
508.248472	2546.682538
508.613540	2547.471479
508.978550	2546.140614
509.343503	2547.446273
509.708398	2547.252189
510.073236	2550.087838
510.438016	2546.475851
510.802738	2545.782692
511.167403	2550.027344
511.532010	2548.774617
511.896561	2546.649771
512.261053	2550.977601
512.625488	2544.640871
512.989866	2544.335881
513.354186	2542.601724
513.718449	2546.874102
514.082655	2545.719678
514.446803	2546.496016
514.810894	2550.191181
515.174927	2547.960471
515.538904	2550.982642
515.902822	2548.278063
516.266684	2547.133722
516.630488	2548.262940
516.994235	2547.572302
517.357925	2548.946016
517.721558	2549.994576
518.085133	2549.230842
518.448651	2547.993238
518.812112	2549.969371
519.175516	2545.424770
519.538863	2551.010369
519.902152	2548.247817
520.265385	2549.409802
520.628560	2551.282591
520.991678	2548.267981
521.354739	2547.847045
521.717743	2550.919628
522.080690	2549.187992
522.443580	2549.722354
522.806413	2551.015410
523.169189	2548.446942
523.531908	2548.066335
523.894569	2549.858465
524.257174	2549.624052
524.619722	2547.589946
524.982213	2551.075904
525.344647	2548.593136
525.707025	2548.023485
526.069345	2549.462735
526.431608	2551.549772
526.793815	2549.518187
527.155964	2549.629093
527.518057	2546.848896
527.880093	2551.103630
528.242072	2547.095913
528.603995	2549.533311
528.965860	2550.596994
529.327669	2551.625390
529.689421	2547.854607
530.051117	2550.982643
530.412755	2548.802343
530.774337	2549.296377
531.135862	2551.222097
531.497331	2550.019782
531.858743	2546.974925
532.220098	2546.455686
532.581396	2544.459389
532.942638	2549.041798
533.303824	2546.511139
533.664953	2550.425595
534.026025	2548.419216
534.387040	2551.859803
534.747999	2549.344267
535.108902	2548.943496
535.469748	2550.851573
535.830537	2549.409802
536.191270	2550.276881
536.551947	2549.954247
536.912567	2546.833773
537.273131	2548.578012
537.633638	2551.065822
537.994089	2551.945503
538.354483	2550.914587
538.714821	2548.988866
539.075103	2548.719164
539.435328	2549.374514
539.795497	2549.540873
540.155609	2551.890050
540.515665	2550.183620
540.875665	2549.694628
541.235609	2552.220246
541.595496	2549.717313
541.955328	2551.683363
542.315102	2550.612118
542.674821	2549.727395
543.034483	2552.074052
543.394090	2551.232180
543.753640	2549.901315
544.113134	2550.266799
544.472571	2552.442057
544.831953	2551.353167
545.191278	2555.612942
545.550548	2553.064639
545.909761	2548.893084
546.268918	2551.572458
546.628019	2549.800492
546.987064	2550.970040
547.346053	2550.468445
547.704986	2551.960626
548.063863	2549.230842
548.422684	2549.994576
548.781449	2550.720503
549.140158	2552.308466
549.498811	2551.335523
549.857408	2548.633465
550.215949	2546.700182
550.574434	2546.730429
550.932864	2550.493651
551.291237	2548.590615
551.649555	2553.871224
552.007817	2548.361243
552.366022	2548.499874
552.724173	2553.414999
553.082267	2551.930379
553.440305	2552.651264
553.798288	2551.146480
554.156215	2550.367622
554.514086	2552.631100
554.871902	2552.074052
555.229661	2550.571788
555.587365	2553.815771
555.945014	2551.191850
556.302606	2551.630431
556.660143	2553.546069
557.017625	2549.676984
557.375050	2553.959444
557.732421	2552.189999
558.089735	2552.540359
558.446994	2552.318548
558.804197	2552.472303
559.161345	2557.054712
559.518437	2550.765873
559.875474	2552.477345
560.232455	2554.841646
560.589381	2553.014227
560.946251	2556.303580
561.303065	2552.626059
561.659825	2553.591440
562.016528	2551.811912
562.373177	2552.179917
562.729770	2551.585060
563.086307	2551.819474
563.442789	2551.922818
563.799216	2551.196892
564.155587	2552.079093
564.511904	2550.483568
564.868164	2550.720502
565.224370	2551.711089
565.580520	2552.038764
565.936615	2553.243600
566.292654	2552.651264
566.648638	2551.176727
567.004567	2551.491799
567.360441	2554.957592
567.716260	2550.455842
568.072023	2553.833415
568.427732	2548.913249
568.783385	2549.891233
569.138982	2547.368135
569.494525	2549.828218
569.850013	2547.128680
570.205445	2550.549103
570.560823	2552.457180
570.916145	2549.979453
571.271412	2551.993394
571.626625	2553.833415
571.981782	2550.352498
572.336884	2551.839639
572.691931	2552.822664
573.046923	2553.626728
573.401860	2554.037582
573.756743	2551.925338
574.111570	2551.869886
574.466342	2552.200081
574.821059	2552.293343
575.175722	2554.939948
575.530330	2555.607901
575.884882	2553.644372
576.239380	2550.360060
576.593823	2553.500699
576.948211	2553.745195
577.302544	2552.011038
577.656823	2550.904505
578.011047	2553.394835
578.365216	2550.276881
578.719330	2552.686553
579.073389	2551.975750
579.427394	2552.573127
579.781344	2551.761501
580.135239	2551.627910
580.489080	2551.083466
580.842866	2550.518856
581.196597	2556.767367
581.550273	2552.321069
581.903895	2552.792417
582.257463	2551.365770
582.610975	2551.645554
582.964434	2550.385266
583.317837	2552.421892
583.671186	2552.593291
584.024481	2552.000956
584.377721	2551.464073
584.730906	2552.845349
585.084037	2550.770914
585.437113	2552.144628
585.790135	2554.647561
586.143103	2552.764690
586.496016	2551.607746
586.848874	2548.633465
587.201679	2547.589946
587.554428	2547.821839
587.907124	2552.598332
588.259765	2547.327806
588.612352	2551.602704
588.964884	2551.975750
589.317362	2552.822664
589.669786	2550.405430
590.022155	2553.735113
590.374470	2552.421892
590.726731	2550.216387
591.078937	2552.772252
591.431090	2551.877447
591.783188	2550.176058
592.135232	2551.746377
592.487222	2551.161603
592.839157	2551.827036
593.191038	2551.771583
593.542866	2551.940462
593.894639	2551.890050
594.246358	2550.251675
594.598022	2550.954916
594.949633	2551.532128
595.301190	2550.022303
595.652692	2552.278219
596.004141	2552.290822
596.355535	2554.201419
596.706876	2551.612787
597.058162	2550.793599
597.409395	2550.760832
597.760573	2552.366439
598.111698	2554.854249
598.462768	2553.568754
598.813785	2550.733105
599.164748	2550.602035
599.515657	2548.509957
599.866511	2550.760832
600.217312	2552.487427
600.568060	2552.671429
600.918753	2553.173024
601.269392	2552.142108
601.619978	2551.330482
601.970510	2552.701676
602.320988	2548.109185
602.671412	2551.867365
603.021783	2549.268650
603.372100	2552.137067
603.722363	2552.000956
604.072572	2548.812426
604.422728	2553.697304
604.772830	2549.840821
605.122878	2548.648588
605.472872	2547.721016
605.822813	2548.487271
606.172701	2552.971378
606.522534	2549.866027
606.872314	2552.016079
607.222041	2553.704866
607.571714	2550.886861
607.921333	2550.859134
608.270899	2553.034392
608.620411	2553.452808
608.969870	2553.120092
609.319276	2552.154711
609.668627	2556.941286
610.017926	2561.748027
610.367171	2558.589744
610.716362	2557.941955
611.065500	2556.868190
611.414585	2555.071018
611.763616	2556.447253
612.112594	2554.395504
612.461518	2553.967006
612.810389	2553.110009
613.159207	2555.096224
613.507971	2554.027499
613.856682	2556.028838
614.205340	2551.885009
614.553945	2555.159238
614.902496	2551.229659
615.250994	2550.619679
615.599439	2551.522046
615.947830	2555.239897
616.296169	2552.558003
616.644454	2554.234187
616.992686	2550.796120
617.340864	2550.128167
617.688990	2550.533980
618.037063	2554.430792
618.385082	2550.907025
618.733048	2554.670247
619.080961	2550.390307
619.428821	2553.588919
619.776628	2554.879454
620.124382	2552.830225
620.472083	2552.593291
620.819731	2552.462221
621.167326	2552.472303
621.514868	2551.428785
621.862357	2552.855431
622.209793	2551.758980
622.557176	2553.198230
622.904506	2550.889381
623.251783	2549.394679
623.599007	2549.545914
623.946179	2548.330996
624.293297	2549.175389
624.640363	2549.893753
624.987376	2552.920966
625.334336	2553.364588
625.681243	2553.677139
626.028097	2552.852911
626.374899	2550.811243
626.721647	2551.254865
627.068343	2551.847200
627.414987	2551.406099
627.761577	2549.916438
628.108115	2553.987170
628.454600	2551.643034
628.801032	2552.467262
629.147412	2552.245452
629.493739	2549.926521
629.840014	2554.662685
630.186236	2553.762839
630.532405	2555.159238
630.878521	2552.865513
631.224585	2553.155380
631.570597	2551.864844
631.916556	2551.406099
632.262462	2552.684032
632.608316	2551.461552
632.954117	2553.742674
633.299866	2552.343754
633.645562	2552.011038
633.991206	2551.673281
634.336797	2549.490461
634.682336	2554.027499
635.027823	2550.425595
635.373257	2549.616490
635.718639	2551.022972
636.063968	2552.673950
636.409245	2551.287632
636.754470	2550.690256
637.099642	2551.078424
637.444762	2553.104968
637.789829	2552.900802
638.134845	2551.101110
638.479808	2552.096738
638.824719	2551.083466
639.169577	2551.779145
639.514383	2551.622869
639.859137	2551.451470
640.203839	2554.191337
640.548489	2554.309804
640.893086	2547.857127
641.237632	2547.521890
641.582125	2547.811757
641.926566	2548.530121
642.270955	2550.818805
642.615292	2548.063814
642.959576	2553.621687
643.303809	2550.400389
643.647990	2551.252344
643.992118	2553.009186
644.336195	2550.602035
