Dividing Wavelength (nm)	Counts (n)	Blue Motor Position (mm): 38.500000	Red Motor Position (mm): 0.000000	
326.493990	2154.924391
326.888308	2154.924391
327.282561	2154.924391
327.676750	2130.121914
328.070874	2131.130144
328.464933	2135.672224
328.858929	2142.397123
329.252859	2157.563435
329.646726	2171.028357
330.040528	2184.778104
330.434265	2201.434076
330.827938	2224.671275
331.221547	2245.362691
331.615091	2262.396749
332.008571	2283.816612
332.401986	2302.857050
332.795338	2324.191213
333.188625	2342.286435
333.581847	2363.673530
333.975006	2381.791437
334.368100	2401.696433
334.761129	2419.930287
335.154095	2434.426124
335.546996	2458.948817
335.939833	2489.641883
336.332606	2502.534633
336.725315	2515.550893
337.117960	2525.330731
337.510540	2532.947915
337.903056	2541.061652
338.295508	2546.238917
338.687896	2554.297201
339.080220	2563.232646
339.472480	2569.198852
339.864676	2571.553071
340.256807	2573.075499
340.648875	2576.233782
341.040879	2580.460790
341.432818	2580.178485
341.824694	2580.039853
342.216506	2581.136304
342.608253	2579.891139
342.999937	2580.491037
343.391557	2578.235120
343.783113	2579.346695
344.174605	2577.219328
344.566033	2575.835531
344.957397	2573.481312
345.348697	2571.038873
345.739934	2571.651373
346.131106	2569.098029
346.522215	2566.015363
346.913260	2563.898079
347.304241	2563.734241
347.695159	2562.191648
348.086012	2559.260217
348.476802	2555.078580
348.867528	2556.467418
349.258191	2557.354661
349.648789	2554.287119
350.039324	2550.833928
350.429796	2554.806358
350.820203	2553.430123
351.210548	2551.302756
351.600828	2549.031716
351.991045	2550.165976
352.381198	2549.361912
352.771288	2547.562220
353.161314	2550.632282
353.551276	2548.245296
353.941175	2550.113043
354.331010	2547.375697
354.720782	2550.554144
355.110490	2548.840152
355.500135	2548.066335
355.889717	2549.392158
356.279235	2549.616490
356.668689	2548.187323
357.058080	2551.610266
357.447408	2545.633978
357.836672	2550.042467
358.225873	2547.698331
358.615010	2550.014741
359.004084	2552.520194
359.393095	2551.741336
359.782043	2552.880637
360.170927	2552.943651
360.559748	2556.356512
360.948505	2555.285267
361.337199	2556.926163
361.725830	2556.603529
362.114398	2558.015052
362.502903	2558.612429
362.891344	2557.236194
363.279722	2557.578992
363.668037	2562.002605
364.056289	2556.485062
364.444478	2559.592933
364.832603	2559.696277
365.220665	2561.506051
365.608665	2559.514795
365.996601	2561.445557
366.384474	2562.282389
366.772284	2562.665517
367.160031	2559.534960
367.547715	2559.577810
367.935336	2559.968499
368.322893	2565.642318
368.710388	2564.041752
369.097820	2563.872873
369.485189	2563.497307
369.872495	2563.583007
370.259738	2562.665517
370.646918	2562.501679
371.034035	2563.157029
371.421090	2565.743141
371.808081	2566.726166
372.195010	2564.205589
372.581875	2567.162226
372.968678	2563.913202
373.355418	2565.980075
373.742096	2567.222720
374.128710	2567.225240
374.515262	2570.267577
374.901751	2571.895869
375.288177	2568.916547
375.674540	2565.710373
376.060841	2570.174315
376.447079	2567.242884
376.833254	2569.196331
377.219367	2564.785322
377.605417	2566.307750
377.991404	2566.474108
378.377329	2564.434962
378.763191	2566.786660
379.148991	2570.028122
379.534727	2569.897052
379.920402	2570.854871
380.306013	2573.040211
380.691563	2573.932495
381.077049	2570.507031
381.462474	2571.769840
381.847835	2571.870663
382.233134	2571.507700
382.618371	2573.725808
383.003545	2572.331929
383.388657	2572.601631
383.773706	2573.733370
384.158693	2572.117680
384.543618	2575.149934
384.928480	2574.159347
385.313280	2575.563309
385.698017	2574.043401
386.082692	2576.511046
386.467305	2578.091447
386.851856	2579.142528
387.236344	2575.863257
387.620770	2578.262847
388.005133	2576.924420
388.389435	2578.227558
388.773674	2577.095819
389.157851	2576.506004
389.541965	2576.095150
389.926018	2578.978690
390.310008	2580.052456
390.693936	2579.918866
391.077802	2577.103381
391.461606	2577.685634
391.845348	2580.964905
392.229027	2585.141501
392.612645	2580.846438
392.996200	2583.795513
393.379694	2583.619072
393.763125	2585.882551
394.146494	2583.452714
394.529801	2585.746439
394.913047	2585.585123
395.296230	2587.163004
395.679351	2587.510843
396.062410	2585.144022
396.445408	2587.069742
396.828343	2590.033941
397.211217	2583.437591
397.594028	2586.807602
397.976778	2591.894127
398.359466	2592.012594
398.742092	2593.202306
399.124656	2596.690784
399.507158	2600.685899
399.889598	2605.502721
400.271977	2607.236878
400.654294	2611.990686
401.036549	2615.673249
401.418742	2617.833384
401.800874	2624.621297
402.182944	2628.387039
402.564952	2635.666465
402.946898	2641.262146
403.328783	2645.693320
403.710606	2651.838487
404.092367	2662.762667
404.474067	2671.229285
404.855705	2677.671880
405.237282	2684.996676
405.618797	2696.626618
406.000250	2708.238916
406.381642	2722.596122
406.762972	2731.574417
407.144240	2738.942064
407.525447	2755.325814
407.906593	2761.430651
408.287677	2779.717437
408.668700	2795.092956
409.049661	2803.816672
409.430560	2823.154539
409.811399	2833.551918
410.192176	2851.344671
410.572891	2865.109542
410.953545	2891.925959
411.334138	2895.522823
411.714669	2926.183120
412.095139	2915.173240
412.475547	2953.717903
412.855894	2960.979685
413.236180	2990.117554
413.616405	2995.950169
413.996568	3018.516894
414.376670	3036.450799
414.756711	3047.828683
415.136691	3075.257601
415.516609	3101.910182
415.896466	3122.231073
416.276262	3150.320382
416.655997	3182.175433
417.035670	3202.370296
417.415283	3258.037237
417.794834	3290.716517
418.174324	3291.565951
418.553753	3308.670586
418.933121	3356.503574
419.312428	3366.404401
419.691674	3375.947305
420.070859	3419.782658
420.449983	3418.025816
420.829045	3467.804690
421.208047	3470.060606
421.586988	3523.340561
421.965867	3559.021848
422.344686	3580.759303
422.723444	3625.935603
423.102141	3556.997825
423.480777	3655.544821
423.859352	3641.482522
424.237866	3735.217737
424.616319	3733.710432
424.994712	3798.121254
425.373044	3799.931028
425.751314	3866.930484
426.129524	3818.154800
426.507673	3919.887805
426.885762	3905.785177
427.263789	3940.065023
427.641756	3951.077424
428.019662	3987.313237
428.397508	3997.677850
428.775292	4040.504972
429.153016	4051.860171
429.530679	4070.441864
429.908282	4085.492229
430.285824	4066.671081
430.663305	4143.243688
431.040726	4106.627267
431.418086	4104.756999
431.795385	4178.199048
432.172624	4218.442580
432.549802	4188.956871
432.926920	4208.473698
433.303977	4205.360785
433.680974	4251.648660
434.057910	4273.650776
434.434786	4279.954739
434.811601	4276.791415
435.188355	4389.239393
435.565050	4356.580277
435.941683	4355.481306
436.318257	4449.254329
436.694770	4450.287766
437.071222	4508.447557
437.447614	4444.492959
437.823946	4449.488743
438.200218	4466.371567
438.576429	4450.179381
438.952580	4475.307012
439.328670	4484.456706
439.704700	4525.857182
440.080670	4490.120443
440.456580	4550.470616
440.832429	4585.274742
441.208218	4485.197756
441.583947	4539.639697
441.959616	4560.111823
442.335224	4578.088577
442.710773	4605.396508
443.086261	4659.535979
443.461689	4613.028815
443.837057	4625.712358
444.212365	4696.810271
444.587612	4704.026683
444.962800	4670.540818
445.337927	4712.049679
445.712995	4597.060960
446.088002	4792.491371
446.462949	4812.046007
446.837837	4830.110982
447.212664	4816.608251
447.587431	5045.340524
447.962139	5347.605588
448.336786	5681.503893
448.711374	5667.033261
449.085901	5310.651410
449.460369	5246.936267
449.834776	5179.646945
450.209124	5421.652577
450.583412	5429.305048
450.957640	5551.006064
451.331808	5410.909878
451.705917	5264.633237
452.079965	5258.417495
452.453954	5292.808246
452.827883	5260.812043
453.201752	5266.233804
453.575562	5300.173372
453.949311	5433.680770
454.323001	5433.809319
454.696632	5429.932672
455.070202	5580.428758
455.443713	5612.397235
455.817164	5710.351896
456.190556	5779.158605
456.563888	5755.162712
456.937160	5826.522766
457.310373	5672.596174
457.683526	5730.279577
458.056619	5726.405450
458.429653	5705.179672
458.802628	5753.095839
459.175542	5784.313184
459.548398	5923.063382
459.921194	6111.922649
460.293930	6169.727040
460.666607	6423.929743
461.039224	6637.223483
461.411782	6763.048163
461.784280	6678.409710
462.156719	6684.643097
462.529099	6639.968391
462.901419	6504.162227
463.273680	6373.132557
463.645882	6360.020515
464.018024	6363.035125
464.390106	6426.384785
464.762130	6695.116094
465.134094	7080.988694
465.505999	7719.334883
465.877845	8426.253366
466.249631	8775.328064
466.621358	8694.435189
466.993026	8497.167277
467.364634	8284.657437
467.736184	8002.186463
468.107674	7850.903957
468.479105	7768.193746
468.850477	7698.030966
469.221790	7525.084101
469.593043	7304.261398
469.964238	7198.921447
470.335373	7180.299425
470.706449	7335.539237
471.077467	7529.724483
471.448425	8192.628652
471.819324	8766.392619
472.190164	8797.735993
472.560945	8316.978794
472.931667	7847.221394
473.302330	7656.491859
473.672934	7533.838065
474.043479	7607.156607
474.413965	7512.481217
474.784393	7459.874256
475.154761	7617.128009
475.525070	7635.654249
475.895321	7582.311280
476.265513	7683.704007
476.635645	7852.113834
477.005719	7838.840476
477.375734	7924.870287
477.745691	8038.255919
478.115588	8238.672031
478.485427	8481.625400
478.855207	8957.981671
479.224928	9386.449501
479.594591	9764.553683
479.964194	9776.115569
480.333739	9861.308549
480.703226	9861.449701
481.072653	9963.858221
481.442022	10074.894676
481.811333	10227.061904
482.180584	10063.040402
482.549777	10007.123924
482.918912	9936.462070
483.287988	9927.811450
483.657005	9840.753244
484.025964	9753.485830
484.394864	9816.908586
484.763706	9768.730279
485.132489	9686.234317
485.501213	9677.802987
485.869879	9742.244057
486.238487	9678.140744
486.607036	9754.552034
486.975527	9699.807624
487.343959	9759.404144
487.712333	9803.824272
488.080648	9844.057720
488.448905	9949.259039
488.817104	9949.921951
489.185244	10118.921593
489.553326	10334.337658
489.921350	10805.499020
490.289315	11439.439240
490.657222	11727.959598
491.025070	11903.290929
491.392861	11813.717187
491.760593	11650.214923
492.128267	11398.177396
492.495883	11167.156438
492.863440	10928.414954
493.230939	10701.207629
493.598380	10521.583756
493.965763	10501.383853
494.333088	10368.551969
494.700354	10295.863572
495.067563	10274.214337
495.434713	10274.990675
495.801805	10322.503550
496.168839	10269.740313
496.535815	10244.088402
496.902733	10298.406834
497.269593	10251.493857
497.636395	10265.311659
498.003139	10375.256704
498.369825	10295.495568
498.736453	10391.501822
499.103023	10328.653757
499.469535	10342.146406
499.835989	10387.357994
500.202385	10364.435867
500.568723	10381.129648
500.935003	10444.108783
501.301226	10416.021995
501.667390	10578.591644
502.033497	10677.637715
502.399546	10600.865983
502.765537	10506.891313
503.131470	10612.682447
503.497345	10704.559997
503.863163	10482.461882
504.228923	10617.821904
504.594625	10725.170754
504.960269	10637.414348
505.325856	10785.299117
505.691385	10667.303349
506.056856	10732.845911
506.422270	10837.717034
506.787625	10774.422827
507.152924	10826.394603
507.518164	10884.864426
507.883347	10759.879098
508.248472	10827.027268
508.613540	10940.332242
508.978550	11013.179435
509.343503	10992.185550
509.708398	11046.503983
510.073236	11173.462922
510.438016	11188.069665
510.802738	11109.341965
511.167403	11229.003834
511.532010	11285.794953
511.896561	11382.456557
512.261053	11576.387225
512.625488	11497.110040
512.989866	11485.757361
513.354186	11457.443721
513.718449	11469.557613
514.082655	11607.339910
514.446803	11573.919580
514.810894	11674.233501
515.174927	11680.469408
515.538904	11665.298056
515.902822	11826.894763
516.266684	11699.865248
516.630488	11788.753393
516.994235	11794.089454
517.357925	11896.855896
517.721558	11960.092130
518.085133	12020.313753
518.448651	12053.177035
518.812112	12012.681447
519.175516	12010.954851
519.538863	12112.009821
519.902152	12118.762447
520.265385	12230.391237
520.628560	12251.712797
520.991678	12198.647091
521.354739	12247.309349
521.717743	12323.052686
522.080690	12301.322792
522.443580	12428.722832
522.806413	12451.261831
523.169189	12428.619489
523.531908	12492.868994
523.894569	12454.246194
524.257174	12474.519194
524.619722	12584.441554
524.982213	12548.024259
525.344647	12550.670864
525.707025	12558.522462
526.069345	12660.946105
526.431608	12642.104792
526.793815	12719.778891
527.155964	12617.919857
527.518057	12646.830874
527.880093	12605.843773
528.242072	12727.895148
528.603995	12639.984987
528.965860	12664.948781
529.327669	12691.150178
529.689421	12637.494657
530.051117	12643.115544
530.412755	12682.880165
530.774337	12691.288810
531.135862	12656.121721
531.497331	12698.447248
531.858743	12667.673525
532.220098	12759.039397
532.581396	12682.126513
532.942638	12605.937034
533.303824	12681.148529
533.664953	12654.543839
534.026025	12617.624949
534.387040	12712.658261
534.747999	12687.318901
535.108902	12734.398237
535.469748	12612.616563
535.830537	12633.761683
536.191270	12685.632635
536.551947	12611.126902
536.912567	12667.343329
537.273131	12698.807691
537.633638	12571.508474
537.994089	12641.721665
538.354483	12551.800083
538.714821	12678.471676
539.075103	12769.005758
539.435328	12689.169005
539.795497	12675.378928
540.155609	12664.182526
540.515665	12766.649019
540.875665	12626.630971
541.235609	12716.476935
541.595496	12683.056606
541.955328	12859.426414
542.315102	12718.203530
542.674821	12651.660299
543.034483	12666.619923
543.394090	12662.032473
543.753640	12634.724543
544.113134	12879.696894
544.472571	12635.316879
544.831953	12917.157708
545.191278	12740.344278
545.550548	12671.015810
545.909761	12781.530505
546.268918	12827.556239
546.628019	12882.068757
546.987064	12780.524795
547.346053	12633.804533
547.704986	12829.401302
548.063863	12709.300852
548.422684	12767.037188
548.781449	12719.269734
549.140158	12818.845126
549.498811	12772.247220
549.857408	12636.055408
550.215949	12835.627127
550.574434	12806.002786
550.932864	12746.318045
551.291237	12945.297429
551.649555	12826.668996
552.007817	12887.798028
552.366022	12806.922797
552.724173	12848.708921
553.082267	12940.178137
553.440305	13029.666179
553.798288	12856.726876
554.156215	12932.288731
554.514086	12977.134836
554.871902	12921.412442
555.229661	12948.859004
555.587365	12891.488152
555.945014	12914.909353
556.302606	12894.525448
556.660143	12955.858646
557.017625	12984.000887
557.375050	12952.803707
557.732421	13046.707800
558.089735	13039.665308
558.446994	13011.898633
558.804197	13126.738638
559.161345	13120.066671
559.518437	12937.715533
559.875474	13035.657591
560.232455	13065.647415
560.589381	13105.109567
560.946251	13039.461141
561.303065	13214.754663
561.659825	13163.523937
562.016528	13081.612749
562.373177	13024.090663
562.729770	13151.515909
563.086307	13037.784958
563.442789	13148.707986
563.799216	13183.872555
564.155587	13119.441568
564.511904	13139.475113
564.868164	13160.383299
565.224370	13219.964696
565.580520	13171.035257
565.936615	13236.169485
566.292654	13176.257892
566.648638	13249.757915
567.004567	13249.170621
567.360441	13253.236311
567.716260	13209.428684
568.072023	13297.676603
568.427732	13279.596505
568.783385	13175.839476
569.138982	13291.798618
569.494525	13288.912557
569.850013	13230.294020
570.205445	13227.244122
570.560823	13238.412798
570.916145	13188.328935
571.271412	13203.023898
571.626625	13156.945232
571.981782	13171.168847
572.336884	13114.997791
572.691931	13202.522304
573.046923	13092.020211
573.401860	13062.645408
573.756743	13062.710943
574.111570	13088.877052
574.466342	13056.885890
574.821059	13111.839508
575.175722	12979.736071
575.530330	13010.240093
575.884882	12932.066920
576.239380	12937.753342
576.593823	12932.762600
576.948211	12932.071962
577.302544	12804.233341
577.656823	12817.864621
578.011047	12879.434754
578.365216	12821.441320
578.719330	12752.226277
579.073389	12730.418246
579.427394	12733.463103
579.781344	12729.019326
580.135239	12657.830672
580.489080	12660.197493
580.842866	12546.834546
581.196597	12652.761792
581.550273	12635.208494
581.903895	12598.294645
582.257463	12721.646638
582.610975	12554.905434
582.964434	12615.185031
583.317837	12535.035726
583.671186	12497.096002
584.024481	12547.583158
584.377721	12437.812033
584.730906	12511.009587
585.084037	12525.815455
585.437113	12445.600615
585.790135	12462.924541
586.143103	12373.363401
586.496016	12385.124413
586.848874	12398.133111
587.201679	12397.886094
587.554428	12281.009463
587.907124	12337.079697
588.259765	12268.094027
588.612352	12333.316475
588.964884	12196.428984
589.317362	12248.249525
589.669786	12238.126888
590.022155	12201.414685
590.374470	12296.697534
590.726731	12175.543483
591.078937	12067.229252
591.431090	12089.400246
591.783188	12029.397913
592.135232	11943.834408
592.487222	12004.418995
592.839157	12014.627332
593.191038	11951.098711
593.542866	11898.501832
593.894639	11758.388003
594.246358	11811.672999
594.598022	11818.539050
594.949633	11721.189328
595.301190	11712.742875
595.652692	11661.081130
596.004141	11752.560429
596.355535	11532.425843
596.706876	11510.428768
597.058162	11483.040179
597.409395	11575.615929
597.760573	11603.939652
598.111698	11499.111378
598.462768	11495.537200
598.813785	11512.422545
599.164748	11377.047399
599.515657	11453.488936
599.866511	11327.001344
600.217312	11449.864346
600.568060	11222.188194
600.918753	11380.026721
601.269392	11390.388813
601.619978	11288.683534
601.970510	11327.747435
602.320988	11374.274765
602.671412	11438.746081
603.021783	11366.070287
603.372100	11294.783330
603.722363	11310.388222
604.072572	11312.681947
604.422728	11324.158134
604.772830	11263.969277
605.122878	11277.048551
605.472872	11251.555436
605.822813	11310.156329
606.172701	11269.539752
606.522534	11306.859414
606.872314	11361.316479
607.222041	11295.562188
607.571714	11369.024403
607.921333	11245.395146
608.270899	11292.625716
608.620411	11344.942811
608.969870	11300.295832
609.319276	11284.509459
609.668627	11291.783844
610.017926	11376.812986
610.367171	11412.736248
610.716362	11400.670246
611.065500	11377.367513
611.414585	11389.791436
611.763616	11446.980806
612.112594	11410.082080
612.461518	11431.234762
612.810389	11479.057668
613.159207	11423.889801
613.507971	11421.979203
613.856682	11521.448731
614.205340	11475.670012
614.553945	11618.858946
614.902496	11494.975111
615.250994	11562.524052
615.599439	11548.023173
615.947830	11595.735174
616.296169	11549.994264
616.644454	11563.244937
616.992686	11580.644480
617.340864	11676.562514
617.688990	11553.873432
618.037063	11686.402846
618.385082	11659.289000
618.733048	11700.860875
619.080961	11690.599607
619.428821	11680.910509
619.776628	11690.196314
620.124382	11631.222376
620.472083	11650.373720
620.819731	11673.426916
621.167326	11600.259609
621.514868	11571.872872
621.862357	11473.018366
622.209793	11472.463839
622.557176	11388.800849
622.904506	11324.538741
623.251783	11243.464384
623.599007	11186.645539
623.946179	11140.070319
624.293297	11113.488314
624.640363	10977.941770
624.987376	10955.521238
625.334336	10900.542414
625.681243	10816.506380
626.028097	10784.830289
626.374899	10746.235216
626.721647	10720.963911
627.068343	10691.677328
627.414987	10631.090221
627.761577	10561.461804
628.108115	10601.750705
628.454600	10470.907557
628.801032	10495.848666
629.147412	10474.247322
629.493739	10450.097674
629.840014	10361.877482
630.186236	10410.857332
630.532405	10314.838475
630.878521	10349.841727
631.224585	10306.200458
631.570597	10227.384538
631.916556	10233.320497
632.262462	10220.717612
632.608316	10200.797493
632.954117	10171.634418
633.299866	10159.102109
633.645562	10127.902408
633.991206	10029.423468
634.336797	9927.773642
634.682336	9917.479606
635.027823	9864.766780
635.373257	9824.336727
635.718639	9761.733157
636.063968	9725.862827
636.409245	9604.509651
636.754470	9597.633517
637.099642	9544.093943
637.444762	9447.039129
637.789829	9453.118760
638.134845	9382.373728
638.479808	9362.922436
