Dividing Wavelength (nm)	Counts (n)	Blue Motor Position (mm): 49.600000	Red Motor Position (mm): 0.000000	
326.493990	2129.998405
326.888308	2129.998405
327.282561	2129.998405
327.676750	2096.278127
328.070874	2095.348034
328.464933	2098.334918
328.858929	2105.271546
329.252859	2114.519543
329.646726	2127.034207
330.040528	2138.974180
330.434265	2157.697025
330.827938	2175.167144
331.221547	2190.157015
331.615091	2208.789119
332.008571	2230.438355
332.401986	2246.325551
332.795338	2267.500918
333.188625	2287.332817
333.581847	2306.527010
333.975006	2322.895637
334.368100	2344.287773
334.761129	2360.449712
335.154095	2378.592825
335.546996	2399.322050
335.939833	2424.789959
336.332606	2436.797987
336.725315	2451.608897
337.117960	2461.265228
337.510540	2467.710343
337.903056	2480.514873
338.295508	2488.963847
338.687896	2495.595485
339.080220	2506.375993
339.472480	2512.596777
339.864676	2516.483506
340.256807	2518.469721
340.648875	2519.346882
341.040879	2526.142357
341.432818	2529.966072
341.824694	2529.217461
342.216506	2532.111083
342.608253	2531.241484
342.999937	2531.435568
343.391557	2529.446833
343.783113	2531.065044
344.174605	2525.633200
344.566033	2524.766122
344.957397	2526.212933
345.348697	2522.018693
345.739934	2521.239835
346.131106	2520.783610
346.522215	2518.757067
346.913260	2514.383866
347.304241	2513.531911
347.695159	2511.825480
348.086012	2511.528052
348.476802	2510.154338
348.867528	2505.619820
349.258191	2504.702330
349.648789	2504.868688
350.039324	2503.016064
350.429796	2504.142762
350.820203	2503.825169
351.210548	2500.729900
351.600828	2497.775784
351.991045	2498.705877
352.381198	2498.713439
352.771288	2499.071361
353.161314	2499.124293
353.551276	2497.722852
353.941175	2497.004488
354.331010	2499.336021
354.720782	2494.488952
355.110490	2496.888541
355.500135	2497.306957
355.889717	2498.655466
356.279235	2496.702018
356.668689	2498.131186
357.058080	2499.066320
357.447408	2499.671258
357.836672	2497.039776
358.225873	2499.971207
358.615010	2495.025835
359.004084	2501.183604
359.393095	2502.872391
359.782043	2504.064624
360.170927	2503.094202
360.559748	2504.326764
360.948505	2505.609737
361.337199	2505.831548
361.725830	2506.093688
362.114398	2507.190139
362.502903	2509.304903
362.891344	2507.827845
363.279722	2506.065962
363.668037	2512.183402
364.056289	2509.307424
364.444478	2512.589215
364.832603	2512.531242
365.220665	2511.046622
365.608665	2512.579133
365.996601	2512.848834
366.384474	2511.459996
366.772284	2515.850841
367.160031	2517.252282
367.547715	2516.367560
367.935336	2517.106089
368.322893	2521.025586
368.710388	2523.662109
369.097820	2531.478418
369.485189	2532.174098
369.872495	2538.508307
370.259738	2542.810932
370.646918	2550.896943
371.034035	2554.493806
371.421090	2565.352452
371.808081	2574.829821
372.195010	2581.831983
372.581875	2597.613316
372.968678	2609.568412
373.355418	2621.052160
373.742096	2635.021198
374.128710	2651.001655
374.515262	2668.126455
374.901751	2677.729853
375.288177	2694.138809
375.674540	2716.040102
376.060841	2734.163050
376.447079	2753.624424
376.833254	2772.692589
377.219367	2789.456946
377.605417	2826.378357
377.991404	2833.952690
378.377329	2858.949252
378.763191	2874.360059
379.148991	2910.605955
379.534727	2934.329625
379.920402	2964.805921
380.306013	2976.965184
380.691563	3029.567103
381.077049	3049.522511
381.462474	3069.266190
381.847835	3108.042745
382.233134	3129.812968
382.618371	3130.949748
383.003545	3201.556149
383.388657	3210.005123
383.773706	3241.325812
384.158693	3260.202412
384.543618	3282.146555
384.928480	3319.257009
385.313280	3366.850543
385.698017	3365.295347
386.082692	3420.095210
386.467305	3427.450253
386.851856	3459.275057
387.236344	3482.666011
387.620770	3512.764220
388.005133	3537.513765
388.389435	3566.084504
388.773674	3576.736462
389.157851	3617.839510
389.541965	3636.390957
389.926018	3601.286882
390.310008	3670.131399
390.693936	3691.223587
391.077802	3732.268662
391.461606	3718.808781
391.845348	3781.951753
392.229027	3782.407978
392.612645	3798.169145
392.996200	3875.424828
393.379694	3914.370262
393.763125	3974.750682
394.146494	3948.428297
394.529801	4008.740662
394.913047	4055.729257
395.296230	4024.027961
395.679351	4077.996033
396.062410	4101.283644
396.445408	4084.499122
396.828343	4116.366776
397.211217	4141.060868
397.594028	4056.500553
397.976778	4126.559989
398.359466	4152.146365
398.742092	4184.031663
399.124656	4101.911267
399.507158	4181.332126
399.889598	4206.711815
400.271977	4266.436885
400.654294	4243.693719
401.036549	4249.453238
401.418742	4216.668093
401.800874	4322.975946
402.182944	4343.679965
402.564952	4406.303698
402.946898	4392.594280
403.328783	4389.617479
403.710606	4303.776711
404.092367	4498.705528
404.474067	4460.697748
404.855705	4469.958348
405.237282	4397.854724
405.618797	4504.505375
406.000250	4541.459553
406.381642	4619.789002
406.762972	4580.246191
407.144240	4592.476030
407.525447	4591.419909
407.906593	4656.072707
408.287677	4695.532338
408.668700	4627.086072
409.049661	4678.833516
409.430560	4715.533116
409.811399	4644.185666
410.192176	4800.232063
410.572891	4742.175614
410.953545	4847.308878
411.334138	4727.281525
411.714669	4795.606804
412.095139	4688.872974
412.475547	4831.910673
412.855894	4812.986182
413.236180	4822.241740
413.616405	4775.452271
413.996568	4861.900498
414.376670	4805.331190
414.756711	4759.854941
415.136691	4791.760404
415.516609	4865.005848
415.896466	4905.251900
416.276262	4943.211789
416.655997	4920.423253
417.035670	5102.726499
417.415283	5192.065828
417.794834	5136.857631
418.174324	5094.126291
418.553753	4997.691538
418.933121	5186.197925
419.312428	5250.286113
419.691674	5192.232186
420.070859	5312.559487
420.449983	5229.105706
420.829045	5344.626267
421.208047	5250.560856
421.586988	5323.271939
421.965867	5332.782076
422.344686	5466.566737
422.723444	5323.057690
423.102141	5141.155215
423.480777	5438.202685
423.859352	5207.494279
424.237866	5465.341737
424.616319	5456.514676
424.994712	5569.663374
425.373044	5446.959169
425.751314	5585.606023
426.129524	5391.370366
426.507673	5585.099387
426.885762	5664.772303
427.263789	5594.382672
427.641756	5478.176514
428.019662	5599.252427
428.397508	5609.367502
428.775292	5554.008071
429.153016	5652.187063
429.530679	5579.365075
429.908282	5666.370349
430.285824	5538.909815
430.663305	5811.061547
431.040726	5546.884921
431.418086	5545.508686
431.795385	5650.863760
432.172624	5665.394886
432.549802	5657.555892
432.926920	5671.683725
433.303977	5675.726731
433.680974	5719.267176
434.057910	5739.189816
434.434786	5736.482717
434.811601	5707.934662
435.188355	5943.167504
435.565050	5817.854502
435.941683	5803.285567
436.318257	6016.975037
436.694770	5994.337736
437.071222	6028.894846
437.447614	5963.243899
437.823946	5874.776690
438.200218	6027.586666
438.576429	5895.722684
438.952580	5995.076265
439.328670	6040.164345
439.704700	5946.872752
440.080670	5932.944044
440.456580	6209.221960
440.832429	6085.900213
441.208218	5933.649805
441.583947	6089.050934
441.959616	6092.105874
442.335224	6023.049628
442.710773	6157.829917
443.086261	6183.514596
443.461689	5977.248224
443.837057	6124.192818
444.212365	6283.372292
444.587612	6174.344737
444.962800	6329.645043
445.337927	6307.897505
445.712995	5919.295120
446.088002	6493.807697
446.462949	6326.010371
446.837837	6260.356904
447.212664	6431.511639
447.587431	6574.163690
447.962139	7112.304342
448.336786	8038.477730
448.711374	7780.594984
449.085901	6859.213213
449.460369	6779.257993
449.834776	6714.806841
450.209124	7100.913855
450.583412	7253.076043
450.957640	7394.175418
451.331808	7161.652197
451.705917	6713.327262
452.079965	6638.445963
452.453954	6850.451688
452.827883	6726.232616
453.201752	6822.546381
453.575562	6620.461647
453.949311	6821.525547
454.323001	6714.834567
454.696632	6789.052955
455.070202	6924.380209
455.443713	7082.818633
455.817164	7180.430495
456.190556	7262.011488
456.563888	7339.922521
456.937160	7382.681588
457.310373	7036.976901
457.683526	7067.652322
458.056619	6956.522606
458.429653	6942.987108
458.802628	6879.657613
459.175542	6993.696074
459.548398	7342.075093
459.921194	7503.518045
460.293930	7503.596183
460.666607	8033.577728
461.039224	8343.694389
461.411782	8466.756516
461.784280	8486.573292
462.156719	8381.039257
462.529099	8257.483097
462.901419	7845.260385
463.273680	7740.122080
463.645882	7750.683298
464.018024	7623.099256
464.390106	7783.082793
464.762130	8170.611413
465.134094	8642.957446
465.505999	9659.301952
465.877845	10882.295958
466.249631	11529.038188
466.621358	11156.035653
466.993026	10525.016782
467.364634	10270.045303
467.736184	9904.733048
468.107674	9573.209127
468.479105	9595.758208
468.850477	9367.600626
469.221790	9138.333991
469.593043	8812.161254
469.964238	8669.526847
470.335373	8684.047891
470.706449	8740.317250
471.077467	8730.146723
471.448425	10033.685763
471.819324	11099.393248
472.190164	11130.290480
472.560945	9875.227175
472.931667	9091.524357
473.302330	8956.343296
473.672934	8600.316846
474.043479	8959.665416
474.413965	8899.733658
474.784393	8786.368191
475.154761	8944.552037
475.525070	9022.082462
475.895321	8854.355712
476.265513	9029.339203
476.635645	9199.785656
477.005719	9200.884628
477.375734	9321.421137
477.745691	9556.888392
478.115588	9693.705307
478.485427	9928.055946
478.855207	10464.681732
479.224928	11283.660024
479.594591	11911.293760
479.964194	11716.934594
480.333739	11665.799650
480.703226	11583.850653
481.072653	11664.168837
481.442022	11904.730178
481.811333	12094.078437
482.180584	11893.541337
482.549777	11608.494334
482.918912	11432.820205
483.287988	11454.136724
483.657005	11461.330450
484.025964	11146.467543
484.394864	11281.124324
484.763706	11254.862433
485.132489	11007.495534
485.501213	10971.705863
485.869879	11047.923067
486.238487	10887.327029
486.607036	11000.193423
486.975527	10780.313416
487.343959	10968.038423
487.712333	11024.416167
488.080648	10950.757348
488.448905	10992.246044
488.817104	10930.673391
489.185244	11192.445387
489.553326	11352.875067
489.921350	11889.684854
490.289315	12953.547277
490.657222	13288.791569
491.025070	13207.298797
491.392861	13080.002101
491.760593	12697.171836
492.128267	12343.648320
492.495883	12020.328877
492.863440	11679.993019
493.230939	11344.927687
493.598380	11282.689602
493.965763	11146.742286
494.333088	11046.798890
494.700354	10965.008690
495.067563	11030.089986
495.434713	10861.647392
495.801805	10989.760755
496.168839	10909.936604
496.535815	10846.037459
496.902733	10845.908909
497.269593	10782.992789
497.636395	10877.932839
498.003139	10867.520336
498.369825	10735.061498
498.736453	10906.216233
499.103023	10819.639457
499.469535	10845.550988
499.835989	10838.959679
500.202385	10794.290015
500.568723	10647.337859
500.935003	10870.139215
501.301226	10681.027891
501.667390	10937.083218
502.033497	11034.145594
502.399546	10891.518749
502.765537	10805.831736
503.131470	10868.515964
503.497345	11052.876001
503.863163	10664.480303
504.228923	10972.467077
504.594625	11038.359999
504.960269	10781.639239
505.325856	11002.603094
505.691385	10798.363267
506.056856	10945.060844
506.422270	10976.941101
506.787625	10860.225786
507.152924	10980.323715
507.518164	10969.099586
507.883347	10889.908100
508.248472	10806.824844
508.613540	11035.136181
508.978550	10920.722153
509.343503	10894.898842
509.708398	11012.914775
510.073236	11129.342743
510.438016	11128.011879
510.802738	11080.567059
511.167403	11135.976902
511.532010	11031.491427
511.896561	11261.234451
512.261053	11332.264309
512.625488	11203.901409
512.989866	11189.554285
513.354186	11174.216574
513.718449	11079.274003
514.082655	11269.375915
514.446803	11165.886067
514.810894	11286.384768
515.174927	11149.409056
515.538904	11180.434837
515.902822	11328.324647
516.266684	11215.884231
516.630488	11154.714871
516.994235	11208.110772
517.357925	11269.615370
517.721558	11359.630213
518.085133	11376.893644
518.448651	11382.945549
518.812112	11260.415264
519.175516	11286.125148
519.538863	11408.320197
519.902152	11325.519245
520.265385	11488.734163
520.628560	11396.085317
520.991678	11372.933818
521.354739	11437.911770
521.717743	11369.137829
522.080690	11344.279899
522.443580	11483.685447
522.806413	11435.746595
523.169189	11469.056019
523.531908	11526.628516
523.894569	11348.748882
524.257174	11356.219872
524.619722	11472.446195
524.982213	11417.495097
525.344647	11465.824639
525.707025	11418.951991
526.069345	11507.330979
526.431608	11432.283322
526.793815	11539.987574
527.155964	11331.099802
527.518057	11388.085006
527.880093	11333.761532
528.242072	11393.300079
528.603995	11306.985443
528.965860	11224.544934
529.327669	11269.209557
529.689421	11221.379089
530.051117	11195.026457
530.412755	11305.205916
530.774337	11188.593945
531.135862	11169.309011
531.497331	11196.067456
531.858743	11048.205372
532.220098	11211.662265
532.581396	11084.594941
532.942638	11069.385780
533.303824	11031.693073
533.664953	11049.072451
534.026025	10954.742380
534.387040	11051.199818
534.747999	11060.399923
535.108902	11117.934612
535.469748	10876.538960
535.830537	10976.681481
536.191270	10951.707605
536.551947	10988.119859
536.912567	10981.543674
537.273131	10914.241750
537.633638	10882.225382
537.994089	10873.625173
538.354483	10819.236164
538.714821	10965.374173
539.075103	10971.534463
539.435328	10943.732500
539.795497	10768.512074
540.155609	10924.737432
540.515665	11011.152891
540.875665	10748.155895
541.235609	10811.828189
541.595496	10809.300050
541.955328	10972.608229
542.315102	10846.639877
542.674821	10799.759667
543.034483	10803.394338
543.394090	10804.604215
543.753640	10731.058822
544.113134	10958.762700
544.472571	10811.349279
544.831953	10951.561412
545.191278	10762.818091
545.550548	10782.599579
545.909761	10924.949161
546.268918	10901.439740
546.628019	10984.638943
546.987064	10842.649803
547.346053	10767.128278
547.704986	10866.640655
548.063863	10847.912768
548.422684	10840.930770
548.781449	10762.893708
549.140158	10870.585358
549.498811	10740.354710
549.857408	10597.170817
550.215949	10828.774028
550.574434	10682.106698
550.932864	10778.337283
551.291237	10836.048413
551.649555	10782.065217
552.007817	10796.941662
552.366022	10755.503377
552.724173	10752.899621
553.082267	10740.032076
553.440305	10868.732733
553.798288	10674.129072
554.156215	10830.465335
554.514086	10810.956069
554.871902	10651.819445
555.229661	10695.206136
555.587365	10664.313945
555.945014	10567.231404
556.302606	10686.646257
556.660143	10584.416698
557.017625	10737.312373
557.375050	10634.107351
557.732421	10764.073338
558.089735	10680.722901
558.446994	10680.780874
558.804197	10713.598786
559.161345	10720.437111
559.518437	10571.821375
559.875474	10652.222738
560.232455	10687.707419
560.589381	10640.668413
560.946251	10630.830601
561.303065	10741.418393
561.659825	10683.855978
562.016528	10608.528537
562.373177	10483.281069
562.729770	10599.673750
563.086307	10513.845585
563.442789	10607.026273
563.799216	10486.338529
564.155587	10539.721828
564.511904	10491.704837
564.868164	10482.512293
565.224370	10499.735395
565.580520	10419.555843
565.936615	10429.847359
566.292654	10299.276433
566.648638	10429.433984
567.004567	10380.416325
567.360441	10371.090190
567.716260	10275.761971
568.072023	10369.973575
568.427732	10326.037398
568.783385	10227.777748
569.138982	10307.306991
569.494525	10315.884515
569.850013	10197.190547
570.205445	10276.876066
570.560823	10170.089304
570.916145	10098.222615
571.271412	10158.136728
571.626625	10104.226629
571.981782	10077.160674
572.336884	10050.185460
572.691931	10062.642151
573.046923	9997.767542
573.401860	9963.936359
573.756743	9895.185103
574.111570	9944.394326
574.466342	9927.309856
574.821059	9959.658940
575.175722	9841.121248
575.530330	9845.940591
575.884882	9844.035035
576.239380	9772.674982
576.593823	9751.716385
576.948211	9766.640721
577.302544	9649.625458
577.656823	9662.049381
578.011047	9666.803189
578.365216	9635.747161
578.719330	9565.246625
579.073389	9576.397657
579.427394	9524.771200
579.781344	9501.440740
580.135239	9444.541237
580.489080	9454.578174
580.842866	9356.799954
581.196597	9363.534936
581.550273	9401.807376
581.903895	9370.942911
582.257463	9439.512686
582.610975	9314.744128
582.964434	9339.105504
583.317837	9263.210933
583.671186	9245.803829
584.024481	9238.758816
584.377721	9163.259976
584.730906	9135.268969
585.084037	9168.578393
585.437113	9101.057178
585.790135	9120.694993
586.143103	9025.127319
586.496016	8993.194130
586.848874	9054.882730
587.201679	9045.599445
587.554428	8927.918750
587.907124	8978.516811
588.259765	8946.565978
588.612352	8943.153117
588.964884	8824.857400
589.317362	8840.459772
589.669786	8834.584307
590.022155	8882.802943
590.374470	8902.579390
590.726731	8837.971962
591.078937	8694.097431
591.431090	8802.603227
591.783188	8679.281480
592.135232	8669.781426
592.487222	8671.986931
592.839157	8725.055157
593.191038	8654.345413
593.542866	8596.785518
593.894639	8501.043924
594.246358	8551.150473
594.598022	8571.166374
594.949633	8469.279614
595.301190	8437.285931
595.652692	8468.233574
596.004141	8581.173065
596.355535	8358.732151
596.706876	8337.836568
597.058162	8270.658152
597.409395	8347.220676
597.760573	8409.725943
598.111698	8317.876120
598.462768	8303.087895
598.813785	8270.068337
599.164748	8243.516580
599.515657	8227.248777
599.866511	8141.576887
600.217312	8266.640353
600.568060	8126.627346
600.918753	8227.077377
601.269392	8197.256432
601.619978	8109.016075
601.970510	8179.587187
602.320988	8172.138883
602.671412	8228.690547
603.021783	8162.797625
603.372100	8135.028429
603.722363	8134.889797
604.072572	8108.607741
604.422728	8120.676264
604.772830	8052.991212
605.122878	8065.037049
605.472872	8051.113382
605.822813	8088.070081
606.172701	8026.250411
606.522534	8101.232533
606.872314	8105.003316
607.222041	8070.544509
607.571714	8124.734392
607.921333	8083.832991
608.270899	8095.170546
608.620411	8181.810336
608.969870	8085.105882
609.319276	8081.708144
609.668627	8097.885207
610.017926	8131.131617
610.367171	8181.099534
610.716362	8152.929566
611.065500	8145.130901
611.414585	8175.143410
611.763616	8163.006832
612.112594	8141.720560
612.461518	8157.438878
612.810389	8225.101245
613.159207	8159.208323
613.507971	8109.474820
613.856682	8224.728200
614.205340	8179.761107
614.553945	8260.096935
614.902496	8156.372674
615.250994	8215.326448
615.599439	8198.103346
615.947830	8207.502577
616.296169	8183.945265
616.644454	8194.372892
616.992686	8190.642438
617.340864	8254.445802
617.688990	8154.565420
618.037063	8247.957837
618.385082	8193.311729
618.733048	8276.258874
619.080961	8216.180923
619.428821	8236.524500
619.776628	8239.521466
620.124382	8194.733334
620.472083	8172.196856
620.819731	8201.095270
621.167326	8097.345804
621.514868	8104.446269
621.862357	7997.336873
622.209793	8012.412444
622.557176	7942.884850
622.904506	7912.332937
623.251783	7848.690890
623.599007	7802.181205
623.946179	7804.482492
624.293297	7763.336594
624.640363	7678.622524
624.987376	7663.032756
625.334336	7613.914273
625.681243	7562.066006
626.028097	7548.689304
626.374899	7524.038062
626.721647	7516.453646
627.068343	7450.810261
627.414987	7419.355982
627.761577	7370.466872
628.108115	7411.355671
628.454600	7308.369939
628.801032	7361.176025
629.147412	7321.043399
629.493739	7306.078734
629.840014	7241.597335
630.186236	7303.464896
630.532405	7178.093920
630.878521	7232.089719
631.224585	7188.513985
631.570597	7115.235773
631.916556	7150.722976
632.262462	7144.101420
632.608316	7105.970132
632.954117	7081.296205
633.299866	7072.214566
633.645562	7059.450365
633.991206	6980.221070
634.336797	6925.295178
634.682336	6879.682818
635.027823	6849.675350
635.373257	6837.760583
635.718639	6774.390759
636.063968	6785.408200
636.409245	6674.512898
636.754470	6679.559093
637.099642	6635.602752
637.444762	6581.521254
637.789829	6588.107521
638.134845	6526.176946
638.479808	6515.988774
638.824719	6524.122676
639.169577	6451.840092
639.514383	6471.089737
639.859137	6396.417646
640.203839	6410.245531
640.548489	6394.375979
