Dividing Wavelength (nm)	Counts (n)	Blue Motor Position (mm): 1.500000	Red Motor Position (mm): 0.000000	
326.493990	2165.125165
326.888308	2165.125165
327.282561	2165.125165
327.676750	2124.906840
328.070874	2122.555142
328.464933	2122.978599
328.858929	2124.004473
329.252859	2129.224588
329.646726	2136.725825
330.040528	2149.530356
330.434265	2162.561739
330.827938	2182.610408
331.221547	2197.164219
331.615091	2216.239945
332.008571	2234.168808
332.401986	2255.744947
332.795338	2272.020312
333.188625	2289.992026
333.581847	2309.186219
333.975006	2325.905206
334.368100	2345.401868
334.761129	2361.127748
335.154095	2382.519884
335.546996	2396.012532
335.939833	2412.915521
336.332606	2425.036975
336.725315	2441.138421
337.117960	2453.365739
337.510540	2464.932667
337.903056	2476.275263
338.295508	2486.140801
338.687896	2493.523571
339.080220	2500.130003
339.472480	2507.066631
339.864676	2511.956550
340.256807	2520.450894
340.648875	2522.485000
341.040879	2525.408869
341.432818	2531.606968
341.824694	2531.160826
342.216506	2533.668800
342.608253	2536.078471
342.999937	2533.167205
343.391557	2532.068233
343.783113	2532.073274
344.174605	2529.598068
344.566033	2531.581762
344.957397	2530.941535
345.348697	2531.402801
345.739934	2525.875176
346.131106	2524.393077
346.522215	2524.796369
346.913260	2521.254958
347.304241	2519.021727
347.695159	2519.810668
348.086012	2517.627848
348.476802	2514.111643
348.867528	2510.424039
349.258191	2506.181908
349.648789	2506.796929
350.039324	2501.833913
350.429796	2507.611075
350.820203	2505.818945
351.210548	2503.905827
351.600828	2504.571260
351.991045	2500.389623
352.381198	2503.389109
352.771288	2500.180415
353.161314	2501.014726
353.551276	2498.655466
353.941175	2497.483397
354.331010	2500.054386
354.720782	2500.457678
355.110490	2497.627070
355.500135	2498.257214
355.889717	2498.836947
356.279235	2499.005826
356.668689	2498.791577
357.058080	2497.841319
357.447408	2497.836278
357.836672	2498.514313
358.225873	2499.746875
358.615010	2502.151506
359.004084	2499.835096
359.393095	2501.037411
359.782043	2500.750065
360.170927	2500.820641
360.559748	2499.343583
360.948505	2503.197545
361.337199	2504.132679
361.725830	2502.272493
362.114398	2504.404902
362.502903	2503.542864
362.891344	2505.370282
363.279722	2504.825838
363.668037	2509.544358
364.056289	2506.559995
364.444478	2506.076044
364.832603	2505.738287
365.220665	2511.084430
365.608665	2507.679131
365.996601	2508.331960
366.384474	2507.434635
366.772284	2510.676097
367.160031	2508.457989
367.547715	2511.265912
367.935336	2508.417660
368.322893	2506.854902
368.710388	2505.461023
369.097820	2509.693072
369.485189	2506.262567
369.872495	2511.301200
370.259738	2509.864471
370.646918	2515.719771
371.034035	2511.870850
371.421090	2512.271622
371.808081	2511.182733
372.195010	2510.169461
372.581875	2512.949657
372.968678	2515.591222
373.355418	2515.087107
373.742096	2515.422343
374.128710	2512.173320
374.515262	2515.503002
374.901751	2516.549041
375.288177	2513.158865
375.674540	2516.564165
376.060841	2518.318486
376.447079	2513.559637
376.833254	2515.591222
377.219367	2516.556603
377.605417	2515.097189
377.991404	2514.192302
378.377329	2514.237672
378.763191	2516.619617
379.148991	2517.557272
379.534727	2518.142046
379.920402	2517.423681
380.306013	2519.125071
380.691563	2516.027282
381.077049	2515.432426
381.462474	2517.937879
381.847835	2517.842097
382.233134	2520.786131
382.618371	2515.142559
383.003545	2518.477283
383.388657	2520.675226
383.773706	2519.546007
384.158693	2519.409896
384.543618	2518.202540
384.928480	2522.590864
385.313280	2519.740092
385.698017	2520.362674
386.082692	2520.077849
386.467305	2522.822757
386.851856	2520.087931
387.236344	2518.847807
387.620770	2519.288908
388.005133	2517.983249
388.389435	2519.298991
388.773674	2518.394103
389.157851	2522.903416
389.541965	2521.408713
389.926018	2522.671522
390.310008	2522.003570
390.693936	2521.781759
391.077802	2524.234280
391.461606	2525.305525
391.845348	2524.750998
392.229027	2523.916687
392.612645	2525.068591
392.996200	2523.377284
393.379694	2523.399969
393.763125	2524.425844
394.146494	2524.456091
394.529801	2525.378622
394.913047	2524.209074
395.296230	2523.851152
395.679351	2524.695546
396.062410	2526.122192
396.445408	2527.415248
396.828343	2526.517923
397.211217	2526.991791
397.594028	2525.698735
397.976778	2525.494569
398.359466	2529.305681
398.742092	2527.470701
399.124656	2527.947090
399.507158	2526.253262
399.889598	2530.255938
400.271977	2527.216123
400.654294	2527.306863
401.036549	2523.152953
401.418742	2529.935825
401.800874	2529.532533
402.182944	2530.147554
402.564952	2526.953983
402.946898	2528.478932
403.328783	2531.254087
403.710606	2530.311391
404.092367	2529.582944
404.474067	2530.444982
404.855705	2527.805938
405.237282	2530.903727
405.618797	2531.715352
406.000250	2530.565969
406.381642	2532.489170
406.762972	2527.790814
407.144240	2528.100845
407.525447	2530.056813
407.906593	2523.578930
408.287677	2531.901875
408.668700	2531.032276
409.049661	2532.675692
409.430560	2533.194931
409.811399	2533.111752
410.192176	2532.441279
410.572891	2531.347348
410.953545	2531.997657
411.334138	2532.615198
411.714669	2533.399098
412.095139	2533.870446
412.475547	2532.363141
412.855894	2531.054961
413.236180	2533.487318
413.616405	2532.413552
413.996568	2532.680733
414.376670	2534.971938
414.756711	2533.998995
415.136691	2536.065868
415.516609	2533.870446
415.896466	2532.784077
416.276262	2532.078316
416.655997	2536.365817
417.035670	2532.476567
417.415283	2536.716177
417.794834	2534.684592
418.174324	2535.113090
418.553753	2533.736855
418.933121	2533.348686
419.312428	2537.202648
419.691674	2533.106711
420.070859	2537.852957
420.449983	2534.145189
420.829045	2533.547812
421.208047	2535.957483
421.586988	2533.280631
421.965867	2538.170550
422.344686	2535.208872
422.723444	2532.834489
423.102141	2536.333049
423.480777	2537.895807
423.859352	2537.164840
424.237866	2538.094933
424.616319	2538.417567
424.994712	2537.293389
425.373044	2538.578883
425.751314	2537.212731
426.129524	2532.027904
426.507673	2534.384643
426.885762	2534.495549
427.263789	2537.343801
427.641756	2539.992927
428.019662	2537.258101
428.397508	2536.655683
428.775292	2538.843544
429.153016	2537.517721
429.530679	2539.808925
429.908282	2539.231713
430.285824	2540.484440
430.663305	2538.152906
431.040726	2537.421939
431.418086	2540.335726
431.795385	2542.183308
432.172624	2540.000489
432.549802	2540.582742
432.926920	2540.189532
433.303977	2542.906714
433.680974	2537.787422
434.057910	2539.027546
434.434786	2540.345808
434.811601	2539.909748
435.188355	2538.689789
435.565050	2541.817825
435.941683	2542.337064
436.318257	2542.178267
436.694770	2538.576363
437.071222	2539.274563
437.447614	2539.196425
437.823946	2540.607948
438.200218	2540.938143
438.576429	2542.271529
438.952580	2537.517721
439.328670	2541.447300
439.704700	2542.679862
440.080670	2542.377393
440.456580	2542.871426
440.832429	2541.064172
441.208218	2542.725233
441.583947	2542.881508
441.959616	2542.957126
442.335224	2545.069369
442.710773	2544.708927
443.086261	2544.275387
443.461689	2543.005017
443.837057	2542.531148
444.212365	2544.393854
444.587612	2541.427135
444.962800	2536.002854
445.337927	2540.860006
445.712995	2540.033256
446.088002	2541.356559
446.462949	2542.546272
446.837837	2543.665408
447.212664	2541.361600
447.587431	2543.897301
447.962139	2545.041643
448.336786	2544.083823
448.711374	2546.450645
449.085901	2543.965356
449.460369	2543.806560
449.834776	2546.866540
450.209124	2542.039636
450.583412	2548.293187
450.957640	2542.508463
451.331808	2543.849410
451.705917	2546.808567
452.079965	2544.189688
452.453954	2544.645912
452.827883	2545.757487
453.201752	2544.033412
453.575562	2547.375697
453.949311	2544.776982
454.323001	2546.856458
454.696632	2545.346633
455.070202	2547.116077
455.443713	2548.701520
455.817164	2546.952240
456.190556	2543.872095
456.563888	2547.965512
456.937160	2547.847045
457.310373	2547.700851
457.683526	2545.843186
458.056619	2546.415357
458.429653	2543.841848
458.802628	2545.202960
459.175542	2543.995603
459.548398	2547.239586
459.921194	2546.611962
460.293930	2548.910728
460.666607	2545.470141
461.039224	2547.065666
461.411782	2546.745553
461.784280	2544.489636
462.156719	2546.480892
462.529099	2548.036088
462.901419	2546.536345
463.273680	2542.929399
463.645882	2540.862526
464.018024	2545.785213
464.390106	2544.847558
464.762130	2545.918803
465.134094	2547.378218
465.505999	2547.816798
465.877845	2547.315203
466.249631	2544.199770
466.621358	2547.201777
466.993026	2546.977446
467.364634	2552.149670
467.736184	2546.886705
468.107674	2545.830583
468.479105	2548.751932
468.850477	2547.179092
469.221790	2549.316541
469.593043	2546.380069
469.964238	2546.737991
470.335373	2549.840821
470.706449	2548.056253
471.077467	2549.911397
471.448425	2546.874102
471.819324	2546.231355
472.190164	2548.651109
472.560945	2547.191695
472.931667	2546.770758
473.302330	2547.274874
473.672934	2546.750594
474.043479	2548.293187
474.413965	2551.390976
474.784393	2551.212015
475.154761	2547.794113
475.525070	2547.481561
475.895321	2551.547252
476.265513	2547.907539
476.635645	2548.550286
477.005719	2548.182282
477.375734	2551.849721
477.745691	2545.991900
478.115588	2548.830070
478.485427	2549.180430
478.855207	2548.991387
479.224928	2548.704041
479.594591	2548.557848
479.964194	2549.649257
480.333739	2550.052550
480.703226	2549.588763
481.072653	2552.305945
481.442022	2548.958619
481.811333	2548.114226
482.180584	2543.534338
482.549777	2548.956099
482.918912	2545.228165
483.287988	2549.543393
483.657005	2551.501881
484.025964	2551.849721
484.394864	2552.091696
484.763706	2546.049873
485.132489	2549.853424
485.501213	2551.499361
485.869879	2547.337888
486.238487	2548.189843
486.607036	2549.767724
486.975527	2551.196892
487.343959	2552.038764
487.712333	2551.572458
488.080648	2553.009186
488.448905	2551.390976
488.817104	2551.275029
489.185244	2552.628579
489.553326	2549.412323
489.921350	2551.320400
490.289315	2551.161603
490.657222	2553.094886
491.025070	2550.533980
491.392861	2550.939793
491.760593	2550.102961
492.128267	2551.249824
492.495883	2548.986346
492.863440	2550.806202
493.230939	2549.230842
493.598380	2553.593960
493.965763	2548.981304
494.333088	2553.384752
494.700354	2550.670091
495.067563	2551.758980
495.434713	2552.409289
495.801805	2551.973229
496.168839	2552.368960
496.535815	2552.585729
496.902733	2551.811912
497.269593	2553.427602
497.636395	2550.196223
498.003139	2551.635472
498.369825	2551.801830
498.736453	2551.698486
499.103023	2553.238559
499.469535	2552.558003
499.835989	2554.128322
500.202385	2547.108516
500.568723	2548.633465
500.935003	2548.462066
501.301226	2547.292518
501.667390	2550.586912
502.033497	2552.416851
502.399546	2552.386604
502.765537	2551.519525
503.131470	2553.541028
503.497345	2552.787376
503.863163	2549.561037
504.228923	2554.503888
504.594625	2553.072201
504.960269	2549.987015
505.325856	2552.275698
505.691385	2553.974567
506.056856	2551.222097
506.422270	2554.551779
506.787625	2554.398024
507.152924	2555.073539
507.518164	2552.018600
507.883347	2554.781152
508.248472	2552.673950
508.613540	2553.155380
508.978550	2552.189999
509.343503	2554.551779
509.708398	2551.975750
510.073236	2549.878630
510.438016	2551.043136
510.802738	2554.040102
511.167403	2552.295863
511.532010	2552.782334
511.896561	2554.234187
512.261053	2555.910370
512.625488	2552.293343
512.989866	2552.797458
513.354186	2552.290822
513.718449	2552.124464
514.082655	2551.005328
514.446803	2553.593960
514.810894	2555.204609
515.174927	2555.038251
515.538904	2552.242931
515.902822	2554.564382
516.266684	2552.815102
516.630488	2552.147149
516.994235	2551.706048
517.357925	2554.486244
517.721558	2551.862324
518.085133	2552.575647
518.448651	2552.784855
518.812112	2550.050029
519.175516	2550.559186
519.538863	2549.593805
519.902152	2556.638817
520.265385	2552.931048
520.628560	2553.949362
520.991678	2554.428271
521.354739	2552.724361
521.717743	2553.780483
522.080690	2554.234187
522.443580	2554.642520
522.806413	2554.125802
523.169189	2552.285781
523.531908	2551.948023
523.894569	2552.961295
524.257174	2553.974567
524.619722	2551.942982
524.982213	2554.100596
525.344647	2552.323589
525.707025	2554.244269
526.069345	2553.750236
526.431608	2555.272664
526.793815	2553.367108
527.155964	2553.535987
527.518057	2552.537838
527.880093	2552.875596
528.242072	2553.785524
528.603995	2554.660164
528.965860	2555.217212
529.327669	2556.590926
529.689421	2554.879454
530.051117	2552.772252
530.412755	2554.672767
530.774337	2552.600853
531.135862	2552.807540
531.497331	2553.185627
531.858743	2552.401727
532.220098	2554.135884
532.581396	2552.885678
532.942638	2554.342572
533.303824	2554.128323
533.664953	2553.906512
534.026025	2552.222766
534.387040	2553.606563
534.747999	2553.581357
535.108902	2554.884496
535.469748	2552.429454
535.830537	2556.094372
536.191270	2555.554969
536.551947	2552.310987
536.912567	2550.876778
537.273131	2550.649926
537.633638	2549.969371
537.994089	2553.883827
538.354483	2555.292829
538.714821	2556.429609
539.075103	2553.248641
539.435328	2554.609753
539.795497	2555.731409
540.155609	2554.985319
540.515665	2552.005997
540.875665	2553.364588
541.235609	2553.951882
541.595496	2556.008673
541.955328	2554.345092
542.315102	2556.401883
542.674821	2555.983467
543.034483	2554.413148
543.394090	2554.834084
543.753640	2556.573282
544.113134	2554.246790
544.472571	2554.541697
544.831953	2553.001625
545.191278	2556.293498
545.550548	2553.740154
545.909761	2556.250648
546.268918	2556.540515
546.628019	2553.230997
546.987064	2554.065308
547.346053	2556.033879
547.704986	2555.030689
548.063863	2557.460525
548.422684	2553.755277
548.781449	2554.975236
549.140158	2555.537325
549.498811	2555.623025
549.857408	2553.896429
550.215949	2559.398849
550.574434	2554.987839
550.932864	2554.461039
551.291237	2553.833415
551.649555	2558.204095
552.007817	2555.265103
552.366022	2556.338868
552.724173	2553.039433
553.082267	2554.977757
553.440305	2556.298539
553.798288	2556.215360
554.156215	2552.552962
554.514086	2553.193188
554.871902	2552.202602
555.229661	2552.182437
555.587365	2551.469114
555.945014	2555.131512
556.302606	2555.799465
556.660143	2554.145967
557.017625	2553.719989
557.375050	2554.657644
557.732421	2555.290308
558.089735	2555.517160
558.446994	2556.701832
558.804197	2557.921791
559.161345	2553.460370
559.518437	2557.599157
559.875474	2556.049002
560.232455	2557.140412
560.589381	2556.744681
560.946251	2555.668395
561.303065	2555.451625
561.659825	2556.706873
562.016528	2552.638662
562.373177	2557.251317
562.729770	2552.598332
563.086307	2556.366595
563.442789	2556.621173
563.799216	2555.814588
564.155587	2554.531615
564.511904	2555.572613
564.868164	2555.718807
565.224370	2555.625545
565.580520	2556.449774
565.936615	2557.455484
566.292654	2557.072356
566.648638	2557.725186
567.004567	2557.044630
567.360441	2555.406255
567.716260	2556.991698
568.072023	2556.348951
568.427732	2555.726368
568.783385	2556.301060
569.138982	2557.079918
569.494525	2555.741492
569.850013	2555.688560
570.205445	2554.282078
570.560823	2555.018086
570.916145	2558.383056
571.271412	2554.821481
571.626625	2556.933725
571.981782	2557.301729
572.336884	2555.522202
572.691931	2551.685883
573.046923	2551.353167
573.401860	2553.888868
573.756743	2556.457336
574.111570	2556.853066
574.466342	2553.409958
574.821059	2557.561348
575.175722	2556.018755
575.530330	2551.214536
575.884882	2557.044630
576.239380	2556.664023
576.593823	2557.029507
576.948211	2554.786193
577.302544	2557.352140
577.656823	2556.714434
578.011047	2555.214691
578.365216	2556.059084
578.719330	2554.193857
579.073389	2555.774259
579.427394	2556.157387
579.781344	2555.917932
580.135239	2556.338868
580.489080	2558.148643
580.842866	2554.382901
581.196597	2559.020762
581.550273	2557.788200
581.903895	2556.288457
582.257463	2557.059753
582.610975	2555.305432
582.964434	2557.238714
583.317837	2558.514126
583.671186	2558.211657
584.024481	2556.106975
584.377721	2558.231822
584.730906	2556.399362
585.084037	2557.359702
585.437113	2555.035730
585.790135	2556.469938
586.143103	2555.131512
586.496016	2559.963458
586.848874	2557.528581
587.201679	2557.006821
587.554428	2557.246276
587.907124	2557.019424
588.259765	2558.743499
588.612352	2555.832233
588.964884	2557.412634
589.317362	2555.781821
589.669786	2556.303580
590.022155	2554.856769
590.374470	2553.740154
590.726731	2552.414330
591.078937	2550.342416
591.431090	2559.008159
591.783188	2558.735937
592.135232	2558.088149
592.487222	2558.756102
592.839157	2553.861141
593.191038	2557.770556
593.542866	2557.357182
593.894639	2557.589075
594.246358	2555.998591
594.598022	2554.307283
594.949633	2555.683518
595.301190	2558.526729
595.652692	2554.801317
596.004141	2558.433468
596.355535	2558.201575
596.706876	2555.804506
597.058162	2558.609908
597.409395	2557.319373
597.760573	2559.101421
598.111698	2557.604198
598.462768	2556.971533
598.813785	2557.500854
599.164748	2556.041440
599.515657	2556.167469
599.866511	2556.008673
600.217312	2554.640000
600.568060	2554.876934
600.918753	2558.088149
601.269392	2556.790052
601.619978	2557.919270
601.970510	2552.953734
602.320988	2553.349464
602.671412	2556.006152
603.021783	2556.301060
603.372100	2557.316852
603.722363	2554.743343
604.072572	2556.119578
604.422728	2556.348951
604.772830	2558.733417
605.122878	2556.636297
605.472872	2557.155535
605.822813	2558.383056
606.172701	2558.385577
606.522534	2555.413817
606.872314	2558.294836
607.222041	2554.632438
607.571714	2553.571275
607.921333	2555.174362
608.270899	2555.693601
608.620411	2553.311656
608.969870	2559.592933
609.319276	2559.199723
609.668627	2566.181721
610.017926	2570.194480
610.367171	2571.853019
610.716362	2570.554922
611.065500	2566.864798
611.414585	2566.065775
611.763616	2564.792883
612.112594	2561.561504
612.461518	2560.822975
612.810389	2559.623180
613.159207	2560.129816
613.507971	2558.277192
613.856682	2560.709549
614.205340	2555.585216
614.553945	2558.272151
614.902496	2556.921122
615.250994	2560.202913
615.599439	2554.796275
615.947830	2557.238714
616.296169	2555.746533
616.644454	2557.894064
616.992686	2556.855587
617.340864	2557.478169
617.688990	2559.998746
618.037063	2559.328273
618.385082	2554.934907
618.733048	2556.175031
619.080961	2555.617983
619.428821	2557.347099
619.776628	2558.859445
620.124382	2560.482697
620.472083	2557.026986
620.819731	2559.015721
621.167326	2558.078067
621.514868	2555.554969
621.862357	2556.961451
622.209793	2556.883313
622.557176	2556.104455
622.904506	2558.935063
623.251783	2555.620504
623.599007	2557.624363
623.946179	2557.699980
624.293297	2556.704352
624.640363	2555.749053
624.987376	2555.726368
625.334336	2552.121943
625.681243	2555.252500
626.028097	2552.484906
626.374899	2557.253838
626.721647	2555.103786
627.068343	2559.638304
627.414987	2557.349620
627.761577	2556.086811
628.108115	2555.353323
628.454600	2557.745350
628.801032	2556.026317
629.147412	2555.880123
629.493739	2559.058571
629.840014	2557.936914
630.186236	2556.071687
630.532405	2557.505896
630.878521	2557.057233
631.224585	2558.060423
631.570597	2555.083621
631.916556	2555.093703
632.262462	2557.876420
632.608316	2557.556307
632.954117	2553.470452
633.299866	2554.067829
633.645562	2557.155535
633.991206	2555.945658
634.336797	2553.846018
634.682336	2557.367264
635.027823	2556.691749
635.373257	2555.018086
635.718639	2557.846173
636.063968	2558.292316
636.409245	2556.822819
636.754470	2558.655279
637.099642	2553.725030
637.444762	2558.345248
637.789829	2553.062118
638.134845	2558.980433
638.479808	2555.570093
638.824719	2553.467931
639.169577	2554.813919
639.514383	2557.435319
639.859137	2555.151677
640.203839	2552.147149
640.548489	2555.381049
640.893086	2552.247972
641.237632	2556.104455
641.582125	2554.887016
641.926566	2556.787531
642.270955	2551.998435
642.615292	2550.349978
642.959576	2551.970709
643.303809	2553.974567
643.647990	2556.805175
643.992118	2555.386090
644.336195	2555.262582
