Dividing Wavelength (nm)	Counts (n)	Blue Motor Position (mm): 26.700000	Red Motor Position (mm): 0.000000	
326.493990	2131.997223
326.888308	2131.997223
327.282561	2131.997223
327.676750	2099.469178
328.070874	2098.040011
328.464933	2101.175608
328.858929	2107.524942
329.252859	2116.878803
329.646726	2127.102263
330.040528	2141.104067
330.434265	2159.269865
330.827938	2175.545230
331.221547	2192.188600
331.615091	2213.593339
332.008571	2235.471947
332.401986	2251.656571
332.795338	2270.195414
333.188625	2289.981943
333.581847	2310.638071
333.975006	2325.643066
334.368100	2347.211642
334.761129	2362.874507
335.154095	2379.974101
335.546996	2403.329767
335.939833	2426.095618
336.332606	2438.837134
336.725315	2449.811726
337.117960	2459.266410
337.510540	2469.610858
337.903056	2478.342136
338.295508	2486.317242
338.687896	2495.068685
339.080220	2502.343070
339.472480	2512.816067
339.864676	2515.613907
340.256807	2520.329907
340.648875	2524.909795
341.040879	2522.565658
341.432818	2524.866945
341.824694	2525.013138
342.216506	2530.931453
342.608253	2528.173942
342.999937	2529.199817
343.391557	2528.657893
343.783113	2528.544467
344.174605	2525.945752
344.566033	2526.631349
344.957397	2525.519774
345.348697	2521.748991
345.739934	2519.513240
346.131106	2520.100534
346.522215	2515.613907
346.913260	2513.322703
347.304241	2512.269102
347.695159	2511.830521
348.086012	2507.512773
348.476802	2508.883967
348.867528	2508.745335
349.258191	2504.409943
349.648789	2503.391630
350.039324	2501.879283
350.429796	2501.095384
350.820203	2499.174704
351.210548	2499.888028
351.600828	2499.462050
351.991045	2497.135558
352.381198	2499.386433
352.771288	2496.770074
353.161314	2493.082470
353.551276	2492.361585
353.941175	2495.807214
354.331010	2496.938953
354.720782	2495.653458
355.110490	2494.993067
355.500135	2494.509117
355.889717	2496.190341
356.279235	2494.703201
356.668689	2495.897954
357.058080	2495.645897
357.447408	2494.549446
357.836672	2494.758654
358.225873	2493.367295
358.615010	2493.843684
359.004084	2499.436844
359.393095	2500.319046
359.782043	2497.049858
360.170927	2502.716115
360.559748	2500.606392
360.948505	2503.116887
361.337199	2501.869201
361.725830	2501.375168
362.114398	2505.113184
362.502903	2502.353152
362.891344	2503.799963
363.279722	2502.055724
363.668037	2502.839623
364.056289	2502.559839
364.444478	2506.222237
364.832603	2503.474809
365.220665	2505.652587
365.608665	2506.577639
365.996601	2505.082937
366.384474	2508.800788
366.772284	2507.026302
367.160031	2509.314985
367.547715	2507.575787
367.935336	2509.123422
368.322893	2512.173320
368.710388	2509.846827
369.097820	2511.064266
369.485189	2509.539317
369.872495	2511.870850
370.259738	2507.306086
370.646918	2509.577125
371.034035	2506.870026
371.421090	2513.811695
371.808081	2509.322547
372.195010	2512.669873
372.581875	2512.380007
372.968678	2512.977384
373.355418	2511.749863
373.742096	2513.355470
374.128710	2512.085099
374.515262	2511.628875
374.901751	2516.612056
375.288177	2512.107785
375.674540	2515.271109
376.060841	2514.295645
376.447079	2513.746160
376.833254	2513.655419
377.219367	2509.685510
377.605417	2514.320851
377.991404	2510.960922
378.377329	2515.553413
378.763191	2512.886643
379.148991	2514.721623
379.534727	2517.229597
379.920402	2515.659278
380.306013	2514.197343
380.691563	2515.981911
381.077049	2515.409740
381.462474	2517.133815
381.847835	2517.766480
382.233134	2519.112468
382.618371	2518.928466
383.003545	2517.204391
383.388657	2519.770338
383.773706	2518.749505
384.158693	2516.047446
384.543618	2518.290760
384.928480	2519.609022
385.313280	2519.631707
385.698017	2517.963085
386.082692	2518.353774
386.467305	2517.998373
386.851856	2520.707993
387.236344	2519.601460
387.620770	2518.701614
388.005133	2520.241686
388.389435	2522.472397
388.773674	2521.796882
389.157851	2519.293949
389.541965	2521.970802
389.926018	2523.039527
390.310008	2520.420647
390.693936	2521.658251
391.077802	2522.381656
391.461606	2523.185720
391.845348	2521.703621
392.229027	2525.635721
392.612645	2520.055164
392.996200	2525.050947
393.379694	2523.684794
393.763125	2524.902233
394.146494	2522.341327
394.529801	2526.096987
394.913047	2525.597912
395.296230	2525.469363
395.679351	2526.422141
396.062410	2526.270906
396.445408	2524.435926
396.828343	2524.546832
397.211217	2520.410565
397.594028	2524.377953
397.976778	2523.422654
398.359466	2523.624301
398.742092	2523.457943
399.124656	2525.340813
399.507158	2526.921215
399.889598	2528.110928
400.271977	2525.950793
400.654294	2527.334590
401.036549	2527.810979
401.418742	2529.247708
401.800874	2527.931967
402.182944	2528.927594
402.564952	2529.401463
402.946898	2526.099507
403.328783	2528.960362
403.710606	2528.922553
404.092367	2527.894158
404.474067	2532.305168
404.855705	2530.845753
405.237282	2529.373737
405.618797	2529.774508
406.000250	2531.039838
406.381642	2532.650487
406.762972	2530.707122
407.144240	2530.167718
407.525447	2533.983872
407.906593	2529.232584
408.287677	2532.736186
408.668700	2530.109745
409.049661	2531.576721
409.430560	2531.428007
409.811399	2533.613347
410.192176	2535.027391
410.572891	2531.543953
410.953545	2532.975641
411.334138	2534.442617
411.714669	2534.548481
412.095139	2532.393388
412.475547	2535.967566
412.855894	2532.486649
413.236180	2535.002185
413.616405	2536.504449
413.996568	2532.584952
414.376670	2535.894469
414.756711	2535.130734
415.136691	2535.528985
415.516609	2535.110570
415.896466	2539.700540
416.276262	2533.147040
416.655997	2531.896834
417.035670	2532.143851
417.415283	2533.366330
417.794834	2532.960518
418.174324	2535.685261
418.553753	2534.644263
418.933121	2536.335570
419.312428	2540.678524
419.691674	2537.374048
420.070859	2538.079809
420.449983	2539.045190
420.829045	2537.643749
421.208047	2539.395550
421.586988	2538.697351
421.965867	2539.841692
422.344686	2538.102494
422.723444	2537.530323
423.102141	2538.611651
423.480777	2540.625592
423.859352	2541.555685
424.237866	2541.293545
424.616319	2538.137783
424.994712	2540.527289
425.373044	2543.433515
425.751314	2538.929244
426.129524	2542.853782
426.507673	2542.034594
426.885762	2540.557536
427.263789	2542.871426
427.641756	2543.516694
428.019662	2541.792619
428.397508	2543.544420
428.775292	2546.659853
429.153016	2544.681200
429.530679	2544.925696
429.908282	2542.284132
430.285824	2544.945861
430.663305	2542.447969
431.040726	2544.051056
431.418086	2544.219935
431.795385	2545.568443
432.172624	2545.875954
432.549802	2544.194729
432.926920	2545.502908
433.303977	2548.973743
433.680974	2547.887374
434.057910	2548.590615
434.434786	2548.809905
434.811601	2548.855276
435.188355	2549.296377
435.565050	2550.105482
435.941683	2549.583722
436.318257	2547.355532
436.694770	2547.065666
437.071222	2550.402910
437.447614	2549.059442
437.823946	2548.852755
438.200218	2555.219732
438.576429	2554.587068
438.952580	2557.026986
439.328670	2559.431616
439.704700	2558.723334
440.080670	2560.548232
440.456580	2565.105435
440.832429	2564.802966
441.208218	2567.631053
441.583947	2571.474933
441.959616	2575.129769
442.335224	2578.099009
442.710773	2580.090265
443.086261	2588.531677
443.461689	2587.276430
443.837057	2595.488469
444.212365	2604.323091
444.587612	2609.013885
444.962800	2619.791872
445.337927	2623.187089
445.712995	2622.982922
446.088002	2643.109729
446.462949	2643.820532
446.837837	2653.338230
447.212664	2664.297699
447.587431	2682.884433
447.962139	2713.711089
448.336786	2761.838984
448.711374	2761.072729
449.085901	2738.899214
449.460369	2749.641913
449.834776	2759.388984
450.209124	2799.662762
450.583412	2830.801969
450.957640	2846.144721
451.331808	2853.209898
451.705917	2844.750842
452.079965	2858.850949
452.453954	2894.864952
452.827883	2903.175294
453.201752	2930.962134
453.575562	2937.404729
453.949311	2981.655977
454.323001	2994.442864
454.696632	3025.503933
455.070202	3074.577046
455.443713	3117.757049
455.817164	3161.010149
456.190556	3204.883311
456.563888	3252.098758
456.937160	3284.861217
457.310373	3270.012498
457.683526	3310.205618
458.056619	3327.433761
458.429653	3363.767877
458.802628	3389.997001
459.175542	3442.021708
459.548398	3563.057292
459.921194	3637.389105
460.293930	3690.374153
460.666607	3874.807287
461.039224	4006.641021
461.411782	4094.175617
461.784280	4153.852796
462.156719	4171.721166
462.529099	4190.824618
462.901419	4134.280516
463.273680	4147.979852
463.645882	4204.042524
464.018024	4232.693922
464.390106	4336.700487
464.762130	4524.980022
465.134094	4769.637300
465.505999	5222.602617
465.877845	5766.039002
466.249631	6094.477737
466.621358	6033.555392
466.993026	5879.240632
467.364634	5849.938925
467.736184	5788.124297
468.107674	5722.236416
468.479105	5832.877140
468.850477	5788.525068
469.221790	5765.726450
469.593043	5681.672772
469.964238	5694.701634
470.335373	5770.157624
470.706449	5875.434561
471.077467	5939.661381
471.448425	6722.426545
471.819324	7402.344608
472.190164	7502.461923
472.560945	6879.859259
472.931667	6503.736250
473.302330	6487.057592
473.672934	6343.782959
474.043479	6630.022195
474.413965	6659.273490
474.784393	6657.824158
475.154761	6822.926988
475.525070	6951.763757
475.895321	6903.197281
476.265513	7082.344765
476.635645	7265.328567
477.005719	7334.357087
477.375734	7479.045764
477.745691	7716.347999
478.115588	7892.135554
478.485427	8139.946074
478.855207	8601.836754
479.224928	9274.190566
479.594591	9825.934772
479.964194	9768.505948
480.333739	9802.304364
480.703226	9830.393673
481.072653	9964.442995
481.442022	10216.538496
481.811333	10429.733933
482.180584	10349.725780
482.549777	10171.520992
482.918912	10082.421118
483.287988	10159.321400
483.657005	10227.818078
484.025964	10013.289255
484.394864	10181.416777
484.763706	10210.957938
485.132489	10041.675992
485.501213	10060.552593
485.869879	10171.427731
486.238487	10084.556047
486.607036	10212.525737
486.975527	10062.879085
487.343959	10267.204613
487.712333	10342.990799
488.080648	10320.441718
488.448905	10389.583663
488.817104	10366.424602
489.185244	10642.296706
489.553326	10830.326703
489.921350	11353.497649
490.289315	12349.402797
490.657222	12701.963453
491.025070	12649.175011
491.392861	12553.279662
491.760593	12237.695869
492.128267	11939.405755
492.495883	11653.574852
492.863440	11343.001967
493.230939	11038.952334
493.598380	10991.331074
493.965763	10886.888449
494.333088	10799.628597
494.700354	10734.660726
495.067563	10809.768877
495.434713	10651.481688
495.801805	10793.785899
496.168839	10723.018182
496.535815	10665.029789
496.902733	10677.877169
497.269593	10613.874680
497.636395	10727.131763
498.003139	10714.029804
498.369825	10590.158572
498.736453	10752.375341
499.103023	10685.648108
499.469535	10714.168436
499.835989	10716.068951
500.202385	10687.503253
500.568723	10532.361743
500.935003	10762.021589
501.301226	10575.803886
501.667390	10827.231434
502.033497	10928.551065
502.399546	10794.864706
502.765537	10701.159738
503.131470	10785.614189
503.497345	10962.646909
503.863163	10571.907074
504.228923	10881.343180
504.594625	10946.011101
504.960269	10701.106806
505.325856	10923.250292
505.691385	10718.339991
506.056856	10864.077228
506.422270	10889.600590
506.787625	10787.648294
507.152924	10902.049719
507.518164	10885.023222
507.883347	10805.677981
508.248472	10725.120343
508.613540	10959.556682
508.978550	10849.760351
509.343503	10822.563326
509.708398	10941.010277
510.073236	11055.779706
510.438016	11062.123998
510.802738	11013.491987
511.167403	11067.762528
511.532010	10962.904008
511.896561	11191.933709
512.261053	11271.064701
512.625488	11133.710903
512.989866	11111.953283
513.354186	11109.231060
513.718449	11012.256904
514.082655	11202.815040
514.446803	11097.046591
514.810894	11227.771272
515.174927	11093.041394
515.538904	11118.088367
515.902822	11266.215111
516.266684	11149.197328
516.630488	11095.146076
516.994235	11151.987606
517.357925	11209.744106
517.721558	11299.438836
518.085133	11310.491566
518.448651	11323.868267
518.812112	11204.302180
519.175516	11227.289842
519.538863	11349.678975
519.902152	11267.553538
520.265385	11420.736559
520.628560	11333.958137
520.991678	11313.249077
521.354739	11382.227185
521.717743	11310.093314
522.080690	11288.469285
522.443580	11423.869636
522.806413	11384.115097
523.169189	11415.609706
523.531908	11464.027468
523.894569	11287.980293
524.257174	11294.319544
524.619722	11413.817575
524.982213	11354.725170
525.344647	11410.382029
525.707025	11366.561799
526.069345	11457.499173
526.431608	11373.349713
526.793815	11483.713173
527.155964	11269.567479
527.518057	11324.735346
527.880093	11276.788932
528.242072	11342.049189
528.603995	11250.395971
528.965860	11168.401603
529.327669	11226.296735
529.689421	11173.440237
530.051117	11142.802624
530.412755	11248.717266
530.774337	11139.818261
531.135862	11116.618871
531.497331	11144.836730
531.858743	10994.897691
532.220098	11157.464820
532.581396	11030.190809
532.942638	11009.033086
533.303824	10978.392953
533.664953	10994.111271
534.026025	10906.551470
534.387040	11006.270534
534.747999	11006.240287
535.108902	11059.870602
535.469748	10819.689868
535.830537	10923.716598
536.191270	10900.920501
536.551947	10927.126939
536.912567	10925.896898
537.273131	10860.689573
537.633638	10828.728657
537.994089	10825.766979
538.354483	10771.451067
538.714821	10914.317367
539.075103	10930.461662
539.435328	10888.652853
539.795497	10714.067613
540.155609	10873.438651
540.515665	10964.247475
540.875665	10695.760663
541.235609	10759.511094
541.595496	10754.076730
541.955328	10915.630588
542.315102	10796.240941
542.674821	10748.728066
543.034483	10746.557849
543.394090	10746.240257
543.753640	10681.857160
544.113134	10907.315204
544.472571	10757.156875
544.831953	10903.226829
545.191278	10703.007321
545.550548	10732.505633
545.909761	10865.952537
546.268918	10850.599703
546.628019	10925.657443
546.987064	10785.558736
547.346053	10708.615605
547.704986	10811.540843
548.063863	10801.677826
548.422684	10791.136773
548.781449	10708.920595
549.140158	10816.725670
549.498811	10689.045846
549.857408	10547.162571
550.215949	10769.795048
550.574434	10628.521753
550.932864	10725.626979
551.291237	10783.111256
551.649555	10721.904087
552.007817	10745.627757
552.366022	10707.070491
552.724173	10698.540859
553.082267	10680.617037
553.440305	10820.635085
553.798288	10617.879877
554.156215	10778.745617
554.514086	10752.730742
554.871902	10603.212640
555.229661	10640.010542
555.587365	10613.126069
555.945014	10506.145223
556.302606	10637.305963
556.660143	10531.749243
557.017625	10685.774137
557.375050	10581.515514
557.732421	10712.832530
558.089735	10622.308531
558.446994	10626.454880
558.804197	10671.091776
559.161345	10669.236632
559.518437	10521.417398
559.875474	10611.056675
560.232455	10631.148194
560.589381	10585.719836
560.946251	10581.265977
561.303065	10682.570484
561.659825	10628.201639
562.016528	10553.461492
562.373177	10433.655951
562.729770	10543.167456
563.086307	10464.540580
563.442789	10557.441483
563.799216	10435.702659
564.155587	10481.136058
564.511904	10436.668040
564.868164	10432.428430
565.224370	10436.857083
565.580520	10369.426610
565.936615	10375.039934
566.292654	10241.222506
566.648638	10371.438030
567.004567	10326.939765
567.360441	10317.926182
567.716260	10220.415143
568.072023	10320.696296
568.427732	10270.143605
568.783385	10180.542137
569.138982	10253.548127
569.494525	10264.883161
569.850013	10146.227002
570.205445	10218.945647
570.560823	10120.343198
570.916145	10040.995437
571.271412	10112.216858
571.626625	10054.377179
571.981782	10022.474237
572.336884	10008.250622
572.691931	10014.436118
573.046923	9960.354619
573.401860	9910.109439
573.756743	9850.006282
574.111570	9890.716120
574.466342	9871.239622
574.821059	9904.695239
575.175722	9789.923290
575.530330	9810.458430
575.884882	9791.511253
576.239380	9723.526252
576.593823	9696.722437
576.948211	9719.158093
577.302544	9597.678888
577.656823	9616.132032
578.011047	9618.203946
578.365216	9584.271939
578.719330	9511.510445
579.073389	9520.035036
579.427394	9471.261873
579.781344	9452.511301
580.135239	9398.240759
580.489080	9403.244105
580.842866	9303.134351
581.196597	9312.614241
581.550273	9354.251651
581.903895	9323.472886
582.257463	9388.178616
582.610975	9266.243187
582.964434	9291.869893
583.317837	9206.457623
583.671186	9196.546715
584.024481	9189.816774
584.377721	9114.091082
584.730906	9091.642824
585.084037	9126.101631
585.437113	9055.301146
585.790135	9077.479702
586.143103	8976.069331
586.496016	8947.904404
586.848874	9005.907920
587.201679	8995.881065
587.554428	8880.252119
587.907124	8927.460005
588.259765	8901.823217
588.612352	8898.949759
588.964884	8778.128425
589.317362	8795.782546
589.669786	8791.699211
590.022155	8842.307354
590.374470	8858.693625
590.726731	8792.437740
591.078937	8646.902149
591.431090	8761.326259
591.783188	8633.263307
592.135232	8623.828788
592.487222	8624.342986
592.839157	8676.234103
593.191038	8605.773895
593.542866	8557.290598
593.894639	8455.015669
594.246358	8509.089606
594.598022	8522.264661
594.949633	8421.161800
595.301190	8406.063545
595.652692	8419.344464
596.004141	8535.122124
596.355535	8318.473497
596.706876	8292.987943
597.058162	8226.492603
597.409395	8308.532341
597.760573	8361.545115
598.111698	8280.596787
598.462768	8260.774970
598.813785	8226.704332
599.164748	8197.362296
599.515657	8191.179321
599.866511	8096.667768
600.217312	8221.406079
600.568060	8086.192251
600.918753	8183.841921
601.269392	8154.217581
601.619978	8066.599806
601.970510	8134.909962
602.320988	8129.909137
602.671412	8182.853855
603.021783	8118.022096
603.372100	8095.604085
603.722363	8099.253880
604.072572	8071.154489
604.422728	8082.295439
604.772830	8010.670725
605.122878	8026.010956
605.472872	8016.107609
605.822813	8048.330665
606.172701	7988.552662
606.522534	8067.590393
606.872314	8065.463026
607.222041	8028.317284
607.571714	8087.482786
607.921333	8046.480561
608.270899	8052.845018
608.620411	8138.753841
608.969870	8041.517545
609.319276	8039.669962
609.668627	8052.842497
610.017926	8089.428672
610.367171	8133.710167
610.716362	8111.463555
611.065500	8108.751414
611.414585	8133.359807
611.763616	8123.663147
612.112594	8104.199252
612.461518	8123.930328
612.810389	8177.507712
613.159207	8115.075542
613.507971	8067.693737
613.856682	8187.834515
614.205340	8141.486147
614.553945	8215.228145
614.902496	8117.210470
615.250994	8172.995879
615.599439	8151.321438
615.947830	8165.592944
616.296169	8137.619582
616.644454	8154.220101
616.992686	8143.981518
617.340864	8204.724901
617.688990	8106.820652
618.037063	8200.664252
618.385082	8147.303638
618.733048	8238.440138
619.080961	8178.689862
619.428821	8193.886420
619.776628	8194.577058
620.124382	8144.339440
620.472083	8132.449878
620.819731	8159.941811
621.167326	8048.607928
621.514868	8059.668220
621.862357	7951.941283
622.209793	7968.360321
622.557176	7900.942450
622.904506	7869.047069
623.251783	7809.528687
623.599007	7758.081191
623.946179	7766.328519
624.293297	7726.445430
624.640363	7640.725650
624.987376	7624.137733
625.334336	7571.659322
625.681243	7513.607915
626.028097	7505.796647
626.374899	7482.514078
626.721647	7479.635579
627.068343	7408.905670
627.414987	7382.623614
627.761577	7335.614855
628.108115	7371.961574
628.454600	7270.001717
628.801032	7323.727814
629.147412	7282.125692
629.493739	7268.786799
629.840014	7203.735749
630.186236	7263.440655
630.532405	7142.173179
630.878521	7204.383538
631.224585	7149.596278
631.570597	7078.102634
631.916556	7115.029086
632.262462	7104.414936
632.608316	7067.672487
632.954117	7046.965947
633.299866	7035.202415
633.645562	7026.077926
633.991206	6950.669826
634.336797	6888.308233
634.682336	6846.834660
635.027823	6812.645555
635.373257	6804.362939
635.718639	6739.137970
636.063968	6753.540546
636.409245	6645.763198
636.754470	6641.021993
637.099642	6600.544048
637.444762	6546.540687
637.789829	6558.750362
638.134845	6499.489078
638.479808	6482.628939
638.824719	6488.776626
639.169577	6418.576038
639.514383	6433.833090
639.859137	6364.015630
640.203839	6372.774635
640.548489	6361.031267
