Dividing Wavelength (nm)	Counts (n)	Blue Motor Position (mm): 25.300000	Red Motor Position (mm): 0.000000	
326.493990	2132.093005
326.888308	2132.093005
327.282561	2132.093005
327.676750	2098.428179
328.070874	2099.786770
328.464933	2101.616709
328.858929	2106.486464
329.252859	2115.920983
329.646726	2129.978241
330.040528	2139.874026
330.434265	2158.818682
330.827938	2175.139418
331.221547	2193.738755
331.615091	2211.866744
332.008571	2233.445403
332.401986	2250.950810
332.795338	2272.179108
333.188625	2286.798455
333.581847	2306.600107
333.975006	2325.922850
334.368100	2344.060921
334.761129	2360.159846
335.154095	2380.929400
335.546996	2397.991185
335.939833	2422.821388
336.332606	2438.209510
336.725315	2451.092179
337.117960	2459.856225
337.510540	2466.931484
337.903056	2479.126036
338.295508	2484.739360
338.687896	2494.998108
339.080220	2504.760303
339.472480	2509.045284
339.864676	2515.162724
340.256807	2519.019207
340.648875	2522.628673
341.040879	2524.685463
341.432818	2525.330731
341.824694	2527.551359
342.216506	2529.640918
342.608253	2526.812830
342.999937	2529.661082
343.391557	2528.887265
343.783113	2524.566996
344.174605	2526.147398
344.566033	2522.845442
344.957397	2523.271420
345.348697	2519.989629
345.739934	2519.162879
346.131106	2517.635410
346.522215	2517.542148
346.913260	2513.378155
347.304241	2512.548886
347.695159	2513.131139
348.086012	2506.938081
348.476802	2505.176198
348.867528	2506.660818
349.258191	2505.486229
349.648789	2504.500683
350.039324	2503.245436
350.429796	2499.845178
350.820203	2497.150681
351.210548	2498.809221
351.600828	2493.478201
351.991045	2494.264621
352.381198	2496.064313
352.771288	2495.204796
353.161314	2493.594147
353.551276	2495.376195
353.941175	2494.914929
354.331010	2495.575321
354.720782	2492.810248
355.110490	2495.177069
355.500135	2494.824189
355.889717	2495.628253
356.279235	2496.258397
356.668689	2497.012049
357.058080	2493.347131
357.447408	2493.568941
357.836672	2492.749754
358.225873	2492.931235
358.615010	2494.264621
359.004084	2497.639673
359.393095	2497.211175
359.782043	2495.265290
360.170927	2498.461381
360.559748	2500.813079
360.948505	2497.914416
361.337199	2501.599499
361.725830	2501.349962
362.114398	2502.138903
362.502903	2504.896414
362.891344	2501.576814
363.279722	2504.046980
363.668037	2504.803153
364.056289	2504.425066
364.444478	2503.936074
364.832603	2505.995386
365.220665	2506.391116
365.608665	2503.520179
365.996601	2508.899090
366.384474	2508.450428
366.772284	2506.670900
367.160031	2507.918586
367.547715	2508.765500
367.935336	2508.241220
368.322893	2506.403719
368.710388	2507.711898
369.097820	2509.161230
369.485189	2507.784995
369.872495	2510.361025
370.259738	2507.270798
370.646918	2510.378669
371.034035	2507.716940
371.421090	2510.514780
371.808081	2509.045284
372.195010	2507.573267
372.581875	2509.037722
372.968678	2510.005623
373.355418	2510.174502
373.742096	2512.460665
374.128710	2511.091992
374.515262	2510.469410
374.901751	2513.390758
375.288177	2510.827332
375.674540	2513.209277
376.060841	2511.122239
376.447079	2511.575943
376.833254	2514.010820
377.219367	2508.846158
377.605417	2512.558968
377.991404	2513.226921
378.377329	2512.427898
378.763191	2508.412619
379.148991	2516.420492
379.534727	2513.466376
379.920402	2516.133146
380.306013	2514.893022
380.691563	2515.770183
381.077049	2515.833197
381.462474	2515.901253
381.847835	2515.424864
382.233134	2513.267250
382.618371	2516.259175
383.003545	2518.159690
383.388657	2514.918228
383.773706	2518.079031
384.158693	2512.241375
384.543618	2518.263033
384.928480	2517.630369
385.313280	2518.888137
385.698017	2516.954854
386.082692	2517.799247
386.467305	2519.349402
386.851856	2518.134484
387.236344	2522.086749
387.620770	2519.626666
388.005133	2518.041223
388.389435	2523.589013
388.773674	2516.821263
389.157851	2518.847807
389.541965	2520.276974
389.926018	2519.377128
390.310008	2520.977695
390.693936	2524.559435
391.077802	2522.558097
391.461606	2520.629855
391.845348	2521.018024
392.229027	2520.960051
392.612645	2520.682787
392.996200	2522.853004
393.379694	2523.641945
393.763125	2521.421316
394.146494	2524.622449
394.529801	2526.200330
394.913047	2524.572038
395.296230	2525.461801
395.679351	2522.464835
396.062410	2527.493386
396.445408	2522.873169
396.828343	2526.182686
397.211217	2521.905267
397.594028	2519.699762
397.976778	2521.701100
398.359466	2523.878879
398.742092	2521.320493
399.124656	2524.178827
399.507158	2526.424662
399.889598	2524.720752
400.271977	2529.033459
400.654294	2525.214785
401.036549	2527.576565
401.418742	2527.145547
401.800874	2527.402645
402.182944	2524.309898
402.564952	2527.261493
402.946898	2530.873480
403.328783	2527.775691
403.710606	2527.672347
404.092367	2524.977850
404.474067	2531.054961
404.855705	2530.878521
405.237282	2529.023376
405.618797	2529.280475
406.000250	2529.593027
406.381642	2529.787111
406.762972	2529.164529
407.144240	2532.481608
407.525447	2532.426155
407.906593	2529.091432
408.287677	2531.629653
408.668700	2530.245856
409.049661	2532.353058
409.430560	2529.809796
409.811399	2531.876669
410.192176	2530.250897
410.572891	2533.315919
410.953545	2531.889272
411.334138	2533.167205
411.714669	2533.086546
412.095139	2533.298275
412.475547	2532.295085
412.855894	2532.703419
413.236180	2532.705939
413.616405	2533.368851
413.996568	2533.623429
414.376670	2533.517565
414.756711	2532.844571
415.136691	2533.567977
415.516609	2532.736186
415.896466	2534.447658
416.276262	2535.506300
416.655997	2532.403470
417.035670	2530.681916
417.415283	2533.018491
417.794834	2528.970444
418.174324	2532.632843
418.553753	2534.092257
418.933121	2536.837165
419.312428	2535.763399
419.691674	2535.687782
420.070859	2536.151568
420.449983	2533.978831
420.829045	2539.294727
421.208047	2538.089892
421.586988	2536.726259
421.965867	2538.674665
422.344686	2539.776158
422.723444	2536.209541
423.102141	2538.079809
423.480777	2538.099974
423.859352	2537.505118
424.237866	2540.872608
424.616319	2536.993441
424.994712	2539.370345
425.373044	2539.188863
425.751314	2538.505787
426.129524	2538.583925
426.507673	2538.467978
426.885762	2539.511497
427.263789	2540.542413
427.641756	2541.507794
428.019662	2541.112063
428.397508	2541.679193
428.775292	2538.432690
429.153016	2541.510314
429.530679	2538.606610
429.908282	2540.605427
430.285824	2539.788760
430.663305	2539.307330
431.040726	2544.398896
431.418086	2540.444110
431.795385	2542.720191
432.172624	2543.075593
432.549802	2542.858823
432.926920	2541.787578
433.303977	2541.558205
433.680974	2540.907897
434.057910	2542.626930
434.434786	2542.163144
434.811601	2544.038453
435.188355	2544.182126
435.565050	2542.185829
435.941683	2545.041643
436.318257	2542.392516
436.694770	2540.633154
437.071222	2545.026519
437.447614	2540.847403
437.823946	2542.009389
438.200218	2545.318906
438.576429	2547.075748
438.952580	2547.305121
439.328670	2547.665563
439.704700	2547.234545
440.080670	2549.019113
440.456580	2544.711447
440.832429	2548.202446
441.208218	2546.700182
441.583947	2546.916952
441.959616	2548.323434
442.335224	2547.065666
442.710773	2550.264278
443.086261	2549.326623
443.461689	2549.344267
443.837057	2551.350647
444.212365	2551.832077
444.587612	2550.909546
444.962800	2553.188147
445.337927	2553.450287
445.712995	2554.526574
446.088002	2553.475493
446.462949	2555.275185
446.837837	2556.613611
447.212664	2561.740465
447.587431	2558.468756
447.962139	2563.852708
448.336786	2569.723132
448.711374	2569.965107
449.085901	2571.684141
449.460369	2572.425190
449.834776	2575.291086
450.209124	2582.285687
450.583412	2586.452201
450.957640	2591.581575
451.331808	2592.922522
451.705917	2597.535178
452.079965	2598.435024
452.453954	2604.960797
452.827883	2612.756942
453.201752	2618.357664
453.575562	2621.062243
453.949311	2633.425672
454.323001	2637.657721
454.696632	2645.375728
455.070202	2658.452481
455.443713	2670.589059
455.817164	2682.692869
456.190556	2694.164015
456.563888	2706.270346
456.937160	2715.626727
457.310373	2719.266440
457.683526	2731.463512
458.056619	2739.688154
458.429653	2752.671646
458.802628	2762.161618
459.175542	2783.122736
459.548398	2817.490802
459.921194	2843.561129
460.293930	2865.802700
460.666607	2929.963986
461.039224	2975.856130
461.411782	3005.989627
461.784280	3032.369985
462.156719	3039.498177
462.529099	3054.034344
462.901419	3043.485729
463.273680	3053.772204
463.645882	3077.637026
464.018024	3100.236519
464.390106	3141.319402
464.762130	3215.449569
465.134094	3323.179027
465.505999	3525.679656
465.877845	3754.966457
466.249631	3882.605952
466.621358	3855.103937
466.993026	3812.027277
467.364634	3805.461174
467.736184	3795.439360
468.107674	3792.434833
468.479105	3863.610884
468.850477	3858.267261
469.221790	3869.756050
469.593043	3851.615458
469.964238	3883.089902
470.335373	3932.359619
470.706449	4001.569621
471.077467	4053.687590
471.448425	4443.819965
471.819324	4791.667142
472.190164	4852.662583
472.560945	4587.250874
472.931667	4441.803504
473.302330	4458.419147
473.672934	4416.693516
474.043479	4584.397581
474.413965	4631.489520
474.784393	4667.856404
475.154761	4777.088125
475.525070	4874.926839
475.895321	4875.912385
476.265513	5003.786293
476.635645	5134.395028
477.005719	5219.580445
477.375734	5322.712371
477.745691	5497.441284
478.115588	5632.319875
478.485427	5814.918029
478.855207	6126.418487
479.224928	6593.209169
479.594591	6960.013605
479.964194	6981.098231
480.333739	7033.783330
480.703226	7111.459949
481.072653	7244.105309
481.442022	7475.159034
481.811333	7663.879670
482.180584	7655.637383
482.549777	7605.939168
482.918912	7594.087415
483.287988	7709.302986
483.657005	7797.167777
484.025964	7708.219138
484.394864	7874.400775
484.763706	7952.450439
485.132489	7880.374542
485.501213	7945.985159
485.869879	8067.950836
486.238487	8063.103766
486.607036	8203.532668
486.975527	8158.368971
487.343959	8348.821243
487.712333	8463.767112
488.080648	8486.684198
488.448905	8598.355838
488.817104	8636.822362
489.185244	8902.324812
489.553326	9094.783462
489.921350	9548.983862
490.289315	10389.780268
490.657222	10712.882942
491.025070	10741.799000
491.392861	10724.825435
491.760593	10532.802844
492.128267	10345.471047
492.495883	10167.483028
492.863440	9958.254978
493.230939	9752.318803
493.598380	9754.874668
493.965763	9715.198266
494.333088	9673.739817
494.700354	9673.767543
495.067563	9761.932283
495.434713	9677.800467
495.801805	9829.801337
496.168839	9813.094953
496.535815	9802.722779
496.902733	9847.508390
497.269593	9835.575979
497.636395	9952.871026
498.003139	9991.496347
498.369825	9906.056351
498.736453	10090.655843
499.103023	10054.205780
499.469535	10123.438467
499.835989	10148.372013
500.202385	10133.755188
500.568723	10029.932624
500.935003	10266.690415
501.301226	10117.878074
501.667390	10384.328260
502.033497	10496.703141
502.399546	10390.561647
502.765537	10328.547893
503.131470	10423.762686
503.497345	10610.824782
503.863163	10259.453838
504.228923	10578.064844
504.594625	10663.560292
504.960269	10435.009501
505.325856	10666.368215
505.691385	10480.158074
506.056856	10649.802984
506.422270	10682.472181
506.787625	10590.703017
507.152924	10713.623991
507.518164	10709.419669
507.883347	10642.178238
508.248472	10573.336242
508.613540	10814.779784
508.978550	10709.535616
509.343503	10695.783348
509.708398	10818.258181
510.073236	10938.330903
510.438016	10950.306164
510.802738	10903.325131
511.167403	10968.008176
511.532010	10869.846828
511.896561	11101.114802
512.261053	11178.463746
512.625488	11053.460775
512.989866	11037.926459
513.354186	11030.203412
513.718449	10942.585637
514.082655	11135.792900
514.446803	11031.670388
514.810894	11158.389872
515.174927	11037.107272
515.538904	11058.534696
515.902822	11209.721421
516.266684	11098.344688
516.630488	11039.834536
516.994235	11105.432551
517.357925	11165.800368
517.721558	11259.321333
518.085133	11274.391863
518.448651	11281.678851
518.812112	11177.440392
519.175516	11184.984479
519.538863	11306.740947
519.902152	11228.933258
520.265385	11382.217103
520.628560	11297.205605
520.991678	11281.313367
521.354739	11343.009528
521.717743	11279.354879
522.080690	11262.136818
522.443580	11391.999462
522.806413	11350.598986
523.169189	11386.595345
523.531908	11437.142994
523.894569	11265.514391
524.257174	11268.559248
524.619722	11383.633667
524.982213	11334.885709
525.344647	11387.311188
525.707025	11334.071563
526.069345	11432.893302
526.431608	11346.908861
526.793815	11454.834924
527.155964	11248.792884
527.518057	11311.595578
527.880093	11253.985272
528.242072	11321.783750
528.603995	11229.636499
528.965860	11152.038018
529.327669	11204.405524
529.689421	11151.566670
530.051117	11128.165634
530.412755	11233.545914
530.774337	11119.673810
531.135862	11098.395100
531.497331	11127.656477
531.858743	10974.778446
532.220098	11138.568055
532.581396	11016.728408
532.942638	11000.473207
533.303824	10959.975097
533.664953	10973.278703
534.026025	10890.316434
534.387040	10984.843109
534.747999	10986.380661
535.108902	11049.284179
535.469748	10805.788887
535.830537	10910.614640
536.191270	10891.927082
536.551947	10914.425752
536.912567	10910.206306
537.273131	10843.048055
537.633638	10809.874742
537.994089	10808.957252
538.354483	10754.427091
538.714821	10895.609645
539.075103	10908.152036
539.435328	10875.417303
539.795497	10699.700324
540.155609	10853.866371
540.515665	10943.026738
540.875665	10685.063334
541.235609	10755.115208
541.595496	10742.048537
541.955328	10903.554504
542.315102	10783.023036
542.674821	10742.981151
543.034483	10734.527136
543.394090	10740.629452
543.753640	10664.361836
544.113134	10891.707792
544.472571	10745.713456
544.831953	10890.162678
545.191278	10692.120950
545.550548	10720.495084
545.909761	10861.274346
546.268918	10837.364154
546.628019	10910.145812
546.987064	10782.140834
547.346053	10699.085304
547.704986	10804.397528
548.063863	10790.239447
548.422684	10785.500763
548.781449	10703.652589
549.140158	10799.114399
549.498811	10671.883238
549.857408	10532.737309
550.215949	10758.281053
550.574434	10614.996337
550.932864	10717.268746
551.291237	10776.512386
551.649555	10714.360000
552.007817	10732.785417
552.366022	10699.670077
552.724173	10689.920486
553.082267	10668.782928
553.440305	10812.289454
553.798288	10613.118507
554.156215	10762.729871
554.514086	10736.783052
554.871902	10590.760990
555.229661	10628.985539
555.587365	10601.274316
555.945014	10496.798923
556.302606	10626.626279
556.660143	10516.474547
557.017625	10671.822744
557.375050	10572.222147
557.732421	10706.180728
558.089735	10613.922571
558.446994	10614.741759
558.804197	10653.636781
559.161345	10655.116360
559.518437	10505.575572
559.875474	10593.510939
560.232455	10623.026895
560.589381	10571.148381
560.946251	10570.926570
561.303065	10673.403145
561.659825	10612.687488
562.016528	10539.298371
562.373177	10419.056769
562.729770	10538.431292
563.086307	10452.184712
563.442789	10543.933712
563.799216	10422.378890
564.155587	10476.546088
564.511904	10428.682852
564.868164	10420.836297
565.224370	10432.743502
565.580520	10357.683242
565.936615	10358.061328
566.292654	10235.672195
566.648638	10358.895639
567.004567	10324.043622
567.360441	10307.269183
567.716260	10207.051044
568.072023	10308.889914
568.427732	10264.487431
568.783385	10167.175517
569.138982	10241.850129
569.494525	10254.594166
569.850013	10134.206371
570.205445	10204.787566
570.560823	10112.862126
570.916145	10030.063694
571.271412	10097.226987
571.626625	10044.010047
571.981782	10024.392396
572.336884	9992.917952
572.691931	10003.610240
573.046923	9941.972052
573.401860	9904.818748
573.756743	9841.327936
574.111570	9884.545747
574.466342	9867.572183
574.821059	9898.350947
575.175722	9782.598493
575.530330	9794.795565
575.884882	9783.180747
576.239380	9714.305982
576.593823	9692.419813
576.948211	9705.035300
577.302544	9593.126726
577.656823	9610.576680
578.011047	9608.298078
578.365216	9580.491074
578.719330	9501.927212
579.073389	9518.804995
579.427394	9467.181059
579.781344	9444.097615
580.135239	9391.036951
580.489080	9399.680009
580.842866	9304.586203
581.196597	9302.456316
581.550273	9349.381896
581.903895	9315.757400
582.257463	9386.338595
582.610975	9258.661292
582.964434	9288.643554
583.317837	9208.577428
583.671186	9186.469448
584.024481	9189.277371
584.377721	9105.750493
584.730906	9085.159900
585.084037	9109.959856
585.437113	9048.624137
585.790135	9063.437568
586.143103	8969.808218
586.496016	8943.574053
586.848874	9001.103701
587.201679	8985.045105
587.554428	8876.093167
587.907124	8918.491792
588.259765	8888.713696
588.612352	8895.259634
588.964884	8771.690871
589.317362	8785.856514
589.669786	8788.359447
590.022155	8833.404677
590.374470	8851.515022
590.726731	8787.212584
591.078937	8637.775140
591.431090	8749.590453
591.783188	8624.441288
592.135232	8620.274774
592.487222	8614.870658
592.839157	8673.728649
593.191038	8601.181404
593.542866	8550.129639
593.894639	8455.383673
594.246358	8496.786670
594.598022	8513.354422
594.949633	8419.112571
595.301190	8387.900267
595.652692	8421.491996
596.004141	8528.971917
596.355535	8305.205180
596.706876	8288.597098
597.058162	8224.624856
597.409395	8296.294940
597.760573	8361.141823
598.111698	8266.511803
598.462768	8254.357581
598.813785	8215.233186
599.164748	8191.620422
599.515657	8179.965274
599.866511	8091.029238
600.217312	8212.780665
600.568060	8074.083399
600.918753	8181.190274
601.269392	8147.066704
601.619978	8058.503713
601.970510	8125.591389
602.320988	8118.964792
602.671412	8172.562340
603.021783	8111.239224
603.372100	8083.220491
603.722363	8087.344154
604.072572	8067.575270
604.422728	8075.671363
604.772830	8004.376844
605.122878	8013.844131
605.472872	8009.397834
605.822813	8037.353552
606.172701	7981.064028
606.522534	8056.729227
606.872314	8057.986995
607.222041	8023.102210
607.571714	8076.785458
607.921333	8036.040332
608.270899	8041.096609
608.620411	8128.941235
608.969870	8036.670476
609.319276	8035.334570
609.668627	8045.595839
610.017926	8081.713186
610.367171	8134.519272
610.716362	8104.345446
611.065500	8094.588292
611.414585	8125.172973
611.763616	8113.966488
612.112594	8101.287986
612.461518	8112.466745
612.810389	8173.961260
613.159207	8108.456507
613.507971	8059.879948
613.856682	8182.017024
614.205340	8128.285885
614.553945	8209.176240
614.902496	8111.418185
615.250994	8163.284096
615.599439	8143.547979
615.947830	8158.656317
616.296169	8128.991647
616.644454	8140.394737
616.992686	8134.471381
617.340864	8194.698046
617.688990	8099.919313
618.037063	8193.790638
618.385082	8143.217783
618.733048	8221.058240
619.080961	8164.158736
619.428821	8190.269393
619.776628	8182.115326
620.124382	8135.930795
620.472083	8117.654092
620.819731	8152.775811
621.167326	8043.521404
621.514868	8054.629587
621.862357	7940.591125
622.209793	7960.624670
622.557176	7893.960452
622.904506	7861.767643
623.251783	7796.419166
623.599007	7746.486537
623.946179	7754.108762
624.293297	7712.771300
624.640363	7629.027653
624.987376	7613.074921
625.334336	7563.878301
625.681243	7509.695979
626.028097	7492.878690
626.374899	7477.044426
626.721647	7466.291645
627.068343	7406.495998
627.414987	7374.356122
627.761577	7329.648649
628.108115	7366.524689
628.454600	7261.096518
628.801032	7315.500651
629.147412	7271.788806
629.493739	7261.613237
629.840014	7198.621499
630.186236	7253.794407
630.532405	7138.541027
630.878521	7193.449275
631.224585	7147.317676
631.570597	7075.516522
631.916556	7103.252950
632.262462	7095.141734
632.608316	7063.420273
632.954117	7037.871706
633.299866	7025.167998
633.645562	7017.487800
633.991206	6938.548372
634.336797	6875.049998
634.682336	6840.686973
635.027823	6807.942158
635.373257	6795.462782
635.718639	6729.975673
636.063968	6741.550162
636.409245	6639.176930
636.754470	6634.917155
637.099642	6596.599345
637.444762	6539.510798
637.789829	6549.141922
638.134845	6489.515155
638.479808	6476.249358
638.824719	6478.701880
639.169577	6411.092445
639.514383	6428.066010
639.859137	6354.581110
640.203839	6369.334047
640.548489	6353.121696
640.893086	6323.187325
641.237632	6306.138142
