Dividing Wavelength (nm)	Counts (n)	Blue Motor Position (mm): 1.700000	Red Motor Position (mm): 0.000000	
326.493990	2162.987716
326.888308	2162.987716
327.282561	2162.987716
327.676750	2122.303084
328.070874	2119.616149
328.464933	2120.117744
328.858929	2124.478342
329.252859	2129.297685
329.646726	2137.335805
330.040528	2150.929276
330.434265	2162.397901
330.827938	2181.125788
331.221547	2198.994158
331.615091	2216.509647
332.008571	2232.565722
332.401986	2255.069432
332.795338	2271.364962
333.188625	2289.755091
333.581847	2308.132618
333.975006	2325.383446
334.368100	2345.288442
334.761129	2361.094980
335.154095	2379.114584
335.546996	2397.146792
335.939833	2411.758576
336.332606	2428.573345
336.725315	2440.677155
337.117960	2453.297684
337.510540	2467.329736
337.903056	2478.334574
338.295508	2486.617190
338.687896	2494.635145
339.080220	2504.304078
339.472480	2507.452279
339.864676	2512.947137
340.256807	2520.561800
340.648875	2522.674043
341.040879	2525.933149
341.432818	2527.803417
341.824694	2532.874818
342.216506	2531.496062
342.608253	2532.451361
342.999937	2533.814993
343.391557	2535.927237
343.783113	2530.031607
344.174605	2530.558408
344.566033	2529.247708
344.957397	2530.502955
345.348697	2529.303160
345.739934	2525.744106
346.131106	2525.487007
346.522215	2524.554393
346.913260	2522.353930
347.304241	2518.386542
347.695159	2516.027282
348.086012	2514.184740
348.476802	2514.106602
348.867528	2508.316837
349.258191	2506.071003
349.648789	2506.749038
350.039324	2500.389622
350.429796	2507.603514
350.820203	2503.802484
351.210548	2503.487412
351.600828	2503.651249
351.991045	2501.123110
352.381198	2499.787205
352.771288	2498.728562
353.161314	2498.910044
353.551276	2498.806700
353.941175	2498.708398
354.331010	2498.264776
354.720782	2497.246463
355.110490	2499.383912
355.500135	2497.864004
355.889717	2499.562873
356.279235	2497.304436
356.668689	2496.850733
357.058080	2498.804180
357.447408	2498.610095
357.836672	2497.697646
358.225873	2498.297544
358.615010	2500.450116
359.004084	2500.785353
359.393095	2498.836947
359.782043	2501.392812
360.170927	2500.074550
360.559748	2500.676968
360.948505	2501.944818
361.337199	2505.733246
361.725830	2502.025477
362.114398	2503.343739
362.502903	2504.480519
362.891344	2506.552433
363.279722	2501.992709
363.668037	2506.809532
364.056289	2507.094357
364.444478	2505.385406
364.832603	2506.318019
365.220665	2507.485047
365.608665	2506.796929
365.996601	2507.268277
366.384474	2508.417660
366.772284	2510.587877
367.160031	2512.667353
367.547715	2508.203411
367.935336	2508.765500
368.322893	2507.681652
368.710388	2505.579490
369.097820	2508.210973
369.485189	2506.696106
369.872495	2511.122239
370.259738	2510.567712
370.646918	2511.278515
371.034035	2510.633247
371.421090	2511.396982
371.808081	2512.601818
372.195010	2515.732374
372.581875	2515.432426
372.968678	2511.286077
373.355418	2515.185409
373.742096	2513.355470
374.128710	2512.324554
374.515262	2514.146931
374.901751	2514.593073
375.288177	2515.303876
375.674540	2515.480317
376.060841	2515.634072
376.447079	2514.151973
376.833254	2514.235152
377.219367	2516.561644
377.605417	2517.244720
377.991404	2517.302694
378.377329	2514.706499
378.763191	2514.429236
379.148991	2518.449556
379.534727	2515.636592
379.920402	2520.241686
380.306013	2516.324710
380.691563	2517.544669
381.077049	2519.455266
381.462474	2518.479803
381.847835	2518.961233
382.233134	2518.983918
382.618371	2519.508198
383.003545	2516.841428
383.388657	2520.014834
383.773706	2521.055833
384.158693	2516.964936
384.543618	2519.908970
384.928480	2519.419978
385.313280	2519.165400
385.698017	2519.331758
386.082692	2522.036337
386.467305	2521.965761
386.851856	2521.554907
387.236344	2518.850328
387.620770	2517.388393
388.005133	2514.787158
388.389435	2519.901408
388.773674	2517.509381
389.157851	2524.703107
389.541965	2524.534229
389.926018	2523.195802
390.310008	2521.993487
390.693936	2525.015659
391.077802	2523.601615
391.461606	2525.091276
391.845348	2523.699918
392.229027	2523.848632
392.612645	2520.705473
392.996200	2524.977850
393.379694	2523.215967
393.763125	2526.507841
394.146494	2527.354754
394.529801	2521.595236
394.913047	2525.650844
395.296230	2526.540608
395.679351	2524.902233
396.062410	2527.478263
396.445408	2527.395084
396.828343	2525.731503
397.211217	2526.066740
397.594028	2526.848118
397.976778	2526.328880
398.359466	2525.623118
398.742092	2524.204033
399.124656	2527.092614
399.507158	2527.863911
399.889598	2527.692512
400.271977	2528.753675
400.654294	2525.446678
401.036549	2526.948942
401.418742	2529.159488
401.800874	2527.616894
402.182944	2527.669827
402.564952	2528.831812
402.946898	2528.156298
403.328783	2527.619415
403.710606	2527.697553
404.092367	2528.501617
404.474067	2530.152595
404.855705	2528.151257
405.237282	2530.369364
405.618797	2530.139992
406.000250	2532.567307
406.381642	2530.197965
406.762972	2528.168901
407.144240	2528.287368
407.525447	2532.965559
407.906593	2528.211751
408.287677	2533.401618
408.668700	2530.727286
409.049661	2531.281813
409.430560	2533.071423
409.811399	2530.409694
410.192176	2532.153933
410.572891	2532.610157
410.953545	2528.657893
411.334138	2534.374561
411.714669	2532.816845
412.095139	2532.534540
412.475547	2532.844571
412.855894	2531.584283
413.236180	2534.031763
413.616405	2534.049407
413.996568	2535.718029
414.376670	2534.535878
414.756711	2533.169725
415.136691	2533.396577
415.516609	2532.433717
415.896466	2534.122503
416.276262	2532.773995
416.655997	2533.600744
417.035670	2534.112421
417.415283	2535.720549
417.794834	2534.457740
418.174324	2538.659542
418.553753	2534.556043
418.933121	2536.232226
419.312428	2534.059489
419.691674	2535.097967
420.070859	2535.337422
420.449983	2537.600900
420.829045	2534.624098
421.208047	2536.428831
421.586988	2538.251208
421.965867	2537.081661
422.344686	2536.708615
422.723444	2536.617875
423.102141	2536.433873
423.480777	2538.213400
423.859352	2537.500077
424.237866	2537.535365
424.616319	2537.200128
424.994712	2535.113090
425.373044	2538.896476
425.751314	2535.203831
426.129524	2536.945550
426.507673	2536.446475
426.885762	2532.458923
427.263789	2538.291538
427.641756	2538.939326
428.019662	2540.552495
428.397508	2540.305479
428.775292	2537.386651
429.153016	2537.731970
429.530679	2537.895807
429.908282	2536.607792
430.285824	2540.023174
430.663305	2539.766075
431.040726	2540.902855
431.418086	2540.880170
431.795385	2541.565767
432.172624	2536.033101
432.549802	2538.369676
432.926920	2539.834131
433.303977	2538.188194
433.680974	2539.813966
434.057910	2543.060469
434.434786	2543.083154
434.811601	2540.731456
435.188355	2539.912269
435.565050	2543.015099
435.941683	2540.955787
436.318257	2541.797660
436.694770	2541.883360
437.071222	2542.168185
437.447614	2537.558050
437.823946	2542.702547
438.200218	2542.523586
438.576429	2543.617517
438.952580	2541.895963
439.328670	2543.488967
439.704700	2541.946374
440.080670	2542.924358
440.456580	2539.466127
440.832429	2541.452341
441.208218	2541.258257
441.583947	2542.437887
441.959616	2543.874616
442.335224	2540.983514
442.710773	2545.066848
443.086261	2542.490819
443.461689	2544.464431
443.837057	2544.282949
444.212365	2542.619368
444.587612	2541.084337
444.962800	2541.278421
445.337927	2540.829759
445.712995	2535.589479
446.088002	2542.805891
446.462949	2543.163813
446.837837	2539.430838
447.212664	2544.235058
447.587431	2543.642722
447.962139	2543.098278
448.336786	2547.163968
448.711374	2543.806560
449.085901	2543.922507
449.460369	2544.187167
449.834776	2545.392003
450.209124	2544.807229
450.583412	2543.420912
450.957640	2543.854451
451.331808	2544.817311
451.705917	2542.684903
452.079965	2544.474513
452.453954	2544.771941
452.827883	2547.882333
453.201752	2545.414688
453.575562	2545.213042
453.949311	2543.998124
454.323001	2545.243289
454.696632	2546.337219
455.070202	2543.362938
455.443713	2545.623896
455.817164	2545.031560
456.190556	2546.617003
456.563888	2545.424770
456.937160	2544.797147
457.310373	2545.205480
457.683526	2546.203629
458.056619	2543.748587
458.429653	2549.344268
458.802628	2545.444935
459.175542	2546.538865
459.548398	2546.070038
459.921194	2545.334030
460.293930	2547.723537
460.666607	2544.366128
461.039224	2548.061294
461.411782	2545.891077
461.784280	2548.174720
462.156719	2546.067517
462.529099	2545.959133
462.901419	2547.017775
463.273680	2543.584749
463.645882	2542.221117
464.018024	2544.895449
464.390106	2545.840666
464.762130	2547.196736
465.134094	2545.830583
465.505999	2545.419729
465.877845	2547.232024
466.249631	2546.125491
466.621358	2546.710265
466.993026	2547.317724
467.364634	2549.056922
467.736184	2549.571119
468.107674	2545.893598
468.479105	2549.266130
468.850477	2548.000800
469.221790	2548.756973
469.593043	2545.830583
469.964238	2545.936447
470.335373	2548.109185
470.706449	2549.561037
471.077467	2547.842004
471.448425	2547.887374
471.819324	2547.181613
472.190164	2549.306459
472.560945	2549.067004
472.931667	2548.600697
473.302330	2547.791592
473.672934	2546.284287
474.043479	2549.669422
474.413965	2550.317210
474.784393	2548.550286
475.154761	2549.114895
475.525070	2550.599515
475.895321	2548.174720
476.265513	2548.235214
476.635645	2550.690256
477.005719	2549.404761
477.375734	2553.566234
477.745691	2550.725544
478.115588	2550.019782
478.485427	2547.867209
478.855207	2549.966850
479.224928	2550.339895
479.594591	2550.097920
479.964194	2552.159752
480.333739	2547.746222
480.703226	2547.617672
481.072653	2549.450132
481.442022	2545.523073
481.811333	2547.683207
482.180584	2544.850079
482.549777	2547.773948
482.918912	2544.736653
483.287988	2547.098433
483.657005	2550.113043
484.025964	2548.497354
484.394864	2550.755791
484.763706	2550.465924
485.132489	2552.033723
485.501213	2549.394679
485.869879	2550.738147
486.238487	2549.709751
486.607036	2547.806716
486.975527	2550.327292
487.343959	2551.653116
487.712333	2552.242931
488.080648	2549.366953
488.448905	2553.266285
488.817104	2549.573640
489.185244	2551.269988
489.553326	2551.595143
489.921350	2550.158414
490.289315	2549.646737
490.657222	2552.515153
491.025070	2550.791079
491.392861	2552.759649
491.760593	2549.049360
492.128267	2552.487427
492.495883	2552.192519
492.863440	2549.992056
493.230939	2552.348795
493.598380	2554.236707
493.965763	2552.396686
494.333088	2548.439380
494.700354	2549.003990
495.067563	2552.041285
495.434713	2550.251675
495.801805	2552.810061
496.168839	2550.392828
496.535815	2550.405430
496.902733	2550.292004
497.269593	2551.648075
497.636395	2550.725544
498.003139	2549.936603
498.369825	2551.827036
498.736453	2553.977088
499.103023	2553.115051
499.469535	2551.587581
499.835989	2551.789227
500.202385	2549.757642
500.568723	2549.329144
500.935003	2550.012220
501.301226	2546.057435
501.667390	2549.525749
502.033497	2556.595967
502.399546	2553.961964
502.765537	2552.195040
503.131470	2552.696635
503.497345	2552.500030
503.863163	2553.672098
504.228923	2552.124464
504.594625	2552.797458
504.960269	2551.083466
505.325856	2551.852242
505.691385	2552.439536
506.056856	2554.829043
506.422270	2552.192519
506.787625	2551.983312
507.152924	2554.405586
507.518164	2553.467931
507.883347	2551.085986
508.248472	2552.245452
508.613540	2551.806871
508.978550	2554.234187
509.343503	2550.743188
509.708398	2554.529094
510.073236	2552.774773
510.438016	2553.828374
510.802738	2550.755791
511.167403	2555.741492
511.532010	2553.651933
511.896561	2553.414999
512.261053	2554.254351
512.625488	2555.008004
512.989866	2552.968857
513.354186	2553.793086
513.718449	2549.992056
514.082655	2554.423230
514.446803	2554.365257
514.810894	2551.401058
515.174927	2555.098745
515.538904	2554.660164
515.902822	2553.233518
516.266684	2553.573796
516.630488	2552.706717
516.994235	2551.345606
517.357925	2552.371480
517.721558	2554.251831
518.085133	2552.479865
518.448651	2551.680842
518.812112	2551.577499
519.175516	2553.185627
519.538863	2548.938455
519.902152	2555.560010
520.265385	2553.687222
520.628560	2556.999260
520.991678	2552.530277
521.354739	2551.879968
521.717743	2553.203271
522.080690	2555.590257
522.443580	2555.524722
522.806413	2552.716799
523.169189	2555.839794
523.531908	2556.043961
523.894569	2551.643034
524.257174	2553.543549
524.619722	2554.491286
524.982213	2555.560010
525.344647	2552.202602
525.707025	2552.353836
526.069345	2553.772921
526.431608	2554.675288
526.793815	2555.489434
527.155964	2554.166131
527.518057	2554.135884
527.880093	2555.653272
528.242072	2552.550441
528.603995	2556.187634
528.965860	2552.225287
529.327669	2555.786862
529.689421	2554.090514
530.051117	2552.699155
530.412755	2552.492468
530.774337	2553.735112
531.135862	2553.331820
531.497331	2554.040102
531.858743	2552.744526
532.220098	2552.580688
532.581396	2553.556152
532.942638	2555.451625
533.303824	2555.416337
533.664953	2555.633107
534.026025	2554.748384
534.387040	2554.087993
534.747999	2553.919115
535.108902	2552.295863
535.469748	2556.394321
535.830537	2555.444064
536.191270	2554.919784
536.551947	2549.820657
536.912567	2549.709751
537.273131	2552.996583
537.633638	2549.694628
537.994089	2554.690411
538.354483	2552.757129
538.714821	2555.096224
539.075103	2553.236038
539.435328	2555.335679
539.795497	2555.227294
540.155609	2553.687222
540.515665	2555.048333
540.875665	2553.793086
541.235609	2554.813919
541.595496	2551.620348
541.955328	2552.621017
542.315102	2557.455484
542.674821	2553.651933
543.034483	2554.526574
543.394090	2555.665874
543.753640	2556.764846
544.113134	2552.520194
544.472571	2555.643189
544.831953	2554.597150
545.191278	2554.894578
545.550548	2555.905329
545.909761	2556.369115
546.268918	2554.728220
546.628019	2555.842315
546.987064	2556.961451
547.346053	2556.744681
547.704986	2554.236707
548.063863	2557.047151
548.422684	2553.470452
548.781449	2556.316183
549.140158	2555.902809
549.498811	2555.955741
549.857408	2552.913404
550.215949	2554.392983
550.574434	2552.931048
550.932864	2555.617983
551.291237	2552.603373
551.649555	2553.321738
552.007817	2554.650082
552.366022	2555.307952
552.724173	2557.377346
553.082267	2553.036913
553.440305	2555.194527
553.798288	2555.353323
554.156215	2553.898950
554.514086	2551.552293
554.871902	2551.340564
555.229661	2553.989691
555.587365	2550.791079
555.945014	2555.562531
556.302606	2556.563200
556.660143	2555.232335
557.017625	2557.473128
557.375050	2555.179403
557.732421	2554.302242
558.089735	2557.173179
558.446994	2551.897612
558.804197	2556.422047
559.161345	2551.937941
559.518437	2554.087993
559.875474	2555.159238
560.232455	2554.803837
560.589381	2552.308466
560.946251	2554.236707
561.303065	2554.813919
561.659825	2556.633776
562.016528	2554.201419
562.373177	2554.829043
562.729770	2555.754095
563.086307	2556.046482
563.442789	2552.689073
563.799216	2555.721327
564.155587	2555.398693
564.511904	2556.485062
564.868164	2555.804506
565.224370	2554.839125
565.580520	2554.113199
565.936615	2556.119578
566.292654	2555.305432
566.648638	2556.220401
567.004567	2559.552604
567.360441	2557.082439
567.716260	2553.150339
568.072023	2558.907336
568.427732	2556.318704
568.783385	2560.149981
569.138982	2556.112017
569.494525	2554.014897
569.850013	2551.398538
570.205445	2555.814588
570.560823	2553.387273
570.916145	2557.210988
571.271412	2555.081101
571.626625	2557.263920
571.981782	2555.832233
572.336884	2555.249979
572.691931	2552.842828
573.046923	2551.101110
573.401860	2547.514329
573.756743	2557.248797
574.111570	2557.117727
574.466342	2556.217881
574.821059	2554.478683
575.175722	2555.786862
575.530330	2555.547407
575.884882	2555.623025
576.239380	2553.820812
576.593823	2559.870197
576.948211	2555.902809
577.302544	2558.118396
577.656823	2555.733930
578.011047	2555.209650
578.365216	2557.299208
578.719330	2556.938766
579.073389	2556.946327
579.427394	2555.693601
579.781344	2559.179559
580.135239	2554.904660
580.489080	2558.022614
580.842866	2557.394990
581.196597	2562.552091
581.550273	2555.053374
581.903895	2558.040258
582.257463	2556.331307
582.610975	2557.904147
582.964434	2559.822306
583.317837	2558.219219
583.671186	2558.067984
584.024481	2553.662016
584.377721	2556.472459
584.730906	2554.244269
585.084037	2555.877603
585.437113	2555.378529
585.790135	2555.847356
586.143103	2557.183262
586.496016	2558.365412
586.848874	2555.333158
587.201679	2557.692418
587.554428	2557.778118
587.907124	2555.260062
588.259765	2558.385577
588.612352	2555.970864
588.964884	2555.340720
589.317362	2558.970351
589.669786	2557.024465
590.022155	2555.123950
590.374470	2552.701676
590.726731	2556.013714
591.078937	2550.967519
591.431090	2556.694270
591.783188	2558.894733
592.135232	2559.855073
592.487222	2553.931718
592.839157	2556.235525
593.191038	2553.813250
593.542866	2555.214691
593.894639	2557.765515
594.246358	2555.030689
594.598022	2556.525391
594.949633	2557.140412
595.301190	2554.758467
595.652692	2556.301060
596.004141	2556.296019
596.355535	2556.507747
596.706876	2555.229815
597.058162	2555.491955
597.409395	2555.451625
597.760573	2557.977243
598.111698	2555.071018
598.462768	2556.543035
598.813785	2554.582026
599.164748	2557.210988
599.515657	2556.462377
599.866511	2554.760987
600.217312	2557.135371
600.568060	2554.728220
600.918753	2559.008159
601.269392	2554.692932
601.619978	2555.454146
601.970510	2555.025648
602.320988	2555.522202
602.671412	2554.277037
603.021783	2556.207798
603.372100	2554.839125
603.722363	2557.284085
604.072572	2557.946997
604.422728	2560.051678
604.772830	2558.630073
605.122878	2556.104455
605.472872	2557.558828
605.822813	2555.292829
606.172701	2554.849208
606.522534	2556.860628
606.872314	2558.423386
607.222041	2555.582695
607.571714	2552.338713
607.921333	2552.704197
608.270899	2555.643189
608.620411	2552.605894
608.969870	2557.455484
609.319276	2560.160063
609.668627	2566.824468
610.017926	2567.739438
610.367171	2571.757238
610.716362	2571.908472
611.065500	2567.346228
611.414585	2564.306412
611.763616	2564.893707
612.112594	2562.922615
612.461518	2563.487225
612.810389	2562.693243
613.159207	2559.093859
613.507971	2560.200392
613.856682	2560.825495
614.205340	2557.591595
614.553945	2560.598643
614.902496	2557.828529
615.250994	2558.809034
615.599439	2560.021431
615.947830	2555.376008
616.296169	2554.962633
616.644454	2555.575134
616.992686	2555.491955
617.340864	2559.729044
617.688990	2558.672923
618.037063	2557.803324
618.385082	2556.956410
618.733048	2558.047820
619.080961	2557.009342
619.428821	2555.222253
619.776628	2557.440361
620.124382	2559.255176
620.472083	2558.942624
620.819731	2557.359702
621.167326	2557.725186
621.514868	2555.796944
621.862357	2556.953889
622.209793	2554.665205
622.557176	2555.887685
622.904506	2556.321224
623.251783	2557.490772
623.599007	2556.038920
623.946179	2555.446584
624.293297	2557.669733
624.640363	2555.779300
624.987376	2556.623694
625.334336	2550.901984
625.681243	2552.747046
626.028097	2551.504402
626.374899	2555.673436
626.721647	2555.665874
627.068343	2554.453477
627.414987	2556.795093
627.761577	2556.764846
628.108115	2557.105124
628.454600	2556.636297
628.801032	2555.277706
629.147412	2557.306770
629.493739	2557.757953
629.840014	2555.305432
630.186236	2557.770556
630.532405	2556.356512
630.878521	2557.077398
631.224585	2557.548745
631.570597	2556.749723
631.916556	2555.978426
632.262462	2556.139743
632.608316	2557.243756
632.954117	2556.235525
633.299866	2556.301060
633.645562	2554.279557
633.991206	2557.268961
634.336797	2556.631255
634.682336	2553.702345
635.027823	2557.279044
635.373257	2554.519012
635.718639	2555.754095
636.063968	2554.708055
636.409245	2554.362736
636.754470	2555.360885
637.099642	2555.030689
637.444762	2556.548076
637.789829	2555.396173
638.134845	2556.192675
638.479808	2553.740154
638.824719	2556.273333
639.169577	2555.794424
639.514383	2557.710062
639.859137	2555.494475
640.203839	2556.631255
640.548489	2555.446584
640.893086	2556.550597
641.237632	2554.771070
641.582125	2556.616132
641.926566	2555.418858
642.270955	2552.126984
642.615292	2550.596994
642.959576	2551.005328
643.303809	2553.142777
643.647990	2554.251831
643.992118	2555.209650
644.336195	2556.253169
