Dividing Wavelength (nm)	Counts (n)	Blue Motor Position (mm): 40.500000	Red Motor Position (mm): 0.000000	
326.493990	2131.094856
326.888308	2131.094856
327.282561	2131.094856
327.676750	2094.327201
328.070874	2095.617736
328.464933	2098.103025
328.858929	2104.946391
329.252859	2115.726899
329.646726	2128.720473
330.040528	2139.188429
330.434265	2155.083187
330.827938	2173.052380
331.221547	2190.887982
331.615091	2209.454552
332.008571	2229.157902
332.401986	2249.869482
332.795338	2270.951588
333.188625	2289.107303
333.581847	2307.174798
333.975006	2325.751450
334.368100	2342.558657
334.761129	2360.903416
335.154095	2377.604759
335.546996	2400.668038
335.939833	2425.220978
336.332606	2437.591969
336.725315	2450.532611
337.117960	2460.554425
337.510540	2469.593214
337.903056	2482.475882
338.295508	2486.602067
338.687896	2494.713283
339.080220	2503.462206
339.472480	2510.328257
339.864676	2517.867303
340.256807	2521.970802
340.648875	2525.126564
341.040879	2526.086904
341.432818	2527.755526
341.824694	2528.758716
342.216506	2526.785104
342.608253	2527.773170
342.999937	2530.654190
343.391557	2530.003881
343.783113	2527.720238
344.174605	2526.273427
344.566033	2528.055475
344.957397	2524.940042
345.348697	2522.303518
345.739934	2521.938035
346.131106	2518.731861
346.522215	2520.271933
346.913260	2513.519308
347.304241	2512.546365
347.695159	2512.909328
348.086012	2512.780779
348.476802	2508.599142
348.867528	2506.267608
349.258191	2503.157216
349.648789	2505.254336
350.039324	2500.878614
350.429796	2503.474809
350.820203	2499.653614
351.210548	2499.114211
351.600828	2498.542040
351.991045	2499.300733
352.381198	2499.124293
352.771288	2495.300578
353.161314	2495.812255
353.551276	2498.352996
353.941175	2495.892913
354.331010	2494.506596
354.720782	2497.203613
355.110490	2493.470639
355.500135	2498.491628
355.889717	2496.651607
356.279235	2496.331494
356.668689	2497.687564
357.058080	2498.194200
357.447408	2495.565238
357.836672	2492.991729
358.225873	2498.161432
358.615010	2493.389980
359.004084	2500.104797
359.393095	2499.852740
359.782043	2503.235354
360.170927	2499.330980
360.559748	2502.227123
360.948505	2500.256032
361.337199	2503.779798
361.725830	2504.853564
362.114398	2506.310458
362.502903	2505.491270
362.891344	2503.759634
363.279722	2506.507063
363.668037	2505.123266
364.056289	2506.922958
364.444478	2509.211642
364.832603	2510.013185
365.220665	2509.393123
365.608665	2505.624861
365.996601	2509.773730
366.384474	2510.976046
366.772284	2509.821621
367.160031	2509.287259
367.547715	2509.224245
367.935336	2509.877074
368.322893	2510.358504
368.710388	2511.863289
369.097820	2513.993176
369.485189	2510.227434
369.872495	2512.483351
370.259738	2510.287928
370.646918	2515.964267
371.034035	2513.693227
371.421090	2515.928979
371.808081	2515.228259
372.195010	2514.986283
372.581875	2514.237672
372.968678	2515.981911
373.355418	2518.479803
373.742096	2517.380832
374.128710	2517.786644
374.515262	2515.099709
374.901751	2517.118692
375.288177	2521.012983
375.674540	2517.504340
376.060841	2519.062056
376.447079	2519.745133
376.833254	2520.891995
377.219367	2517.519463
377.605417	2516.178516
377.991404	2517.224556
378.377329	2516.614576
378.763191	2518.308404
379.148991	2523.001718
379.534727	2523.894002
379.920402	2522.502644
380.306013	2523.667150
380.691563	2524.198992
381.077049	2524.340144
381.462474	2524.385515
381.847835	2526.999353
382.233134	2525.146729
382.618371	2526.202851
383.003545	2525.847449
383.388657	2527.130423
383.773706	2527.901720
384.158693	2529.656041
384.543618	2530.152595
384.928480	2529.068747
385.313280	2532.131248
385.698017	2533.331042
386.082692	2535.949922
386.467305	2539.675334
386.851856	2543.133566
387.236344	2546.677497
387.620770	2553.374670
388.005133	2560.134857
388.389435	2570.847309
388.773674	2577.582291
389.157851	2589.058477
389.541965	2604.907865
389.926018	2611.390789
390.310008	2630.995836
390.693936	2648.667601
391.077802	2665.603357
391.461606	2684.129598
391.845348	2707.601210
392.229027	2727.753223
392.612645	2746.377766
392.996200	2778.086623
393.379694	2812.578198
393.763125	2848.806450
394.146494	2867.183976
394.529801	2905.161509
394.913047	2949.556430
395.296230	2971.142651
395.679351	3015.013292
396.062410	3056.333110
396.445408	3078.398240
396.828343	3123.622431
397.211217	3165.748833
397.594028	3167.193124
397.976778	3230.101683
398.359466	3277.291924
398.742092	3327.756395
399.124656	3324.124243
399.507158	3397.586458
399.889598	3447.035136
400.271977	3516.046011
400.654294	3535.303219
401.036549	3579.582194
401.418742	3593.853700
401.800874	3694.049154
402.182944	3742.398860
402.564952	3820.095644
402.946898	3845.087164
403.328783	3877.990775
403.710606	3842.957277
404.092367	4020.415974
404.474067	4027.801265
404.855705	4061.309814
405.237282	4031.645144
405.618797	4146.603617
406.000250	4202.310887
406.381642	4294.488385
406.762972	4289.071666
407.144240	4325.428467
407.525447	4342.454964
407.906593	4418.200821
408.287677	4482.125173
408.668700	4434.950055
409.049661	4502.786342
409.430560	4554.566553
409.811399	4507.590561
410.192176	4665.018234
410.572891	4620.845124
410.953545	4734.651692
411.334138	4633.168224
411.714669	4704.913926
412.095139	4616.562663
412.475547	4764.523049
412.855894	4752.056276
413.236180	4773.191313
413.616405	4732.244541
413.996568	4819.980783
414.376670	4769.370119
414.756711	4727.757914
415.136691	4763.436681
415.516609	4842.030790
415.896466	4883.784147
416.276262	4919.606586
416.655997	4901.884409
417.035670	5081.503242
417.415283	5171.286192
417.794834	5123.561588
418.174324	5076.928394
418.553753	4985.567563
418.933121	5171.863404
419.312428	5243.735134
419.691674	5178.353889
420.070859	5305.453981
420.449983	5219.066248
420.829045	5333.316438
421.208047	5243.241101
421.586988	5313.910516
421.965867	5324.784285
422.344686	5458.798319
422.723444	5315.886648
423.102141	5132.943175
423.480777	5432.929638
423.859352	5204.157035
424.237866	5458.906704
424.616319	5452.229695
424.994712	5558.739194
425.373044	5438.427016
425.751314	5580.819448
426.129524	5383.269231
426.507673	5577.661165
426.885762	5662.246685
427.263789	5590.344708
427.641756	5474.350278
428.019662	5600.285863
428.397508	5606.050423
428.775292	5550.630498
429.153016	5651.085571
429.530679	5577.401545
429.908282	5662.138300
430.285824	5532.431932
430.663305	5806.509385
431.040726	5543.383839
431.418086	5542.446185
431.795385	5651.433410
432.172624	5662.796171
432.549802	5655.426004
432.926920	5666.234238
433.303977	5677.365106
433.680974	5714.523451
434.057910	5727.950564
434.434786	5734.809054
434.811601	5705.560279
435.188355	5941.445950
435.565050	5813.377957
435.941683	5795.902797
436.318257	6012.322052
436.694770	5996.455021
437.071222	6029.121698
437.447614	5958.749710
437.823946	5874.547318
438.200218	6027.846286
438.576429	5895.337036
438.952580	5989.165512
439.328670	6038.389859
439.704700	5945.191527
440.080670	5926.108239
440.456580	6195.273087
440.832429	6083.929122
441.208218	5929.546306
441.583947	6084.193783
441.959616	6084.929791
442.335224	6014.225088
442.710773	6149.345655
443.086261	6179.098545
443.461689	5976.648327
443.837057	6119.131499
444.212365	6280.052692
444.587612	6172.134191
444.962800	6325.975083
445.337927	6304.250230
445.712995	5913.066774
446.088002	6491.556822
446.462949	6324.218241
446.837837	6256.712150
447.212664	6424.943015
447.587431	6567.078348
447.962139	7116.523788
448.336786	8031.150412
448.711374	7777.051053
449.085901	6852.526123
449.460369	6772.296159
449.834776	6699.574994
450.209124	7094.912361
450.583412	7250.487410
450.957640	7397.570635
451.331808	7157.752865
451.705917	6710.451284
452.079965	6633.677031
452.453954	6845.811306
452.827883	6722.066102
453.201752	6815.972716
453.575562	6615.002077
453.949311	6818.934394
454.323001	6708.429781
454.696632	6783.371574
455.070202	6920.148160
455.443713	7072.970739
455.817164	7178.217429
456.190556	7260.821776
456.563888	7334.974628
456.937160	7377.421143
457.310373	7035.623351
457.683526	7058.152267
458.056619	6952.315763
458.429653	6935.954698
458.802628	6872.683176
459.175542	6987.182904
459.548398	7336.005544
459.921194	7490.542115
460.293930	7498.189546
460.666607	8033.900362
461.039224	8336.299017
461.411782	8462.975651
461.784280	8478.610790
462.156719	8372.098771
462.529099	8247.564627
462.901419	7839.150507
463.273680	7732.794763
463.645882	7741.836073
464.018024	7609.417564
464.390106	7775.226155
464.762130	8164.773757
465.134094	8634.999985
465.505999	9652.851796
465.877845	10882.467357
466.249631	11522.177177
466.621358	11137.950513
466.993026	10512.812148
467.364634	10254.505946
467.736184	9891.852900
468.107674	9559.232528
468.479105	9593.744267
468.850477	9357.936734
469.221790	9126.169686
469.593043	8801.582393
469.964238	8663.192638
470.335373	8674.971294
470.706449	8728.498265
471.077467	8718.494095
471.448425	10023.527838
471.819324	11098.987435
472.190164	11113.609302
472.560945	9862.664619
472.931667	9081.865506
473.302330	8947.211245
473.672934	8585.783200
474.043479	8952.567471
474.413965	8897.618894
474.784393	8774.783619
475.154761	8927.891023
475.525070	9019.771093
475.895321	8846.609979
476.265513	9020.615487
476.635645	9196.992857
477.005719	9190.066311
477.375734	9306.693406
477.745691	9544.734170
478.115588	9676.557822
478.485427	9916.539430
478.855207	10457.462800
479.224928	11270.109403
479.594591	11904.722616
479.964194	11709.014942
480.333739	11648.364820
480.703226	11569.896740
481.072653	11652.803556
481.442022	11891.842468
481.811333	12078.521436
482.180584	11884.815100
482.549777	11590.683938
482.918912	11420.454254
483.287988	11441.644745
483.657005	11459.676952
484.025964	11139.609053
484.394864	11266.008424
484.763706	11234.352498
485.132489	10990.983235
485.501213	10956.652977
485.869879	11030.349605
486.238487	10873.874710
486.607036	10985.377472
486.975527	10769.197671
487.343959	10965.444749
487.712333	11005.985709
488.080648	10940.286871
488.448905	10978.702984
488.817104	10922.927658
489.185244	11177.395022
489.553326	11339.374857
489.921350	11879.557176
490.289315	12935.860389
490.657222	13285.053554
491.025070	13192.235829
491.392861	13060.684399
491.760593	12683.671626
492.128267	12337.813184
492.495883	12002.979746
492.863440	11668.768890
493.230939	11333.297746
493.598380	11266.837694
493.965763	11133.138732
494.333088	11036.444360
494.700354	10947.480598
495.067563	11020.058090
495.434713	10851.660866
495.801805	10972.953548
496.168839	10899.985367
496.535815	10835.990439
496.902733	10834.094965
497.269593	10764.816909
497.636395	10859.837618
498.003139	10851.824703
498.369825	10719.509538
498.736453	10880.851667
499.103023	10804.631942
499.469535	10837.522950
499.835989	10820.113325
500.202385	10785.531010
500.568723	10633.184820
500.935003	10863.200067
501.301226	10664.197998
501.667390	10923.910683
502.033497	11017.887873
502.399546	10880.423169
502.765537	10791.532503
503.131470	10862.574964
503.497345	11034.500995
503.863163	10647.088322
504.228923	10958.256064
504.594625	11024.627896
504.960269	10767.148442
505.325856	10992.971970
505.691385	10783.938005
506.056856	10935.578433
506.422270	10961.195057
506.787625	10854.211690
507.152924	10965.464914
507.518164	10951.488315
507.883347	10865.957578
508.248472	10790.302462
508.613540	11019.009530
508.978550	10915.373489
509.343503	10885.103881
509.708398	11003.444967
510.073236	11117.352359
510.438016	11120.266146
510.802738	11062.970912
511.167403	11125.887032
511.532010	11020.915086
511.896561	11247.590568
512.261053	11326.167033
512.625488	11182.748727
512.989866	11174.312356
513.354186	11164.333392
513.718449	11063.981663
514.082655	11254.597772
514.446803	11153.036166
514.810894	11279.450661
515.174927	11139.974537
515.538904	11161.439770
515.902822	11317.980200
516.266684	11202.888137
516.630488	11141.635597
516.994235	11198.724144
517.357925	11256.682289
517.721558	11342.639004
518.085133	11366.274453
518.448651	11380.104859
518.812112	11253.302196
519.175516	11273.789445
519.538863	11390.824873
519.902152	11309.281689
520.265385	11475.395270
520.628560	11384.530992
520.991678	11362.554082
521.354739	11422.576580
521.717743	11356.396313
522.080690	11345.187307
522.443580	11471.110289
522.806413	11426.380131
523.169189	11456.422887
523.531908	11514.867504
523.894569	11341.361071
524.257174	11343.614467
524.619722	11452.647063
524.982213	11406.681822
525.344647	11468.927469
525.707025	11406.424723
526.069345	11508.563541
526.431608	11418.289079
526.793815	11533.547500
527.155964	11315.389047
527.518057	11366.715554
527.880093	11318.925416
528.242072	11391.581046
528.603995	11295.726026
528.965860	11213.257790
529.327669	11269.880030
529.689421	11208.511544
530.051117	11185.831393
530.412755	11284.080961
530.774337	11180.545743
531.135862	11156.650674
531.497331	11185.060096
531.858743	11036.658609
532.220098	11204.249248
532.581396	11065.274719
532.942638	11059.018647
533.303824	11013.867553
533.664953	11030.861282
534.026025	10942.913312
534.387040	11045.026925
534.747999	11051.711495
535.108902	11107.529671
535.469748	10863.890705
535.830537	10973.447581
536.191270	10948.972779
536.551947	10972.867848
536.912567	10968.547580
537.273131	10895.755839
537.633638	10881.121369
537.994089	10866.597805
538.354483	10814.268107
538.714821	10957.071393
539.075103	10967.259565
539.435328	10934.083731
539.795497	10758.651577
540.155609	10910.649928
540.515665	10998.998669
540.875665	10742.867725
541.235609	10808.342231
541.595496	10801.637496
541.955328	10959.067690
542.315102	10839.342807
542.674821	10793.569130
543.034483	10791.741711
543.394090	10794.605087
543.753640	10719.277645
544.113134	10947.089908
544.472571	10794.584922
544.831953	10940.342324
545.191278	10752.415670
545.550548	10777.757551
545.909761	10909.462736
546.268918	10888.925075
546.628019	10973.432458
546.987064	10834.957003
547.346053	10754.976576
547.704986	10858.700837
548.063863	10847.799342
548.422684	10840.749288
548.781449	10750.830227
549.140158	10858.612617
549.498811	10731.532690
549.857408	10587.305279
550.215949	10819.372276
550.574434	10673.556901
550.932864	10767.708010
551.291237	10827.599439
551.649555	10778.102870
552.007817	10787.333222
552.366022	10750.593293
552.724173	10748.954918
553.082267	10733.957485
553.440305	10856.820487
553.798288	10667.623463
554.156215	10823.876547
554.514086	10797.428133
554.871902	10645.578497
555.229661	10680.611995
555.587365	10658.919910
555.945014	10559.188243
556.302606	10673.763588
556.660143	10571.415562
557.017625	10727.635878
557.375050	10625.038315
557.732421	10759.773234
558.089735	10671.598412
558.446994	10674.872642
558.804197	10711.247087
559.161345	10709.104597
559.518437	10562.288553
559.875474	10649.760134
560.232455	10681.073261
560.589381	10622.784920
560.946251	10622.311051
561.303065	10733.382794
561.659825	10672.941880
562.016528	10598.189130
562.373177	10477.123300
562.729770	10593.631927
563.086307	10510.493218
563.442789	10605.067784
563.799216	10481.677982
564.155587	10530.993070
564.511904	10481.355348
564.868164	10476.256221
565.224370	10480.395009
565.580520	10406.423638
565.936615	10419.540720
566.292654	10283.855544
566.648638	10414.136603
567.004567	10375.733093
567.360441	10361.693480
567.716260	10268.437175
568.072023	10368.592299
568.427732	10319.315020
568.783385	10222.844979
569.138982	10298.031268
569.494525	10305.325818
569.850013	10184.824597
570.205445	10274.514286
570.560823	10160.987501
570.916145	10078.587321
571.271412	10152.974587
571.626625	10094.149363
571.981782	10067.151463
572.336884	10039.929233
572.691931	10047.995079
573.046923	10001.079580
573.401860	9954.272467
573.756743	9886.663032
574.111570	9933.795300
574.466342	9911.972145
574.821059	9946.514131
575.175722	9836.866514
575.530330	9845.166774
575.884882	9840.138223
576.239380	9766.371019
576.593823	9743.002750
576.948211	9763.172407
577.302544	9643.157657
577.656823	9655.609307
578.011047	9657.807250
578.365216	9630.438826
578.719330	9554.201457
579.073389	9564.200585
579.427394	9515.185446
579.781344	9492.192744
580.135239	9438.423797
580.489080	9453.723699
580.842866	9349.144962
581.196597	9356.237866
581.550273	9396.872086
581.903895	9360.696766
582.257463	9431.469525
582.610975	9304.944125
582.964434	9339.511317
583.317837	9259.626673
583.671186	9241.586904
584.024481	9230.030058
584.377721	9149.129622
584.730906	9126.320921
585.084037	9163.837188
585.437113	9100.200182
585.790135	9111.895659
586.143103	9016.597687
586.496016	8989.662802
586.848874	9046.237151
587.201679	9033.079739
587.554428	8916.830732
587.907124	8963.806724
588.259765	8938.197662
588.612352	8938.737066
588.964884	8814.175195
589.317362	8828.827309
589.669786	8827.446033
590.022155	8876.123414
590.374470	8901.349348
590.726731	8832.129265
591.078937	8689.169703
591.431090	8797.327659
591.783188	8668.327053
592.135232	8667.749841
592.487222	8661.604674
592.839157	8716.162562
593.191038	8646.108167
593.542866	8593.849046
593.894639	8492.607553
594.246358	8546.570585
594.598022	8565.553049
594.949633	8456.381822
595.301190	8436.025642
595.652692	8462.370713
596.004141	8574.193587
596.355535	8343.701951
596.706876	8325.914240
597.058162	8261.364785
597.409395	8342.915531
597.760573	8404.644460
598.111698	8313.069380
598.462768	8300.269890
598.813785	8266.148840
599.164748	8233.426711
599.515657	8223.654434
599.866511	8132.344014
600.217312	8260.752285
600.568060	8115.677960
600.918753	8220.453301
601.269392	8188.651182
601.619978	8102.460054
601.970510	8167.012029
602.320988	8161.290320
602.671412	8220.539001
603.021783	8155.853435
603.372100	8123.506872
603.722363	8133.614385
604.072572	8105.308306
604.422728	8117.777600
604.772830	8042.581229
605.122878	8051.892240
605.472872	8047.665232
605.822813	8075.517607
606.172701	8018.229935
606.522534	8097.716328
606.872314	8103.228830
607.222041	8064.701812
607.571714	8114.420192
607.921333	8081.788803
608.270899	8083.933814
608.620411	8174.225920
608.969870	8074.141372
609.319276	8072.364366
609.668627	8087.492868
610.017926	8127.749002
610.367171	8178.410078
610.716362	8147.560737
611.065500	8141.755848
611.414585	8170.566043
611.763616	8152.133064
612.112594	8138.164026
612.461518	8153.108527
612.810389	8210.814615
613.159207	8153.234556
613.507971	8100.466278
613.856682	8217.516829
614.205340	8176.350767
614.553945	8252.913291
614.902496	8153.015266
615.250994	8204.908903
615.599439	8183.930142
615.947830	8197.974796
616.296169	8172.726177
616.644454	8189.934156
616.992686	8193.236112
617.340864	8239.261846
617.688990	8147.250706
618.037063	8236.146413
618.385082	8183.327724
618.733048	8268.805528
619.080961	8210.663380
619.428821	8233.328408
619.776628	8234.112308
620.124382	8186.778393
620.472083	8167.070002
620.819731	8190.460956
621.167326	8088.952282
621.514868	8092.652489
621.862357	7979.004717
622.209793	8004.533120
622.557176	7935.396216
622.904506	7906.086947
623.251783	7841.953388
623.599007	7792.633259
623.946179	7799.632902
624.293297	7756.193279
624.640363	7672.152203
624.987376	7651.823750
625.334336	7608.391689
625.681243	7551.340951
626.028097	7539.239661
626.374899	7521.772063
626.721647	7508.899477
627.068343	7444.657533
627.414987	7411.968171
627.761577	7366.396140
628.108115	7398.772951
628.454600	7298.940460
628.801032	7347.151535
629.147412	7309.894888
629.493739	7294.257228
629.840014	7234.882518
630.186236	7293.034749
630.532405	7176.548807
630.878521	7226.073102
631.224585	7185.910229
631.570597	7107.064063
631.916556	7141.606049
632.262462	7133.532641
632.608316	7101.324709
632.954117	7076.892757
633.299866	7058.679068
633.645562	7056.657565
633.991206	6973.743187
634.336797	6918.797131
634.682336	6873.835080
635.027823	6843.343661
635.373257	6840.013979
635.718639	6766.851713
636.063968	6773.611900
636.409245	6669.796899
636.754470	6673.819739
637.099642	6631.925230
637.444762	6569.780406
637.789829	6579.358599
638.134845	6523.084198
638.479808	6507.779255
638.824719	6512.646489
639.169577	6439.733761
639.514383	6460.160516
639.859137	6392.299023
640.203839	6399.555764
640.548489	6384.278548
