Dividing Wavelength (nm)	Counts (n)	Blue Motor Position (mm): 47.000000	Red Motor Position (mm): 0.000000	
326.493990	2150.959523
326.888308	2150.959523
327.282561	2150.959523
327.676750	2129.411111
328.070874	2129.464043
328.464933	2132.307254
328.858929	2143.317134
329.252859	2153.684267
329.646726	2168.326298
330.040528	2184.773063
330.434265	2203.135465
330.827938	2221.936449
331.221547	2241.400344
331.615091	2261.380957
332.008571	2280.925510
332.401986	2301.584159
332.795338	2321.534525
333.188625	2340.335508
333.581847	2358.957531
333.975006	2380.485778
334.368100	2401.043604
334.761129	2414.405182
335.154095	2436.112390
335.546996	2456.161059
335.939833	2487.048209
336.332606	2502.940446
336.725315	2513.128618
337.117960	2521.176820
337.510540	2531.473377
337.903056	2536.650642
338.295508	2541.437218
338.687896	2553.120092
339.080220	2562.632749
339.472480	2565.738100
339.864676	2570.711198
340.256807	2571.598441
340.648875	2576.828638
341.040879	2576.339646
341.432818	2578.305696
341.824694	2578.071283
342.216506	2577.688155
342.608253	2580.516242
342.999937	2578.139338
343.391557	2574.240006
343.783113	2576.763103
344.174605	2574.050963
344.566033	2573.897207
344.957397	2571.565674
345.348697	2567.689026
345.739934	2566.229612
346.131106	2568.276321
346.522215	2566.799263
346.913260	2562.756257
347.304241	2561.899261
347.695159	2557.155535
348.086012	2557.006821
348.476802	2556.250648
348.867528	2557.319373
349.258191	2552.719320
349.648789	2551.547252
350.039324	2552.313507
350.429796	2549.954247
350.820203	2546.289328
351.210548	2549.626572
351.600828	2547.756304
351.991045	2549.054401
352.381198	2549.455173
352.771288	2549.674463
353.161314	2546.569112
353.551276	2545.833104
353.941175	2545.676828
354.331010	2548.298228
354.720782	2550.216387
355.110490	2549.561037
355.500135	2550.012220
355.889717	2548.877961
356.279235	2547.582384
356.668689	2548.643547
357.058080	2551.849721
357.447408	2545.296221
357.836672	2548.915769
358.225873	2549.830739
358.615010	2545.520552
359.004084	2549.878630
359.393095	2550.672612
359.782043	2553.152859
360.170927	2554.977757
360.559748	2554.254351
360.948505	2555.018086
361.337199	2554.052705
361.725830	2553.510781
362.114398	2553.246121
362.502903	2554.680329
362.891344	2559.308108
363.279722	2556.573282
363.668037	2557.258879
364.056289	2556.994218
364.444478	2559.053530
364.832603	2558.630073
365.220665	2559.149312
365.608665	2559.542522
365.996601	2562.597461
366.384474	2558.572100
366.772284	2562.728531
367.160031	2561.221226
367.547715	2562.559652
367.935336	2561.168294
368.322893	2561.521175
368.710388	2562.884807
369.097820	2565.667524
369.485189	2563.265414
369.872495	2562.486556
370.259738	2562.713407
370.646918	2564.044272
371.034035	2562.723490
371.421090	2566.950497
371.808081	2565.342369
372.195010	2565.501166
372.581875	2566.380847
372.968678	2564.666855
373.355418	2564.465208
373.742096	2567.401681
374.128710	2568.432597
374.515262	2567.252967
374.901751	2567.376475
375.288177	2566.758933
375.674540	2567.726835
376.060841	2569.340004
376.447079	2567.709191
376.833254	2568.727504
377.219367	2566.211968
377.605417	2567.966290
377.991404	2570.343194
378.377329	2568.155333
378.763191	2571.971487
379.148991	2578.945923
379.534727	2578.797209
379.920402	2579.626479
380.306013	2584.274422
380.691563	2586.550503
381.077049	2584.846593
381.462474	2589.514702
381.847835	2594.926381
382.233134	2596.534509
382.618371	2596.652976
383.003545	2604.169336
383.388657	2607.612444
383.773706	2610.576643
384.158693	2616.036212
384.543618	2621.336986
384.928480	2626.342851
385.313280	2632.170425
385.698017	2632.729993
386.082692	2645.098464
386.467305	2649.264978
386.851856	2657.088849
387.236344	2664.731238
387.620770	2672.892866
388.005133	2676.958557
388.389435	2689.926925
388.773674	2692.913808
389.157851	2703.490149
389.541965	2713.252344
389.926018	2716.024978
390.310008	2729.711711
390.693936	2738.584142
391.077802	2748.134608
391.461606	2758.022831
391.845348	2765.599685
392.229027	2778.149638
392.612645	2795.425672
392.996200	2803.302475
393.379694	2816.016265
393.763125	2834.174501
394.146494	2843.901407
394.529801	2855.735516
394.913047	2878.196377
395.296230	2878.145965
395.679351	2889.133160
396.062410	2908.408012
396.445408	2907.256108
396.828343	2921.429312
397.211217	2932.557659
397.594028	2929.822833
397.976778	2945.888991
398.359466	2961.070426
398.742092	2960.687298
399.124656	2979.866368
399.507158	2994.256341
399.889598	3003.368227
400.271977	3018.315248
400.654294	3028.150539
401.036549	3038.381561
401.418742	3047.831204
401.800874	3069.828279
402.182944	3079.189701
402.564952	3108.226748
402.946898	3098.943463
403.328783	3110.943929
403.710606	3127.078142
404.092367	3150.892553
404.474067	3173.759227
404.855705	3169.028104
405.237282	3168.236643
405.618797	3203.277703
406.000250	3224.198492
406.381642	3256.746702
406.762972	3258.395159
407.144240	3251.415681
407.525447	3274.118518
407.906593	3275.635905
408.287677	3294.290695
408.668700	3314.407419
409.049661	3311.516318
409.430560	3329.770336
409.811399	3333.820903
410.192176	3352.581557
410.572891	3360.932228
410.953545	3398.718197
411.334138	3372.292468
411.714669	3417.448604
412.095139	3363.752754
412.475547	3417.458686
412.855894	3407.424269
413.236180	3435.256480
413.616405	3414.794436
413.996568	3444.683438
414.376670	3446.969601
414.756711	3443.413067
415.136691	3468.160091
415.516609	3487.883605
415.896466	3499.296778
416.276262	3520.913245
416.655997	3554.094120
417.035670	3562.265830
417.415283	3625.741519
417.794834	3652.255468
418.174324	3633.356182
418.553753	3631.148157
418.933121	3672.311698
419.312428	3666.514371
419.691674	3662.831808
420.070859	3699.521326
420.449983	3679.205476
420.829045	3727.345975
421.208047	3714.803584
421.586988	3759.571551
421.965867	3792.240748
422.344686	3798.514464
422.723444	3838.014425
423.102141	3741.695619
423.480777	3844.479705
423.859352	3811.117349
424.237866	3909.669386
424.616319	3895.710431
424.994712	3951.064821
425.373044	3946.079120
425.751314	4009.428779
426.129524	3942.731793
426.507673	4048.117115
426.885762	4018.633926
427.263789	4043.023029
427.641756	4045.286507
428.019662	4072.571752
428.397508	4080.231785
428.775292	4116.593628
429.153016	4123.026140
429.530679	4135.467708
429.908282	4144.529182
430.285824	4125.912201
430.663305	4197.746123
431.040726	4155.995286
431.418086	4143.432731
431.795385	4220.489288
432.172624	4253.677724
432.549802	4220.935430
432.926920	4237.152822
433.303977	4233.949169
433.680974	4275.052217
434.057910	4295.052995
434.434786	4302.166063
434.811601	4296.146925
435.188355	4402.671547
435.565050	4373.011918
435.941683	4369.846074
436.318257	4462.462152
436.694770	4465.343172
437.071222	4521.446173
437.447614	4458.499805
437.823946	4459.465186
438.200218	4477.767095
438.576429	4458.812357
438.952580	4480.350687
439.328670	4487.572139
439.704700	4534.147360
440.080670	4497.588912
440.456580	4559.532090
440.832429	4595.772945
441.208218	4494.599508
441.583947	4546.921644
441.959616	4565.984767
442.335224	4585.511676
442.710773	4613.048979
443.086261	4662.520342
443.461689	4615.574597
443.837057	4628.391731
444.212365	4699.900498
444.587612	4706.196899
444.962800	4672.436292
445.337927	4715.749886
445.712995	4603.576651
446.088002	4794.560765
446.462949	4817.843334
446.837837	4837.697918
447.212664	4821.888860
447.587431	5047.596441
447.962139	5350.912585
448.336786	5692.493608
448.711374	5670.887223
449.085901	5310.051513
449.460369	5250.931381
449.834776	5190.515673
450.209124	5422.728863
450.583412	5436.607160
450.957640	5561.005192
451.331808	5420.634264
451.705917	5267.705821
452.079965	5260.759111
452.453954	5302.487262
452.827883	5263.763638
453.201752	5271.968116
453.575562	5300.858969
453.949311	5434.240338
454.323001	5444.549498
454.696632	5435.624135
455.070202	5589.596097
455.443713	5617.382937
455.817164	5713.167380
456.190556	5784.905520
456.563888	5757.877374
456.937160	5836.625238
457.310373	5675.343603
457.683526	5734.163786
458.056619	5731.736470
458.429653	5712.330549
458.802628	5755.233288
459.175542	5790.435666
459.548398	5924.830307
459.921194	6116.515141
460.293930	6176.013359
460.666607	6435.993224
461.039224	6643.671119
461.411782	6769.843638
461.784280	6684.106214
462.156719	6688.562594
462.529099	6652.520864
462.901419	6510.337641
463.273680	6377.803186
463.645882	6366.914293
464.018024	6369.071907
464.390106	6439.660664
464.762130	6701.288987
465.134094	7088.895744
465.505999	7727.420893
465.877845	8439.309954
466.249631	8785.266699
466.621358	8708.366417
466.993026	8510.317127
467.364634	8292.899723
467.736184	8005.831217
468.107674	7855.491407
468.479105	7771.336905
468.850477	7703.427522
469.221790	7528.980913
469.593043	7309.499157
469.964238	7207.516615
470.335373	7180.135588
470.706449	7341.064342
471.077467	7533.107098
471.448425	8199.474539
471.819324	8781.780741
472.190164	8817.716606
472.560945	8324.606060
472.931667	7852.852363
473.302330	7658.548649
473.672934	7539.229579
474.043479	7620.568596
474.413965	7522.346755
474.784393	7469.122253
475.154761	7628.946994
475.525070	7641.161710
475.895321	7598.521110
476.265513	7692.584000
476.635645	7850.120057
477.005719	7843.561516
477.375734	7928.021008
477.745691	8044.464100
478.115588	8248.414061
478.485427	8488.105803
478.855207	8967.716139
479.224928	9397.101459
479.594591	9777.617833
479.964194	9785.897928
480.333739	9871.801711
480.703226	9862.941883
481.072653	9963.790165
481.442022	10082.842055
481.811333	10235.029448
482.180584	10074.929964
482.549777	10019.348722
482.918912	9954.005286
483.287988	9942.607237
483.657005	9847.500828
484.025964	9761.314742
484.394864	9818.244492
484.763706	9784.846848
485.132489	9692.621459
485.501213	9694.360657
485.869879	9750.430891
486.238487	9679.038070
486.607036	9759.202498
486.975527	9710.507473
487.343959	9760.596377
487.712333	9804.953490
488.080648	9845.839768
488.448905	9949.412795
488.817104	9960.097520
489.185244	10124.673549
489.553326	10341.163381
489.921350	10815.553602
490.289315	11446.900148
490.657222	11739.702966
491.025070	11913.053123
491.392861	11821.493166
491.760593	11661.897797
492.128267	11414.334294
492.495883	11174.909733
492.863440	10935.802765
493.230939	10710.150636
493.598380	10526.587101
493.965763	10498.812864
494.333088	10371.082629
494.700354	10301.731475
495.067563	10267.013049
495.434713	10280.472929
495.801805	10319.894752
496.168839	10281.844123
496.535815	10249.210214
496.902733	10292.450711
497.269593	10254.964691
497.636395	10266.307287
498.003139	10368.965344
498.369825	10302.870776
498.736453	10394.771011
499.103023	10340.470222
499.469535	10347.270738
499.835989	10384.817252
500.202385	10359.366987
500.568723	10382.296675
500.935003	10446.563825
501.301226	10412.820862
501.667390	10584.547768
502.033497	10684.022336
502.399546	10610.620615
502.765537	10518.417912
503.131470	10619.692172
503.497345	10710.485873
503.863163	10487.913890
504.228923	10618.247881
504.594625	10735.709286
504.960269	10636.517023
505.325856	10791.068717
505.691385	10675.704432
506.056856	10745.617674
506.422270	10843.814310
506.787625	10773.585996
507.152924	10836.522281
507.518164	10893.966229
507.883347	10757.280384
508.248472	10830.578761
508.613540	10937.680595
508.978550	11006.862869
509.343503	10991.028605
509.708398	11045.052130
510.073236	11171.489310
510.438016	11186.859788
510.802738	11103.171593
511.167403	11238.839125
511.532010	11293.863320
511.896561	11390.512321
512.261053	11581.811507
512.625488	11496.076603
512.989866	11490.327167
513.354186	11465.559978
513.718449	11475.158335
514.082655	11616.870211
514.446803	11576.087277
514.810894	11682.422855
515.174927	11675.687874
515.538904	11659.752786
515.902822	11821.886376
516.266684	11690.007271
516.630488	11794.830504
516.994235	11776.084973
517.357925	11904.493244
517.721558	11954.052827
518.085133	12025.186029
518.448651	12056.390771
518.812112	12010.498627
519.175516	12023.913137
519.538863	12113.781787
519.902152	12115.757919
520.265385	12226.806977
520.628560	12245.423958
520.991678	12201.659181
521.354739	12251.417890
521.717743	12315.001963
522.080690	12290.575052
522.443580	12429.867174
522.806413	12447.604474
523.169189	12438.777414
523.531908	12491.749858
523.894569	12456.343314
524.257174	12473.546252
524.619722	12587.267121
524.982213	12560.289386
525.344647	12548.767829
525.707025	12561.831979
526.069345	12667.338288
526.431608	12645.540339
526.793815	12725.878687
527.155964	12623.838171
527.518057	12648.701142
527.880093	12601.508380
528.242072	12722.256618
528.603995	12643.281902
528.965860	12656.547698
529.327669	12691.765199
529.689421	12636.131025
530.051117	12653.901092
530.412755	12693.154037
530.774337	12691.981968
531.135862	12651.816575
531.497331	12704.647867
531.858743	12671.189729
532.220098	12765.552568
532.581396	12683.666585
532.942638	12604.152466
533.303824	12672.555882
533.664953	12650.369764
534.026025	12601.548710
534.387040	12710.213301
534.747999	12681.589630
535.108902	12722.128068
535.469748	12606.731016
535.830537	12628.014767
536.191270	12680.019310
536.551947	12598.680293
536.912567	12661.200683
537.273131	12693.022967
537.633638	12572.337744
537.994089	12623.311371
538.354483	12553.015001
538.714821	12682.817151
539.075103	12759.702309
539.435328	12687.843181
539.795497	12670.851972
540.155609	12663.547340
540.515665	12774.470369
540.875665	12626.593162
541.235609	12717.669168
541.595496	12679.636183
541.955328	12859.814583
542.315102	12712.126419
542.674821	12650.518478
543.034483	12661.780416
543.394090	12663.330571
543.753640	12627.245991
544.113134	12880.354764
544.472571	12635.158082
544.831953	12912.789548
545.191278	12730.317423
545.550548	12663.401147
545.909761	12787.290023
546.268918	12826.031290
546.628019	12889.461609
546.987064	12779.206533
547.346053	12625.214406
547.704986	12830.933812
548.063863	12704.146273
548.422684	12757.955549
548.781449	12713.258158
549.140158	12812.611739
549.498811	12762.452258
549.857408	12632.105664
550.215949	12834.664266
550.574434	12814.260196
550.932864	12745.430802
551.291237	12953.262452
551.649555	12840.648116
552.007817	12892.261970
552.366022	12812.780617
552.724173	12859.935571
553.082267	12943.805247
553.440305	13036.103733
553.798288	12860.432124
554.156215	12930.299996
554.514086	12981.132471
554.871902	12916.144436
555.229661	12952.823871
555.587365	12898.250860
555.945014	12905.447108
556.302606	12891.377247
556.660143	12943.938838
557.017625	12999.583094
557.375050	12946.393880
557.732421	13044.308211
558.089735	13041.160010
558.446994	13020.166125
558.804197	13137.756080
559.161345	13118.534160
559.518437	12951.205661
559.875474	13033.991489
560.232455	13045.876010
560.589381	13104.928086
560.946251	13039.128425
561.303065	13214.341289
561.659825	13167.340091
562.016528	13086.023759
562.373177	13026.989327
562.729770	13151.778049
563.086307	13043.577243
563.442789	13148.569355
563.799216	13183.620497
564.155587	13125.949697
564.511904	13150.091783
564.868164	13154.066733
565.224370	13226.462743
565.580520	13173.155062
565.936615	13236.116553
566.292654	13171.678004
566.648638	13244.134508
567.004567	13247.116351
567.360441	13241.530752
567.716260	13213.486813
568.072023	13287.301908
568.427732	13275.649281
568.783385	13167.892097
569.138982	13284.342751
569.494525	13288.075726
569.850013	13238.314496
570.205445	13220.534346
570.560823	13229.288310
570.916145	13187.446733
571.271412	13201.922406
571.626625	13158.694512
571.981782	13163.420594
572.336884	13105.901028
572.691931	13193.165922
573.046923	13088.572062
573.401860	13066.932909
573.756743	13058.786405
574.111570	13079.376997
574.466342	13061.443093
574.821059	13111.889919
575.175722	12980.651041
575.530330	12998.960511
575.884882	12925.294130
576.239380	12931.456941
576.593823	12921.669541
576.948211	12918.244077
577.302544	12786.589303
577.656823	12806.953044
578.011047	12876.183209
578.365216	12808.914052
578.719330	12739.966191
579.073389	12715.781256
579.427394	12734.083165
579.781344	12719.163870
580.135239	12651.342707
580.489080	12671.419102
580.842866	12552.641956
581.196597	12643.057570
581.550273	12632.871919
581.903895	12599.764141
582.257463	12709.787324
582.610975	12550.663303
582.964434	12618.996143
583.317837	12538.012527
583.671186	12496.483502
584.024481	12549.803786
584.377721	12441.456787
584.730906	12507.548834
585.084037	12525.724715
585.437113	12446.140019
585.790135	12465.833286
586.143103	12380.516799
586.496016	12398.249057
586.848874	12406.211560
587.201679	12396.595559
587.554428	12278.982919
587.907124	12322.135196
588.259765	12258.465423
588.612352	12328.295486
588.964884	12194.125176
589.317362	12240.856673
589.669786	12226.358314
590.022155	12185.784587
590.374470	12290.925412
590.726731	12180.980368
591.078937	12067.365363
591.431090	12086.471336
591.783188	12012.774708
592.135232	11942.969851
592.487222	11997.467244
592.839157	12008.716579
593.191038	11942.806013
593.542866	11892.323898
593.894639	11748.638411
594.246358	11805.747122
594.598022	11813.570993
594.949633	11713.002494
595.301190	11702.164014
595.652692	11659.770430
596.004141	11752.721746
596.355535	11524.627178
596.706876	11513.884479
597.058162	11480.133954
597.409395	11572.442522
597.760573	11611.246804
598.111698	11495.887560
598.462768	11494.781027
598.813785	11510.786690
599.164748	11380.394725
599.515657	11458.056221
599.866511	11330.013434
600.217312	11470.039044
600.568060	11225.883360
600.918753	11386.139120
601.269392	11390.098947
601.619978	11295.647888
601.970510	11331.001500
602.320988	11375.444312
602.671412	11445.884355
603.021783	11369.331913
603.372100	11291.972887
603.722363	11309.808489
604.072572	11307.698766
604.422728	11318.943060
604.772830	11272.440936
605.122878	11277.761874
605.472872	11256.127762
605.822813	11309.047275
606.172701	11267.737540
606.522534	11313.841412
606.872314	11364.620955
607.222041	11289.835438
607.571714	11371.726461
607.921333	11237.294012
608.270899	11286.848554
608.620411	11351.506393
608.969870	11295.746191
609.319276	11275.221133
609.668627	11292.277877
610.017926	11374.113448
610.367171	11409.890517
610.716362	11397.103630
611.065500	11371.043385
611.414585	11382.290199
611.763616	11443.792276
612.112594	11406.558314
612.461518	11430.254257
612.810389	11479.052627
613.159207	11420.544995
613.507971	11415.801269
613.856682	11521.494101
614.205340	11474.187913
614.553945	11613.260745
614.902496	11491.957981
615.250994	11561.510780
615.599439	11547.798842
615.947830	11580.561301
616.296169	11550.200952
616.644454	11566.882130
616.992686	11578.630539
617.340864	11673.522698
617.688990	11554.619523
618.037063	11695.476923
618.385082	11669.212512
618.733048	11705.957482
619.080961	11690.259329
619.428821	11660.962663
619.776628	11674.883810
620.124382	11621.369441
620.472083	11642.486834
620.819731	11661.421408
621.167326	11589.083371
621.514868	11571.207440
621.862357	11471.468211
622.209793	11470.870834
622.557176	11385.380427
622.904506	11323.228041
623.251783	11246.126113
623.599007	11180.094560
623.946179	11133.713424
624.293297	11104.252921
624.640363	10972.041099
624.987376	10960.864861
625.334336	10897.772300
625.681243	10813.070833
626.028097	10783.310382
626.374899	10749.370813
626.721647	10718.960053
627.068343	10681.945381
627.414987	10618.585638
627.761577	10549.539475
628.108115	10603.280695
628.454600	10468.538215
628.801032	10484.518672
629.147412	10468.820519
629.493739	10436.189131
629.840014	10368.103307
630.186236	10416.178270
630.532405	10301.189551
630.878521	10352.750473
631.224585	10303.206013
631.570597	10225.287418
631.916556	10227.765145
632.262462	10218.257529
632.608316	10191.274753
632.954117	10165.285085
633.299866	10153.183795
633.645562	10132.240321
633.991206	10026.250062
634.336797	9930.067367
634.682336	9922.944216
635.027823	9860.595226
635.373257	9823.603239
635.718639	9759.323486
636.063968	9729.041275
636.409245	9602.339435
636.754470	9600.532181
637.099642	9541.991782
637.444762	9444.092574
637.789829	9446.776989
638.134845	9377.395588
638.479808	9353.258544
