Dividing Wavelength (nm)	Counts (n)	Blue Motor Position (mm): 49.200000	Red Motor Position (mm): 0.000000	
326.493990	2282.992383
326.888308	2282.992383
327.282561	2282.992383
327.676750	2242.574933
328.070874	2239.887998
328.464933	2242.542165
328.858929	2245.019892
329.252859	2249.337640
329.646726	2260.082860
330.040528	2272.741197
330.434265	2285.008845
330.827938	2302.620116
331.221547	2320.876655
331.615091	2336.378203
332.008571	2357.646831
332.401986	2375.384131
332.795338	2396.582183
333.188625	2418.526325
333.581847	2433.927050
333.975006	2457.476800
334.368100	2472.179326
334.761129	2493.405104
335.154095	2507.086795
335.546996	2535.536547
335.939833	2575.026426
336.332606	2591.488314
336.725315	2603.912237
337.117960	2616.636110
337.510540	2625.684981
337.903056	2639.631333
338.295508	2647.621562
338.687896	2654.827891
339.080220	2660.620177
339.472480	2668.287772
339.864676	2675.539472
340.256807	2680.920903
340.648875	2682.990297
341.040879	2685.369722
341.432818	2687.668488
341.824694	2690.244517
342.216506	2688.321317
342.608253	2692.195444
342.999937	2692.364323
343.391557	2692.381967
343.783113	2692.142512
344.174605	2691.245187
344.566033	2691.804755
344.957397	2690.899867
345.348697	2685.525997
345.739934	2685.210925
346.131106	2686.050277
346.522215	2683.373425
346.913260	2681.619103
347.304241	2681.304031
347.695159	2677.848320
348.086012	2678.085254
348.476802	2673.754903
348.867528	2669.336332
349.258191	2670.992351
349.648789	2668.469253
350.039324	2664.806855
350.429796	2665.883142
350.820203	2667.231650
351.210548	2666.840961
351.600828	2664.075888
351.991045	2662.392142
352.381198	2664.010353
352.771288	2661.577996
353.161314	2661.590599
353.551276	2661.247801
353.941175	2661.893068
354.331010	2660.947852
354.720782	2662.198058
355.110490	2658.447440
355.500135	2662.820641
355.889717	2663.087822
356.279235	2660.252173
356.668689	2662.727379
357.058080	2661.172183
357.447408	2664.292657
357.836672	2663.226453
358.225873	2662.407266
358.615010	2665.260559
359.004084	2662.694612
359.393095	2663.208809
359.782043	2663.304591
360.170927	2667.231650
360.559748	2665.021104
360.948505	2667.327432
361.337199	2667.413132
361.725830	2666.946825
362.114398	2668.176867
362.502903	2668.895231
362.891344	2669.434634
363.279722	2668.406239
363.668037	2671.430931
364.056289	2673.467557
364.444478	2672.363545
364.832603	2671.085612
365.220665	2674.924451
365.608665	2677.180367
365.996601	2674.087619
366.384474	2675.980573
366.772284	2675.884791
367.160031	2676.575429
367.547715	2678.332271
367.935336	2678.652384
368.322893	2675.794050
368.710388	2674.967301
369.097820	2676.537620
369.485189	2677.195491
369.872495	2685.347037
370.259738	2687.061029
370.646918	2691.066226
371.034035	2695.389015
371.421090	2700.967052
371.808081	2705.826724
372.195010	2710.270501
372.581875	2720.867007
372.968678	2731.644993
373.355418	2740.298134
373.742096	2754.713313
374.128710	2768.896600
374.515262	2782.174999
374.901751	2799.556897
375.288177	2813.110040
375.674540	2839.160202
376.060841	2856.975640
376.447079	2882.546893
376.833254	2908.649987
377.219367	2925.878131
377.605417	2960.994808
377.991404	2983.657315
378.377329	3022.650640
378.763191	3040.614792
379.148991	3083.131884
379.534727	3125.631331
379.920402	3161.103410
380.306013	3184.149045
380.691563	3247.657501
381.077049	3268.837909
381.462474	3308.985658
381.847835	3366.812734
382.233134	3406.191707
382.618371	3434.490224
383.003545	3498.762415
383.388657	3523.219573
383.773706	3583.017740
384.158693	3614.169550
384.543618	3641.845485
384.928480	3699.632232
385.313280	3760.027775
385.698017	3781.298924
386.082692	3869.370402
386.467305	3873.400805
386.851856	3910.828851
387.236344	3986.635202
387.620770	4013.809542
388.005133	4066.693767
388.389435	4111.171867
388.773674	4122.980770
389.157851	4194.905432
389.541965	4262.149383
389.926018	4229.586050
390.310008	4331.271164
390.693936	4385.362745
391.077802	4418.198301
391.461606	4416.476747
391.845348	4478.029235
392.229027	4543.239081
392.612645	4543.072723
392.996200	4641.942353
393.379694	4700.833112
393.763125	4807.135923
394.146494	4835.681457
394.529801	4890.088109
394.913047	4977.572293
395.296230	4921.862502
395.679351	5030.695973
396.062410	5084.646401
396.445408	5053.507194
396.828343	5115.445330
397.211217	5170.887940
397.594028	5052.380496
397.976778	5167.167569
398.359466	5220.185384
398.742092	5240.861676
399.124656	5165.375439
399.507158	5280.490187
399.889598	5343.209702
400.271977	5467.237210
400.654294	5463.204287
401.036549	5509.086349
401.418742	5430.058701
401.800874	5635.558817
402.182944	5697.590215
402.564952	5798.115864
402.946898	5868.840732
403.328783	5688.337177
403.710606	5716.393719
404.092367	6045.558380
404.474067	6068.218366
404.855705	5959.349608
405.237282	5897.093878
405.618797	6160.640360
406.000250	6127.227592
406.381642	6344.337486
406.762972	6369.548296
407.144240	6417.920688
407.525447	6400.165744
407.906593	6409.612866
408.287677	6578.783907
408.668700	6499.410940
409.049661	6605.658298
409.430560	6632.744418
409.811399	6498.359859
410.192176	6755.592296
410.572891	6785.428365
410.953545	6967.351004
411.334138	6702.619851
411.714669	6868.267126
412.095139	6665.171640
412.475547	6914.335710
412.855894	6980.289126
413.236180	7173.241810
413.616405	6820.406411
413.996568	7038.950512
414.376670	7106.391069
414.756711	6994.225396
415.136691	7096.172650
415.516609	7300.674617
415.896466	7270.273939
416.276262	7483.716393
416.655997	7475.592573
417.035670	7641.370918
417.415283	7985.545614
417.794834	8060.936070
418.174324	7916.973319
418.553753	7843.833738
418.933121	8129.957028
419.312428	8237.555416
419.691674	8007.363728
420.070859	8488.695618
420.449983	8171.617123
420.829045	8544.097899
421.208047	8304.501939
421.586988	8625.588151
421.965867	8647.078589
422.344686	8726.743944
422.723444	8822.704828
423.102141	8139.220148
423.480777	8916.732429
423.859352	8440.083771
424.237866	9054.305518
424.616319	8913.591790
424.994712	9359.678453
425.373044	8887.909632
425.751314	9382.910611
426.129524	9262.681612
426.507673	9333.774484
426.885762	9492.870779
427.263789	9415.738604
427.641756	9360.328762
428.019662	9435.865411
428.397508	9723.347292
428.775292	9358.962609
429.153016	9759.041181
429.530679	9592.458773
429.908282	9592.110933
430.285824	9324.415582
430.663305	10016.913845
431.040726	9465.414134
431.418086	9438.484291
431.795385	9778.217731
432.172624	9880.149861
432.549802	9783.503380
432.926920	9851.604328
433.303977	9716.549296
433.680974	9923.685266
434.057910	10029.710814
434.434786	10100.995250
434.811601	9914.114635
435.188355	10480.526079
435.565050	10235.203368
435.941683	10148.072065
436.318257	10621.509508
436.694770	10810.570421
437.071222	10852.863181
437.447614	10673.294761
437.823946	10618.504980
438.200218	10684.796153
438.576429	10538.544718
438.952580	10795.706579
439.328670	10799.439553
439.704700	10613.950297
440.080670	10599.169634
440.456580	11101.351737
440.832429	10904.552652
441.208218	10513.691830
441.583947	10786.319950
441.959616	10987.106587
442.335224	10806.522374
442.710773	10897.116950
443.086261	11130.366098
443.461689	10392.752028
443.837057	11095.173802
444.212365	11312.296299
444.587612	10949.444127
444.962800	11147.080043
445.337927	10878.076512
445.712995	10589.122615
446.088002	11604.557193
446.462949	11325.647795
446.837837	11276.632656
447.212664	11178.557008
447.587431	11806.878861
447.962139	12578.737488
448.336786	14885.526639
448.711374	15339.951370
449.085901	13143.865958
449.460369	12808.982108
449.834776	12254.737490
450.209124	13209.078324
450.583412	13636.779899
450.957640	14551.378797
451.331808	13559.131006
451.705917	12663.108760
452.079965	11874.231197
452.453954	12800.759986
452.827883	12464.124335
453.201752	12743.696645
453.575562	12325.974035
453.949311	12728.116959
454.323001	12723.592524
454.696632	12959.463071
455.070202	13233.969021
455.443713	13406.956216
455.817164	13916.208536
456.190556	13877.081620
456.563888	14237.677876
456.937160	14370.766858
457.310373	13741.686310
457.683526	13862.928581
458.056619	13369.228220
458.429653	13599.132562
458.802628	12940.178137
459.175542	13361.565666
459.548398	14311.634123
459.921194	14685.256720
460.293930	14763.061888
460.666607	15592.747591
461.039224	16663.070252
461.411782	17392.850368
461.784280	17137.841080
462.156719	17268.701872
462.529099	16929.530521
462.901419	15897.074487
463.273680	15640.691485
463.645882	15562.430092
464.018024	15272.543581
464.390106	15511.769016
464.762130	16213.464864
465.134094	17027.664143
465.505999	19123.692733
465.877845	22394.090879
466.249631	25180.465159
466.621358	24765.535348
466.993026	23352.265511
467.364634	22746.517944
467.736184	21272.731576
468.107674	20495.463791
468.479105	20627.347937
468.850477	20070.204655
469.221790	19682.048412
469.593043	18994.089708
469.964238	18406.029030
470.335373	18043.446560
470.706449	18574.557324
471.077467	18178.025203
471.448425	20058.176462
471.819324	24236.335182
472.190164	25982.406872
472.560945	22264.825612
472.931667	20012.493526
473.302330	19407.703779
473.672934	19083.255117
474.043479	19274.544220
474.413965	19076.593232
474.784393	18659.185694
475.154761	19467.839703
475.525070	19341.326906
475.895321	19097.982848
476.265513	19712.222238
476.635645	20293.074067
477.005719	20047.559792
477.375734	20222.709642
477.745691	20704.079340
478.115588	21275.504211
478.485427	21844.509328
478.855207	22950.898924
479.224928	24763.546612
479.594591	26971.879507
479.964194	26822.898288
480.333739	27087.808402
480.703226	26675.835227
481.072653	26414.355618
481.442022	27043.814252
481.811333	27991.236103
482.180584	27845.403084
482.549777	26903.627326
482.918912	26582.752842
483.287988	26724.338689
483.657005	26323.234242
484.025964	26122.261082
484.394864	25985.386194
484.763706	25625.946883
485.132489	25117.302022
485.501213	25291.000019
485.869879	25207.528593
486.238487	25066.487191
486.607036	25186.753998
486.975527	24952.005108
487.343959	25220.799431
487.712333	25124.583969
488.080648	24783.063440
488.448905	25301.357069
488.817104	25091.443423
489.185244	25795.128006
489.553326	25722.230401
489.921350	26807.532851
490.289315	29190.569453
490.657222	30856.481756
491.025070	31380.119009
491.392861	31114.911467
491.760593	30251.848284
492.128267	29316.444544
492.495883	28238.895389
492.863440	27383.063742
493.230939	26515.960074
493.598380	26344.160072
493.965763	25980.153476
494.333088	25458.517561
494.700354	25457.524454
495.067563	25289.747292
495.434713	25032.250195
495.801805	25228.789660
496.168839	24969.145031
496.535815	24879.692277
496.902733	25088.391005
497.269593	24802.686131
497.636395	24959.471057
498.003139	24872.165834
498.369825	24611.792758
498.736453	24836.108981
499.103023	24698.566139
499.469535	24687.258831
499.835989	24917.563945
500.202385	24938.298211
500.568723	24497.429142
500.935003	24651.448995
501.301226	24369.303176
501.667390	25209.955909
502.033497	25402.049076
502.399546	25134.618385
502.765537	24653.185673
503.131470	25047.512288
503.497345	25195.931419
503.863163	24455.355672
504.228923	24969.969260
504.594625	25238.146041
504.960269	24812.637369
505.325856	25280.882423
505.691385	24665.208824
506.056856	25276.773883
506.422270	25277.716578
506.787625	24773.969198
507.152924	25227.872170
507.518164	25270.054025
507.883347	25073.388531
508.248472	24754.974130
508.613540	25516.062332
508.978550	25320.916746
509.343503	25348.343144
509.708398	25531.442893
510.073236	25705.834048
510.438016	25913.096048
510.802738	25560.096811
511.167403	25837.786250
511.532010	25589.816934
511.896561	26329.265983
512.261053	26309.721429
512.625488	26124.433820
512.989866	26015.938107
513.354186	25842.688772
513.718449	25977.721119
514.082655	26350.007810
514.446803	26054.578551
514.810894	26558.882979
515.174927	26054.772635
515.538904	26090.214467
515.902822	26596.734482
516.266684	26332.434348
516.630488	26244.761121
516.994235	26173.411150
517.357925	26535.696192
517.721558	26687.818050
518.085133	26814.613152
518.448651	26682.355960
518.812112	26474.078168
519.175516	26690.943565
519.538863	26845.006268
519.902152	26644.388510
520.265385	26888.105613
520.628560	26695.644441
520.991678	26662.909709
521.354739	26716.966002
521.717743	26827.170666
522.080690	26603.371161
522.443580	26923.265140
522.806413	26885.811888
523.169189	27007.447368
523.531908	27051.083596
523.894569	26690.315942
524.257174	26786.821270
524.619722	26900.917705
524.982213	26626.676416
525.344647	26632.851829
525.707025	26819.311507
526.069345	26756.370181
526.431608	26730.004946
526.793815	26893.461839
527.155964	26415.777224
527.518057	26578.104898
527.880093	26491.752453
528.242072	26709.048869
528.603995	26446.727388
528.965860	26219.756998
529.327669	26271.557374
529.689421	26254.755208
530.051117	26109.443949
530.412755	26275.557530
530.774337	26039.760079
531.135862	25960.709746
531.497331	26124.277544
531.858743	25744.542548
532.220098	26164.289182
532.581396	25880.643620
532.942638	25758.425886
533.303824	25875.680604
533.664953	25864.708532
534.026025	25530.106987
534.387040	25780.667457
534.747999	25810.248947
535.108902	25990.150084
535.469748	25493.246070
535.830537	25622.420596
536.191270	25780.034792
536.551947	25580.669760
536.912567	25203.868716
537.273131	25677.797671
537.633638	25325.405894
537.994089	25558.743261
538.354483	25026.871284
538.714821	25550.221191
539.075103	25593.181904
539.435328	25362.332346
539.795497	24982.282278
540.155609	25298.428159
540.515665	25620.535205
540.875665	24827.813762
541.235609	25197.847058
541.595496	25103.554795
541.955328	25469.124149
542.315102	25386.406376
542.674821	24877.690938
543.034483	24776.840135
543.394090	24947.495796
543.753640	24762.339256
544.113134	25390.663630
544.472571	24982.562062
544.831953	25285.379132
545.191278	24949.368584
545.550548	24816.340096
545.909761	25023.196282
546.268918	25256.253866
546.628019	25234.614713
546.987064	24907.895012
547.346053	24646.354909
547.704986	24742.277984
548.063863	24906.690176
548.422684	24937.463900
548.781449	24420.072636
549.140158	24834.770555
549.498811	24416.637090
549.857408	24189.255846
550.215949	24551.024169
550.574434	24278.892602
550.932864	24450.022131
551.291237	24667.381562
551.649555	24479.570855
552.007817	24552.952411
552.366022	24391.270004
552.724173	24397.858792
553.082267	24386.609457
553.440305	24875.014086
553.798288	24101.159162
554.156215	24577.097017
554.514086	24730.458999
554.871902	24131.196877
555.229661	24392.701692
555.587365	24227.520724
555.945014	24161.388347
556.302606	24343.865514
556.660143	24351.802810
557.017625	24572.214659
557.375050	24088.251287
557.732421	24478.071111
558.089735	24304.330265
558.446994	24352.185938
558.804197	24397.694954
559.161345	24264.744604
559.518437	24087.747172
559.875474	24248.318004
560.232455	24415.802779
560.589381	24219.210382
560.946251	24247.576955
561.303065	24534.106057
561.659825	24620.856753
562.016528	24236.574636
562.373177	23963.528100
562.729770	24336.490306
563.086307	24165.033102
563.442789	24341.344937
563.799216	24199.151631
564.155587	24175.601881
564.511904	24153.430886
564.868164	24132.121929
565.224370	24078.589916
565.580520	24041.723958
565.936615	24141.150635
566.292654	23846.790100
566.648638	24068.842845
567.004567	23907.135232
567.360441	23847.581562
567.716260	23573.209202
568.072023	23863.551937
568.427732	23661.779754
568.783385	23409.913626
569.138982	23679.874976
569.494525	23700.412637
569.850013	23473.853101
570.205445	23589.787036
570.560823	23401.157142
570.916145	23170.350433
571.271412	23371.825188
571.626625	23113.607206
571.981782	23210.876269
572.336884	23010.780270
572.691931	23158.397858
573.046923	22900.641141
573.401860	22773.528447
573.756743	22822.180622
574.111570	22698.140511
574.466342	22617.240074
574.821059	22698.667312
575.175722	22406.633270
575.530330	22363.942258
575.884882	22353.975897
576.239380	22279.702057
576.593823	22170.477897
576.948211	22147.999392
577.302544	22004.286178
577.656823	21859.791586
578.011047	21968.090694
578.365216	21831.440136
578.719330	21714.109801
579.073389	21592.181934
579.427394	21751.406778
579.781344	21492.843477
580.135239	21386.119729
580.489080	21325.346099
580.842866	21112.455651
581.196597	21331.919763
581.550273	21276.494797
581.903895	21158.491468
582.257463	21470.372533
582.610975	21012.179540
582.964434	21350.559430
583.317837	21000.287458
583.671186	21084.401630
584.024481	21091.209708
584.377721	20845.040084
584.730906	20950.344747
585.084037	20908.702295
585.437113	20843.764672
585.790135	21060.690563
586.143103	20500.951087
586.496016	20541.126563
586.848874	20768.505286
587.201679	20661.990747
587.554428	20376.248064
587.907124	20712.251050
588.259765	20456.576330
588.612352	20529.269769
588.964884	20104.451734
589.317362	20273.063207
589.669786	20337.995789
590.022155	20313.473096
590.374470	20575.991183
590.726731	20317.715227
591.078937	20134.865015
591.431090	20193.685198
591.783188	19979.809205
592.135232	19938.847310
592.487222	20031.012205
592.839157	20039.204080
593.191038	19916.308311
593.542866	19804.102308
593.894639	19499.543519
594.246358	19717.190296
594.598022	19606.675600
594.949633	19367.135093
595.301190	19373.126504
595.652692	19522.513537
596.004141	19728.351410
596.355535	19058.780315
596.706876	19090.952959
597.058162	18989.527464
597.409395	19235.346729
597.760573	19260.620553
598.111698	19037.257109
598.462768	18995.975100
598.813785	18964.094843
599.164748	18766.017826
599.515657	18836.011727
599.866511	18629.011868
600.217312	18963.958732
600.568060	18478.354464
600.918753	18776.427809
601.269392	18681.570938
601.619978	18491.713522
601.970510	18660.156116
602.320988	18625.067165
602.671412	18803.279515
603.021783	18756.288399
603.372100	18450.199620
603.722363	18609.079145
604.072572	18561.563750
604.422728	18718.356237
604.772830	18449.819013
605.122878	18416.328107
605.472872	18400.289676
605.822813	18374.325213
606.172701	18377.150780
606.522534	18536.494092
606.872314	18571.409123
607.222041	18426.609541
607.571714	18623.481722
607.921333	18448.939332
608.270899	18521.968007
608.620411	18674.563734
608.969870	18481.144743
609.319276	18464.541703
609.668627	18500.704420
610.017926	18625.977093
610.367171	18748.693901
610.716362	18805.961409
611.065500	18613.225494
611.414585	18754.070292
611.763616	18746.584178
612.112594	18685.427420
612.461518	18648.690012
612.810389	18849.358182
613.159207	18703.714206
613.507971	18615.814127
613.856682	18849.048151
614.205340	18769.392879
614.553945	18937.139793
614.902496	18681.029013
615.250994	18867.312251
615.599439	18835.227827
615.947830	18820.033790
616.296169	18909.418488
616.644454	18866.682107
616.992686	18834.842179
617.340864	19063.637467
617.688990	18796.335325
618.037063	18967.071644
618.385082	18837.128342
618.733048	19104.029712
619.080961	18996.058279
619.428821	19025.685140
619.776628	18892.870901
620.124382	18823.935643
620.472083	18886.612308
620.819731	18888.621208
621.167326	18572.127487
621.514868	18619.116083
621.862357	18423.665507
622.209793	18406.323937
622.557176	18239.915449
622.904506	18076.372857
623.251783	18014.386829
623.599007	17750.522754
623.946179	17689.275256
624.293297	17615.437475
624.640363	17346.935539
624.987376	17377.547946
625.334336	17176.473963
625.681243	17028.165737
626.028097	17051.405457
626.374899	16959.432125
626.721647	16833.829257
627.068343	16665.946231
627.414987	16601.936180
627.761577	16556.275929
628.108115	16581.758961
628.454600	16315.155020
628.801032	16417.538334
629.147412	16362.645209
629.493739	16360.006165
629.840014	16178.852302
630.186236	16267.758091
630.532405	16032.343768
630.878521	16224.799899
631.224585	16136.257072
631.570597	15962.543952
631.916556	15987.971532
632.262462	15962.765763
632.608316	15881.028494
632.954117	15821.303424
633.299866	15808.783719
633.645562	15728.818416
633.991206	15503.887172
634.336797	15370.997316
634.682336	15338.943139
635.027823	15190.440829
635.373257	15064.840481
635.718639	14984.597915
636.063968	14924.053657
