Dividing Wavelength (nm)	Counts (n)	Blue Motor Position (mm): 42.100000	Red Motor Position (mm): 0.000000	
326.493990	2131.591410
326.888308	2131.591410
327.282561	2131.591410
327.676750	2095.705956
328.070874	2092.638414
328.464933	2100.666452
328.858929	2106.390682
329.252859	2114.103647
329.646726	2128.821296
330.040528	2138.076854
330.434265	2157.550832
330.827938	2173.748059
331.221547	2192.380164
331.615091	2211.372711
332.008571	2231.602861
332.401986	2249.743453
332.795338	2267.034611
333.188625	2288.081428
333.581847	2307.323513
333.975006	2324.178610
334.368100	2344.754080
334.761129	2361.687316
335.154095	2380.679863
335.546996	2400.771381
335.939833	2423.819537
336.332606	2438.534665
336.725315	2451.581171
337.117960	2462.696915
337.510540	2469.613378
337.903056	2481.150059
338.295508	2489.241111
338.687896	2500.495487
339.080220	2505.113184
339.472480	2513.635254
339.864676	2516.216325
340.256807	2520.413086
340.648875	2526.870804
341.040879	2524.730834
341.432818	2527.722759
341.824694	2529.275434
342.216506	2529.580424
342.608253	2531.372554
342.999937	2530.492873
343.391557	2530.991947
343.783113	2530.785260
344.174605	2523.858714
344.566033	2524.725793
344.957397	2524.884589
345.348697	2519.765297
345.739934	2522.195133
346.131106	2519.079700
346.522215	2517.464011
346.913260	2515.603825
347.304241	2514.456962
347.695159	2513.128618
348.086012	2507.979080
348.476802	2508.752897
348.867528	2507.631240
349.258191	2503.076558
349.648789	2504.672083
350.039324	2503.910868
350.429796	2501.939777
350.820203	2501.854078
351.210548	2501.133193
351.600828	2497.536329
351.991045	2498.995743
352.381198	2497.506083
352.771288	2498.552122
353.161314	2495.819817
353.551276	2495.550115
353.941175	2499.167143
354.331010	2496.364261
354.720782	2496.104642
355.110490	2497.269148
355.500135	2495.756802
355.889717	2498.048007
356.279235	2496.036586
356.668689	2498.968017
357.058080	2496.805362
357.447408	2496.412152
357.836672	2495.126658
358.225873	2494.693119
358.615010	2496.787718
359.004084	2500.238388
359.393095	2499.368789
359.782043	2502.307782
360.170927	2500.727380
360.559748	2500.795435
360.948505	2500.445075
361.337199	2504.241064
361.725830	2505.009840
362.114398	2505.574449
362.502903	2507.101919
362.891344	2505.382885
363.279722	2506.365910
363.668037	2507.462361
364.056289	2507.951353
364.444478	2508.596621
364.832603	2509.715757
365.220665	2508.125273
365.608665	2510.471930
365.996601	2510.446724
366.384474	2511.568381
366.772284	2513.277332
367.160031	2513.017713
367.547715	2512.773217
367.935336	2511.364214
368.322893	2510.615603
368.710388	2513.957888
369.097820	2514.557785
369.485189	2515.583660
369.872495	2514.492250
370.259738	2513.877230
370.646918	2515.805471
371.034035	2514.676252
371.421090	2517.496778
371.808081	2515.460152
372.195010	2517.993332
372.581875	2519.697242
372.968678	2515.417302
373.355418	2515.571057
373.742096	2519.969464
374.128710	2520.551717
374.515262	2522.845442
374.901751	2520.092972
375.288177	2522.777387
375.674540	2520.844104
376.060841	2523.067253
376.447079	2520.438291
376.833254	2522.696728
377.219367	2517.048115
377.605417	2522.348889
377.991404	2517.131294
378.377329	2521.257479
378.763191	2518.681449
379.148991	2524.952645
379.534727	2521.915349
379.920402	2527.871473
380.306013	2527.228726
380.691563	2526.041534
381.077049	2528.090763
381.462474	2531.362472
381.847835	2535.607123
382.233134	2539.082999
382.618371	2541.283463
383.003545	2549.956768
383.388657	2554.254351
383.773706	2565.551577
384.158693	2574.360993
384.543618	2582.431881
384.928480	2592.030238
385.313280	2609.318875
385.698017	2622.246914
386.082692	2639.462454
386.467305	2653.628097
386.851856	2671.377999
387.236344	2688.555731
387.620770	2711.573639
388.005133	2732.227247
388.389435	2757.662388
388.773674	2776.468413
389.157851	2806.927064
389.541965	2834.139213
389.926018	2843.775378
390.310008	2891.462173
390.693936	2913.950761
391.077802	2954.247224
391.461606	2980.831749
391.845348	3028.107689
392.229027	3056.900240
392.612645	3089.854262
392.996200	3152.064621
393.379694	3202.128320
393.763125	3260.353647
394.146494	3276.180350
394.529801	3344.271215
394.913047	3405.387643
395.296230	3413.466092
395.679351	3477.445896
396.062410	3527.252496
396.445408	3550.794685
396.828343	3602.567335
397.211217	3650.400323
397.594028	3625.809575
397.976778	3705.618602
398.359466	3753.665839
398.742092	3802.683498
399.124656	3767.914660
399.507158	3856.568392
399.889598	3903.723345
400.271977	3977.223368
400.654294	3978.145899
401.036549	4005.899972
401.418742	4000.180783
401.800874	4109.440231
402.182944	4148.665449
402.564952	4226.410123
402.946898	4232.192327
403.328783	4245.362341
403.710606	4176.671579
404.092367	4376.429821
404.474067	4350.178012
404.855705	4376.117269
405.237282	4314.995799
405.618797	4427.779014
406.000250	4470.845591
406.381642	4556.255340
406.762972	4526.378942
407.144240	4545.144637
407.525447	4550.541192
407.906593	4613.021253
408.287677	4658.792409
408.668700	4595.873768
409.049661	4648.664731
409.430560	4694.319941
409.811399	4620.968632
410.192176	4784.959887
410.572891	4731.017020
410.953545	4828.268440
411.334138	4710.060944
411.714669	4778.658445
412.095139	4679.438455
412.475547	4818.959949
412.855894	4801.668792
413.236180	4812.121624
413.616405	4767.109161
413.996568	4853.554867
414.376670	4794.212925
414.756711	4750.682562
415.136691	4781.448723
415.516609	4862.397051
415.896466	4894.655395
416.276262	4933.046302
416.655997	4915.341770
417.035670	5094.295169
417.415283	5186.724725
417.794834	5127.980159
418.174324	5081.704888
418.553753	4989.716433
418.933121	5177.882541
419.312428	5244.768571
419.691674	5182.429662
420.070859	5311.594106
420.449983	5222.736208
420.829045	5333.964226
421.208047	5244.748406
421.586988	5315.669879
421.965867	5329.772507
422.344686	5464.220080
422.723444	5311.841122
423.102141	5134.024503
423.480777	5431.089617
423.859352	5201.414648
424.237866	5456.239933
424.616319	5448.373213
424.994712	5559.210542
425.373044	5434.641110
425.751314	5578.155198
426.129524	5379.498448
426.507673	5575.014559
426.885762	5658.407847
427.263789	5590.624492
427.641756	5470.753415
428.019662	5598.261840
428.397508	5601.115133
428.775292	5547.610847
429.153016	5647.072812
429.530679	5571.982305
429.908282	5661.210728
430.285824	5527.794071
430.663305	5801.460669
431.040726	5536.222880
431.418086	5540.984250
431.795385	5648.678420
432.172624	5660.131921
432.549802	5652.217310
432.926920	5663.144011
433.303977	5671.368653
433.680974	5712.849788
434.057910	5727.731274
434.434786	5735.900463
434.811601	5703.231266
435.188355	5941.244304
435.565050	5812.503317
435.941683	5792.139576
436.318257	6007.638820
436.694770	5994.446121
437.071222	6026.119690
437.447614	5956.952539
437.823946	5867.414085
438.200218	6026.228075
438.576429	5888.405450
438.952580	5985.341797
439.328670	6031.218818
439.704700	5940.457884
440.080670	5929.526142
440.456580	6199.457245
440.832429	6077.766312
441.208218	5932.034116
441.583947	6082.444502
441.959616	6083.959369
442.335224	6014.761971
442.710773	6149.537219
443.086261	6173.034037
443.461689	5973.621114
443.837057	6117.104956
444.212365	6276.884327
444.587612	6162.283776
444.962800	6320.434855
445.337927	6302.228728
445.712995	5910.952010
446.088002	6484.063147
446.462949	6322.340411
446.837837	6250.382981
447.212664	6423.065185
447.587431	6568.507515
447.962139	7104.152796
448.336786	8033.088736
448.711374	7776.988038
449.085901	6852.755495
449.460369	6768.719461
449.834776	6705.886519
450.209124	7099.177177
450.583412	7246.535146
450.957640	7392.731128
451.331808	7156.409397
451.705917	6707.305604
452.079965	6631.524459
452.453954	6844.518250
452.827883	6719.865639
453.201752	6815.171173
453.575562	6611.909329
453.949311	6818.962120
454.323001	6706.869544
454.696632	6784.992305
455.070202	6921.539519
455.443713	7072.930410
455.817164	7173.836666
456.190556	7253.822133
456.563888	7327.559091
456.937160	7373.473920
457.310373	7029.934409
457.683526	7056.246711
458.056619	6940.068280
458.429653	6932.514111
458.802628	6867.286621
459.175542	6975.613456
459.548398	7328.844585
459.921194	7492.714853
460.293930	7495.643763
460.666607	8023.959207
461.039224	8333.735590
461.411782	8452.822767
461.784280	8477.128690
462.156719	8365.313378
462.529099	8237.399140
462.901419	7831.407294
463.273680	7723.274544
463.645882	7743.482009
464.018024	7607.585105
464.390106	7772.491329
464.762130	8165.993716
465.134094	8631.899675
465.505999	9647.387185
465.877845	10875.646676
466.249631	11515.686692
466.621358	11129.879626
466.993026	10504.184214
467.364634	10254.019475
467.736184	9890.229648
468.107674	9558.030213
468.479105	9591.309390
468.850477	9349.233182
469.221790	9123.177762
469.593043	8793.138460
469.964238	8657.123088
470.335373	8669.267228
470.706449	8728.833502
471.077467	8709.258702
471.448425	10022.214618
471.819324	11090.407392
472.190164	11114.559560
472.560945	9862.624290
472.931667	9078.394671
473.302330	8941.683620
473.672934	8587.303108
474.043479	8946.260988
474.413965	8882.991987
474.784393	8769.550902
475.154761	8924.984798
475.525070	9015.995269
475.895321	8843.630657
476.265513	9016.365794
476.635645	9188.647227
477.005719	9187.371815
477.375734	9298.441037
477.745691	9541.533037
478.115588	9667.566924
478.485427	9919.080172
478.855207	10454.985073
479.224928	11269.282653
479.594591	11888.641336
479.964194	11708.704911
480.333739	11643.744602
480.703226	11556.469626
481.072653	11648.228709
481.442022	11888.490101
481.811333	12076.194944
482.180584	11877.124820
482.549777	11587.765109
482.918912	11409.658623
483.287988	11438.713314
483.657005	11444.374529
484.025964	11132.017075
484.394864	11261.247054
484.763706	11231.758825
485.132489	10988.203038
485.501213	10948.808942
485.869879	11029.727023
486.238487	10872.977385
486.607036	10980.018725
486.975527	10761.991342
487.343959	10948.740886
487.712333	10996.377269
488.080648	10928.908987
488.448905	10977.107459
488.817104	10917.329457
489.185244	11179.860146
489.553326	11334.971409
489.921350	11874.279088
490.289315	12932.422322
490.657222	13275.026699
491.025070	13181.220908
491.392861	13056.928739
491.760593	12677.407993
492.128267	12328.111484
492.495883	12002.359684
492.863440	11665.245123
493.230939	11325.163844
493.598380	11255.437124
493.965763	11128.052208
494.333088	11032.696262
494.700354	10950.626278
495.067563	11018.359221
495.434713	10839.337765
495.801805	10964.494492
496.168839	10890.812987
496.535815	10826.049284
496.902733	10828.466517
497.269593	10759.407751
497.636395	10863.058915
498.003139	10843.615184
498.369825	10715.622809
498.736453	10876.796059
499.103023	10804.636983
499.469535	10828.761425
499.835989	10822.147431
500.202385	10780.326018
500.568723	10637.389142
500.935003	10853.493325
501.301226	10665.710345
501.667390	10914.617316
502.033497	11012.347645
502.399546	10877.731193
502.765537	10785.369693
503.131470	10861.818791
503.497345	11032.691221
503.863163	10643.655297
504.228923	10947.979672
504.594625	11017.829900
504.960269	10764.771538
505.325856	10980.805145
505.691385	10782.052614
506.056856	10936.092631
506.422270	10955.836310
506.787625	10843.350524
507.152924	10964.736467
507.518164	10938.073805
507.883347	10867.565706
508.248472	10779.451378
508.613540	11014.139775
508.978550	10904.575337
509.343503	10874.580472
509.708398	10997.599749
510.073236	11111.658376
510.438016	11117.685075
510.802738	11068.768239
511.167403	11114.650300
511.532010	11012.203972
511.896561	11239.764177
512.261053	11318.718729
512.625488	11185.402895
512.989866	11167.448825
513.354186	11153.792339
513.718449	11058.096116
514.082655	11253.128276
514.446803	11148.577266
514.810894	11270.469845
515.174927	11135.873558
515.538904	11161.323823
515.902822	11306.085597
516.266684	11198.431757
516.630488	11141.736420
516.994235	11191.903462
517.357925	11253.808832
517.721558	11346.926505
518.085133	11363.983249
518.448651	11367.141532
518.812112	11254.116342
519.175516	11260.604307
519.538863	11385.390509
519.902152	11298.788527
520.265385	11458.575460
520.628560	11371.769311
520.991678	11353.500170
521.354739	11413.958728
521.717743	11348.653100
522.080690	11320.757875
522.443580	11465.980915
522.806413	11414.896382
523.169189	11458.827518
523.531908	11512.515806
523.894569	11333.864875
524.257174	11338.464928
524.619722	11447.197576
524.982213	11401.562530
525.344647	11451.621188
525.707025	11406.855742
526.069345	11489.843217
526.431608	11408.476473
526.793815	11525.022909
527.155964	11313.554067
527.518057	11359.786488
527.880093	11307.683643
528.242072	11383.116948
528.603995	11287.521548
528.965860	11209.933149
529.327669	11261.390727
529.689421	11203.735051
530.051117	11176.036431
530.412755	11285.361414
530.774337	11176.437203
531.135862	11155.864254
531.497331	11176.429641
531.858743	11023.274346
532.220098	11196.911849
532.581396	11070.993908
532.942638	11053.289376
533.303824	11010.200113
533.664953	11025.111846
534.026025	10941.663106
534.387040	11043.174301
534.747999	11039.811851
535.108902	11096.653381
535.469748	10861.919614
535.830537	10962.906528
536.191270	10936.258989
536.551947	10962.140273
536.912567	10963.695469
537.273131	10885.739066
537.633638	10866.814574
537.994089	10863.242917
538.354483	10801.917280
538.714821	10948.473705
539.075103	10958.346805
539.435328	10923.401526
539.795497	10749.653118
540.155609	10907.269834
540.515665	10991.837710
540.875665	10728.084541
541.235609	10806.718979
541.595496	10793.783379
541.955328	10950.338932
542.315102	10833.369039
542.674821	10784.474888
543.034483	10782.009764
543.394090	10786.839189
543.753640	10711.819258
544.113134	10942.172263
544.472571	10792.760024
544.831953	10935.061715
545.191278	10746.996430
545.550548	10768.743968
545.909761	10905.313866
546.268918	10876.896882
546.628019	10960.998452
546.987064	10830.004069
547.346053	10750.500032
547.704986	10856.097081
548.063863	10837.921201
548.422684	10824.105919
548.781449	10748.317212
549.140158	10843.305153
549.498811	10725.722761
549.857408	10586.029867
550.215949	10809.355503
550.574434	10666.776549
550.932864	10763.624676
551.291237	10824.834366
551.649555	10760.683163
552.007817	10779.413570
552.366022	10739.666592
552.724173	10741.367982
553.082267	10721.992307
553.440305	10861.155879
553.798288	10660.205405
554.156215	10817.045783
554.514086	10785.019333
554.871902	10631.853955
555.229661	10671.895840
555.587365	10650.561677
555.945014	10547.507890
556.302606	10668.840901
556.660143	10562.845600
557.017625	10712.784639
557.375050	10616.231420
557.732421	10752.939950
558.089735	10662.037864
558.446994	10668.926601
558.804197	10699.637310
559.161345	10701.147136
559.518437	10549.294979
559.875474	10641.265790
560.232455	10672.941880
560.589381	10620.665114
560.946251	10618.079002
561.303065	10722.657739
561.659825	10663.542648
562.016528	10587.988355
562.373177	10475.074071
562.729770	10586.589435
563.086307	10499.891671
563.442789	10590.939951
563.799216	10469.632145
564.155587	10516.714002
564.511904	10465.808430
564.868164	10463.940682
565.224370	10484.289300
565.580520	10403.804758
565.936615	10411.613506
566.292654	10275.303226
566.648638	10417.178939
567.004567	10371.196055
567.360441	10352.816008
567.716260	10263.738819
568.072023	10351.938847
568.427732	10308.920161
568.783385	10219.590914
569.138982	10286.040884
569.494525	10300.501434
569.850013	10184.733856
570.205445	10266.987843
570.560823	10158.933231
570.916145	10074.607330
571.271412	10143.759358
571.626625	10088.566285
571.981782	10071.660775
572.336884	10041.207165
572.691931	10041.348317
573.046923	9991.420730
573.401860	9943.174367
573.756743	9886.272343
574.111570	9925.800030
574.466342	9910.500128
574.821059	9942.307288
575.175722	9836.047327
575.530330	9840.259211
575.884882	9832.876441
576.239380	9751.459286
576.593823	9736.628211
576.948211	9751.527342
577.302544	9638.786977
577.656823	9652.854317
578.011047	9649.365838
578.365216	9621.881467
578.719330	9545.487822
579.073389	9557.475686
579.427394	9508.163119
579.781344	9486.586981
580.135239	9436.193086
580.489080	9445.577194
580.842866	9341.454682
581.196597	9343.503911
581.550273	9386.749449
581.903895	9359.809523
582.257463	9424.595912
582.610975	9298.506572
582.964434	9328.100665
583.317837	9254.058718
583.671186	9231.469308
584.024481	9229.084842
584.377721	9148.307913
584.730906	9123.419737
585.084037	9156.593050
585.437113	9091.504192
585.790135	9112.054456
586.143103	9011.881688
586.496016	8981.884302
586.848874	9042.453765
587.201679	9028.252835
587.554428	8913.324609
587.907124	8960.401424
588.259765	8928.584182
588.612352	8938.386706
588.964884	8814.732243
589.317362	8829.326383
589.669786	8824.227256
590.022155	8872.939926
590.374470	8889.991629
590.726731	8827.408224
591.078937	8683.674846
591.431090	8794.136609
591.783188	8670.913165
592.135232	8656.581164
592.487222	8656.687029
592.839157	8710.075368
593.191038	8640.986355
593.542866	8587.517357
593.894639	8487.740319
594.246358	8541.242085
594.598022	8560.290085
594.949633	8458.317625
595.301190	8433.099253
595.652692	8455.771842
596.004141	8565.091784
596.355535	8342.991148
596.706876	8324.704363
597.058162	8261.062316
597.409395	8339.003596
597.760573	8394.325218
598.111698	8312.862692
598.462768	8294.039024
598.813785	8256.346317
599.164748	8224.680309
599.515657	8218.298208
599.866511	8134.115980
600.217312	8258.577027
600.568060	8112.423895
600.918753	8215.339051
601.269392	8183.214298
601.619978	8100.383099
601.970510	8162.550608
602.320988	8159.974578
602.671412	8214.356026
603.021783	8149.267168
603.372100	8124.928477
603.722363	8120.444371
604.072572	8105.013399
604.422728	8115.967826
604.772830	8044.701034
605.122878	8051.458701
605.472872	8045.699182
605.822813	8076.626661
606.172701	8020.518619
606.522534	8091.296419
606.872314	8096.629960
607.222041	8067.658449
607.571714	8120.036037
607.921333	8075.716733
608.270899	8083.878361
608.620411	8161.859970
608.969870	8076.218328
609.319276	8071.222544
609.668627	8090.237777
610.017926	8119.211808
610.367171	8162.870721
610.716362	8141.513873
611.065500	8138.569839
611.414585	8161.663365
611.763616	8148.664750
612.112594	8132.825444
612.461518	8148.949575
612.810389	8208.432670
613.159207	8147.911097
613.507971	8098.023839
613.856682	8213.776293
614.205340	8170.606372
614.553945	8247.912466
614.902496	8154.056264
615.250994	8199.981175
615.599439	8180.328237
615.947830	8194.846760
616.296169	8169.187287
616.644454	8190.798714
616.992686	8182.490892
617.340864	8241.154799
617.688990	8150.071232
618.037063	8235.964932
618.385082	8179.541817
618.733048	8267.169674
619.080961	8209.400571
619.428821	8227.941935
619.776628	8228.768684
620.124382	8177.210283
620.472083	8165.741658
620.819731	8195.461781
621.167326	8086.872807
621.514868	8095.316739
621.862357	7980.171744
622.209793	7996.938622
622.557176	7933.866226
622.904506	7900.506390
623.251783	7835.261256
623.599007	7792.678630
623.946179	7790.747868
624.293297	7753.460973
624.640363	7665.628950
624.987376	7647.415261
625.334336	7598.198476
625.681243	7547.078656
626.028097	7541.858541
626.374899	7512.818974
626.721647	7507.172882
627.068343	7434.809639
627.414987	7415.343223
627.761577	7368.526028
628.108115	7406.501039
628.454600	7296.636653
628.801032	7351.252514
629.147412	7308.125443
629.493739	7298.811911
629.840014	7233.551654
630.186236	7294.955428
630.532405	7174.812129
630.878521	7226.622588
631.224585	7179.656678
631.570597	7103.673887
631.916556	7134.561036
632.262462	7138.215873
632.608316	7093.823472
632.954117	7080.325783
633.299866	7060.723256
633.645562	7052.695218
633.991206	6968.066848
634.336797	6914.708755
634.682336	6871.143104
635.027823	6841.178485
635.373257	6829.563667
635.718639	6759.403408
636.063968	6777.521315
636.409245	6670.739594
636.754470	6669.454100
637.099642	6627.426001
637.444762	6572.878195
637.789829	6579.348516
638.134845	6523.074116
638.479808	6507.370922
638.824719	6511.539956
639.169577	6438.055056
639.514383	6464.921886
639.859137	6391.510083
640.203839	6394.396143
640.548489	6381.745368
