Dividing Wavelength (nm)	Counts (n)	Blue Motor Position (mm): 30.400000	Red Motor Position (mm): 0.000000	
326.493990	2134.774899
326.888308	2134.774899
327.282561	2134.774899
327.676750	2101.291555
328.070874	2098.493714
328.464933	2099.693509
328.858929	2108.379417
329.252859	2117.224122
329.646726	2131.014198
330.040528	2140.173974
330.434265	2158.417910
330.827938	2176.235868
331.221547	2194.656245
331.615091	2215.907229
332.008571	2233.190825
332.401986	2249.531725
332.795338	2270.553336
333.188625	2290.637293
333.581847	2310.000365
333.975006	2327.407469
334.368100	2347.690552
334.761129	2363.565145
335.154095	2378.071066
335.546996	2402.437483
335.939833	2422.498754
336.332606	2442.141610
336.725315	2453.595112
337.117960	2464.410907
337.510540	2470.931640
337.903056	2483.058136
338.295508	2487.401090
338.687896	2494.927532
339.080220	2506.857423
339.472480	2512.140552
339.864676	2516.601973
340.256807	2520.269413
340.648875	2524.161183
341.040879	2526.049096
341.432818	2528.894827
341.824694	2531.362472
342.216506	2529.807276
342.608253	2529.615712
342.999937	2528.796524
343.391557	2530.727286
343.783113	2529.590506
344.174605	2527.594209
344.566033	2526.074301
344.957397	2522.056502
345.348697	2524.146060
345.739934	2517.542148
346.131106	2517.532066
346.522215	2518.779752
346.913260	2515.573578
347.304241	2515.263547
347.695159	2512.561488
348.086012	2510.920593
348.476802	2509.957733
348.867528	2506.081085
349.258191	2505.264418
349.648789	2505.655108
350.039324	2502.212000
350.429796	2501.528923
350.820203	2499.603203
351.210548	2498.794097
351.600828	2498.416011
351.991045	2498.529437
352.381198	2498.446258
352.771288	2498.529437
353.161314	2498.657986
353.551276	2495.580362
353.941175	2496.273520
354.331010	2495.313181
354.720782	2495.524909
355.110490	2497.692605
355.500135	2498.524396
355.889717	2498.930208
356.279235	2496.457522
356.668689	2500.029180
357.058080	2497.435506
357.447408	2495.242604
357.836672	2494.241935
358.225873	2495.010711
358.615010	2494.234374
359.004084	2499.706546
359.393095	2500.278717
359.782043	2502.529592
360.170927	2503.096722
360.559748	2500.523213
360.948505	2502.206958
361.337199	2501.463388
361.725830	2499.517503
362.114398	2501.957421
362.502903	2505.768534
362.891344	2502.481701
363.279722	2501.097905
363.668037	2506.570077
364.056289	2505.811383
364.444478	2505.219048
364.832603	2506.068482
365.220665	2505.582011
365.608665	2507.583349
365.996601	2507.364059
366.384474	2508.866323
366.772284	2507.328771
367.160031	2509.904800
367.547715	2509.415808
367.935336	2513.025275
368.322893	2513.214318
368.710388	2510.739111
369.097820	2513.305059
369.485189	2510.313134
369.872495	2510.287928
370.259738	2509.488905
370.646918	2508.238699
371.034035	2511.497805
371.421090	2513.473937
371.808081	2511.349091
372.195010	2512.742970
372.581875	2512.327075
372.968678	2512.342198
373.355418	2512.392610
373.742096	2512.932013
374.128710	2513.161386
374.515262	2513.403361
374.901751	2514.625841
375.288177	2514.832528
375.674540	2511.593587
376.060841	2514.598115
376.447079	2512.979904
376.833254	2514.197343
377.219367	2513.219359
377.605417	2514.398989
377.991404	2511.545696
378.377329	2513.410923
378.763191	2511.240706
379.148991	2516.087776
379.534727	2515.369411
379.920402	2517.801768
380.306013	2518.313445
380.691563	2517.083403
381.077049	2517.670698
381.462474	2517.980729
381.847835	2519.218332
382.233134	2518.857890
382.618371	2518.260513
383.003545	2517.484175
383.388657	2518.237828
383.773706	2520.382839
384.158693	2521.307890
384.543618	2519.924094
384.928480	2520.302180
385.313280	2519.914011
385.698017	2520.231604
386.082692	2522.520288
386.467305	2521.403672
386.851856	2523.304187
387.236344	2522.384177
387.620770	2523.707480
388.005133	2525.277799
388.389435	2522.878210
388.773674	2520.251769
389.157851	2520.405524
389.541965	2521.287726
389.926018	2524.176307
390.310008	2519.727489
390.693936	2523.533560
391.077802	2522.938704
391.461606	2527.921884
391.845348	2523.868797
392.229027	2524.781245
392.612645	2525.418951
392.996200	2525.555062
393.379694	2527.962213
393.763125	2528.670496
394.146494	2525.139167
394.529801	2526.475073
394.913047	2529.144364
395.296230	2528.655372
395.679351	2530.255938
396.062410	2529.479601
396.445408	2526.901051
396.828343	2531.375075
397.211217	2523.825947
397.594028	2525.751668
397.976778	2526.432223
398.359466	2528.695701
398.742092	2525.025741
399.124656	2526.084384
399.507158	2529.875331
399.889598	2532.285003
400.271977	2528.292409
400.654294	2527.868952
401.036549	2531.065044
401.418742	2529.653521
401.800874	2529.892975
402.182944	2531.969931
402.564952	2531.115455
402.946898	2533.986392
403.328783	2532.615198
403.710606	2530.162677
404.092367	2534.566125
404.474067	2534.200641
404.855705	2532.090918
405.237282	2532.151412
405.618797	2533.141999
406.000250	2535.544109
406.381642	2536.847247
406.762972	2533.320960
407.144240	2534.984541
407.525447	2535.337422
407.906593	2534.359438
408.287677	2536.713657
408.668700	2536.431352
409.049661	2535.594520
409.430560	2535.866743
409.811399	2538.236085
410.192176	2536.837165
410.572891	2539.660211
410.953545	2538.846065
411.334138	2537.757175
411.714669	2537.994110
412.095139	2539.395550
412.475547	2539.743390
412.855894	2539.166178
413.236180	2537.074099
413.616405	2539.995448
413.996568	2542.253885
414.376670	2541.245654
414.756711	2541.782537
415.136691	2542.931920
415.516609	2539.309851
415.896466	2544.136756
416.276262	2543.962836
416.655997	2543.408309
417.035670	2542.011909
417.415283	2542.969728
417.794834	2540.096271
418.174324	2543.746066
418.553753	2545.331509
418.933121	2545.896118
419.312428	2547.088351
419.691674	2547.438711
420.070859	2548.825029
420.449983	2549.014072
420.829045	2554.266954
421.208047	2553.704866
421.586988	2556.941286
421.965867	2557.342058
422.344686	2562.738613
422.723444	2566.403532
423.102141	2565.400343
423.480777	2572.427711
423.859352	2578.126735
424.237866	2588.289702
424.616319	2589.391194
424.994712	2598.109869
425.373044	2605.079264
425.751314	2616.540328
426.129524	2621.324383
426.507673	2636.876342
426.885762	2648.387817
427.263789	2659.866524
427.641756	2663.317194
428.019662	2683.743950
428.397508	2695.147040
428.775292	2708.264122
429.153016	2726.928994
429.530679	2738.374934
429.908282	2759.368819
430.285824	2768.223606
430.663305	2805.079482
431.040726	2804.771971
431.418086	2822.751246
431.795385	2854.936493
432.172624	2877.820811
432.549802	2898.035838
432.926920	2924.454005
433.303977	2949.563992
433.680974	2979.329485
434.057910	3014.007582
434.434786	3038.222765
434.811601	3065.593709
435.188355	3129.848256
435.565050	3141.039618
435.941683	3174.323836
436.318257	3249.464755
436.694770	3280.130094
437.071222	3328.003411
437.447614	3349.188860
437.823946	3365.176880
438.200218	3444.169240
438.576429	3449.926238
438.952580	3521.301414
439.328670	3575.385433
439.704700	3594.047785
440.080670	3629.787045
440.456580	3767.604629
440.832429	3779.564767
441.208218	3771.851802
441.583947	3873.226885
441.959616	3925.753187
442.335224	3943.188018
442.710773	4045.389850
443.086261	4116.943988
443.461689	4070.938418
443.837057	4195.734702
444.212365	4315.078978
444.587612	4313.352383
444.962800	4442.002629
445.337927	4483.128362
445.712995	4341.976055
446.088002	4699.255231
446.462949	4660.251823
446.837837	4675.781098
447.212664	4816.782171
447.587431	4970.618022
447.962139	5349.354869
448.336786	5963.266584
448.711374	5869.370053
449.085901	5354.353173
449.460369	5363.707034
449.834776	5373.910329
450.209124	5692.889339
450.583412	5860.711871
450.957640	6001.717985
451.331808	5895.513477
451.705917	5626.081447
452.079965	5614.012925
452.453954	5820.201159
452.827883	5773.699035
453.201752	5894.033898
453.575562	5771.745588
453.949311	5986.365151
454.323001	5928.520431
454.696632	6029.479619
455.070202	6187.431572
455.443713	6350.182704
455.817164	6466.719057
456.190556	6577.163176
456.563888	6678.177817
456.937160	6755.060454
457.310373	6490.543550
457.683526	6546.654113
458.056619	6479.284133
458.429653	6501.538307
458.802628	6468.967412
459.175542	6593.120949
459.548398	6939.047446
459.921194	7105.879392
460.293930	7129.910572
460.666607	7641.837224
461.039224	7949.030016
461.411782	8088.092766
461.784280	8130.206565
462.156719	8062.932367
462.529099	7968.703119
462.901419	7592.668330
463.273680	7521.245263
463.645882	7545.599077
464.018024	7429.415604
464.390106	7612.379242
464.762130	7995.030545
465.134094	8465.869273
465.505999	9453.431312
465.877845	10653.717440
466.249631	11304.797582
466.621358	10957.522576
466.993026	10354.724084
467.364634	10117.578125
467.736184	9773.625239
468.107674	9450.648595
468.479105	9495.887909
468.850477	9267.221171
469.221790	9050.915342
469.593043	8733.612516
469.964238	8598.249973
470.335373	8611.518290
470.706449	8677.660749
471.077467	8663.979058
471.448425	9963.790165
471.819324	11033.684328
472.190164	11054.191742
472.560945	9816.200304
472.931667	9036.069144
473.302330	8901.818176
473.672934	8555.359836
474.043479	8910.741018
474.413965	8849.380093
474.784393	8734.330880
475.154761	8894.821054
475.525070	8976.901121
475.895321	8807.049524
476.265513	8986.305393
476.635645	9158.460797
477.005719	9161.188062
477.375734	9274.740052
477.745691	9506.368468
478.115588	9637.869487
478.485427	9887.572960
478.855207	10427.435167
479.224928	11231.476520
479.594591	11862.134949
479.964194	11673.815085
480.333739	11611.914757
480.703226	11529.012982
481.072653	11617.800304
481.442022	11857.008095
481.811333	12042.129347
482.180584	11851.465347
482.549777	11555.569780
482.918912	11382.007895
483.287988	11408.574775
483.657005	11421.732187
484.025964	11105.092273
484.394864	11232.146994
484.763706	11203.114989
485.132489	10961.406785
485.501213	10923.882957
485.869879	11005.012766
486.238487	10850.261946
486.607036	10958.424943
486.975527	10740.110214
487.343959	10927.414285
487.712333	10971.973044
488.080648	10908.179762
488.448905	10950.739704
488.817104	10888.809129
489.185244	11152.698409
489.553326	11311.726648
489.921350	11847.087104
490.289315	12907.559351
490.657222	13247.015528
491.025070	13153.713852
491.392861	13026.356662
491.760593	12643.793579
492.128267	12301.877319
492.495883	11974.159469
492.863440	11638.640434
493.230939	11301.372118
493.598380	11236.658826
493.965763	11108.651327
494.333088	11007.094763
494.700354	10928.314131
495.067563	10995.185037
495.434713	10823.047277
495.801805	10947.130238
496.168839	10878.429393
496.535815	10811.697119
496.902733	10802.305449
497.269593	10735.487476
497.636395	10839.776346
498.003139	10830.530870
498.369825	10701.159738
498.736453	10857.339726
499.103023	10777.981882
499.469535	10815.016719
499.835989	10804.455501
500.202385	10769.384194
500.568723	10617.746286
500.935003	10844.043683
501.301226	10644.797118
501.667390	10904.519885
502.033497	11001.927580
502.399546	10859.915755
502.765537	10769.505182
503.131470	10832.592702
503.497345	11016.917451
503.863163	10632.698349
504.228923	10930.842269
504.594625	10996.775521
504.960269	10748.140772
505.325856	10970.493465
505.691385	10766.866138
506.056856	10920.202914
506.422270	10945.300299
506.787625	10832.723772
507.152924	10939.288723
507.518164	10933.509040
507.883347	10844.089053
508.248472	10767.327403
508.613540	11002.121664
508.978550	10890.394572
509.343503	10857.697648
509.708398	10979.418828
510.073236	11095.141035
510.438016	11096.620614
510.802738	11048.911134
511.167403	11101.318969
511.532010	10999.928762
511.896561	11224.885212
512.261053	11302.652571
512.625488	11167.826912
512.989866	11149.998871
513.354186	11139.868672
513.718449	11047.660928
514.082655	11235.217056
514.446803	11130.708896
514.810894	11244.631411
515.174927	11116.197935
515.538904	11140.027469
515.902822	11290.145469
516.266684	11180.036586
516.630488	11123.424429
516.994235	11174.264465
517.357925	11235.020451
517.721558	11325.907414
518.085133	11339.818478
518.448651	11358.458144
518.812112	11232.457025
519.175516	11243.726524
519.538863	11371.560103
519.902152	11279.906885
520.265385	11442.491658
520.628560	11358.800943
520.991678	11331.556027
521.354739	11396.954916
521.717743	11332.534011
522.080690	11311.535084
522.443580	11449.287134
522.806413	11399.291491
523.169189	11432.734505
523.531908	11490.521252
523.894569	11310.960393
524.257174	11317.080354
524.619722	11432.598394
524.982213	11380.445137
525.344647	11434.592170
525.707025	11387.386806
526.069345	11478.145219
526.431608	11395.941644
526.793815	11504.787717
527.155964	11287.468616
527.518057	11346.356855
527.880093	11294.944647
528.242072	11360.101561
528.603995	11274.258272
528.965860	11191.338853
529.327669	11243.103942
529.689421	11190.043277
530.051117	11155.702937
530.412755	11260.405182
530.774337	11153.978862
531.135862	11138.817592
531.497331	11168.830101
531.858743	11011.089877
532.220098	11180.820486
532.581396	11044.593385
532.942638	11029.966478
533.303824	10992.152782
533.664953	11001.851963
534.026025	10925.140724
534.387040	11023.642350
534.747999	11022.676969
535.108902	11078.001112
535.469748	10838.727786
535.830537	10944.536564
536.191270	10922.380693
536.551947	10952.678027
536.912567	10944.350041
537.273131	10870.071160
537.633638	10846.397901
537.994089	10832.748977
538.354483	10786.052769
538.714821	10932.427712
539.075103	10940.450709
539.435328	10899.486292
539.795497	10737.655172
540.155609	10887.163192
540.515665	10973.394649
540.875665	10712.983765
541.235609	10779.577407
541.595496	10773.371747
541.955328	10930.577609
542.315102	10814.210134
542.674821	10762.908832
543.034483	10765.794893
543.394090	10769.865624
543.753640	10694.830570
544.113134	10915.585217
544.472571	10772.860070
544.831953	10911.164125
545.191278	10732.669471
545.550548	10750.560526
545.909761	10888.126052
546.268918	10863.568071
546.628019	10946.666451
546.987064	10809.693260
547.346053	10736.566282
547.704986	10831.375263
548.063863	10816.569394
548.422684	10806.529936
548.781449	10725.982380
549.140158	10829.656229
549.498811	10706.205933
549.857408	10564.657895
550.215949	10785.347008
550.574434	10640.068516
550.932864	10742.010729
551.291237	10798.365788
551.649555	10751.553633
552.007817	10760.058059
552.366022	10718.077851
552.724173	10714.753210
553.082267	10698.611435
553.440305	10833.744605
553.798288	10641.835440
554.156215	10791.794643
554.514086	10770.969637
554.871902	10618.905752
555.229661	10656.273305
555.587365	10636.118772
555.945014	10526.549293
556.302606	10652.212655
556.660143	10548.314474
557.017625	10702.883813
557.375050	10597.846332
557.732421	10728.354243
558.089735	10637.336210
558.446994	10648.507407
558.804197	10682.870432
559.161345	10681.537047
559.518437	10527.965857
559.875474	10616.412901
560.232455	10648.835082
560.589381	10603.275654
560.946251	10597.977402
561.303065	10702.916581
561.659825	10641.464915
562.016528	10572.587630
562.373177	10444.859915
562.729770	10562.459952
563.086307	10483.386933
563.442789	10573.094266
563.799216	10447.163722
564.155587	10495.261371
564.511904	10459.877512
564.868164	10441.263052
565.224370	10462.085538
565.580520	10384.328260
565.936615	10390.798581
566.292654	10258.115412
566.648638	10387.728519
567.004567	10350.698723
567.360441	10328.454632
567.716260	10246.906407
568.072023	10333.034520
568.427732	10289.272263
568.783385	10197.321617
569.138982	10268.280899
569.494525	10286.476944
569.850013	10164.758284
570.205445	10242.843237
570.560823	10136.283327
570.916145	10046.684379
571.271412	10123.067942
571.626625	10065.767667
571.981782	10040.856805
572.336884	10019.714206
572.691931	10029.478921
573.046923	9975.934305
573.401860	9925.621069
573.756743	9868.061174
574.111570	9906.724304
574.466342	9885.841324
574.821059	9920.731150
575.175722	9811.270056
575.530330	9825.075256
575.884882	9810.589500
576.239380	9740.172143
576.593823	9719.813443
576.948211	9733.918591
577.302544	9615.973235
577.656823	9633.375298
578.011047	9628.392118
578.365216	9605.396894
578.719330	9530.659268
579.073389	9540.673520
579.427394	9490.209050
579.781344	9466.490421
580.135239	9414.047297
580.489080	9425.049616
580.842866	9321.862238
581.196597	9331.725255
581.550273	9370.537098
581.903895	9340.799332
582.257463	9400.405935
582.610975	9285.482751
582.964434	9311.091812
583.317837	9234.123475
583.671186	9210.593890
584.024481	9208.768992
584.377721	9131.513309
584.730906	9104.974155
585.084037	9138.598651
585.437113	9067.536026
585.790135	9089.623842
586.143103	8989.869489
586.496016	8964.903175
586.848874	9020.849900
587.201679	9016.307821
587.554428	8897.187876
587.907124	8942.575904
588.259765	8912.434846
588.612352	8918.932893
588.964884	8794.383625
589.317362	8807.089854
589.669786	8804.634812
590.022155	8852.644240
590.374470	8869.617805
590.726731	8801.854615
591.078937	8659.310949
591.431090	8772.744473
591.783188	8645.445256
592.135232	8637.969224
592.487222	8642.823856
592.839157	8693.905867
593.191038	8623.801062
593.542866	8572.764420
593.894639	8472.263977
594.246358	8523.850104
594.598022	8538.895428
594.949633	8439.035211
595.301190	8412.619565
595.652692	8443.781458
596.004141	8549.771717
596.355535	8331.648552
596.706876	8306.367166
597.058162	8245.936334
597.409395	8317.460225
597.760573	8384.053867
598.111698	8289.181872
598.462768	8277.919934
598.813785	8237.699088
599.164748	8210.867547
599.515657	8201.561577
599.866511	8112.312989
600.217312	8237.164726
600.568060	8095.135258
600.918753	8201.672482
601.269392	8172.010333
601.619978	8084.853824
601.970510	8147.543093
602.320988	8144.924214
602.671412	8198.088222
603.021783	8137.911969
603.372100	8106.137576
603.722363	8111.667722
604.072572	8084.402641
604.422728	8100.113397
604.772830	8027.533385
605.122878	8030.726956
605.472872	8026.043724
605.822813	8056.532622
606.172701	8001.896597
606.522534	8073.428049
606.872314	8078.252433
607.222041	8041.930920
607.571714	8105.270497
607.921333	8055.509268
608.270899	8068.066782
608.620411	8153.728589
608.969870	8056.930873
609.319276	8052.177065
609.668627	8063.433962
610.017926	8103.911907
610.367171	8147.734657
610.716362	8122.118034
611.065500	8120.739278
611.414585	8153.526943
611.763616	8130.052810
612.112594	8114.770552
612.461518	8129.402501
612.810389	8188.051285
613.159207	8129.273952
613.507971	8075.653719
613.856682	8198.625105
614.205340	8155.097262
614.553945	8230.780105
614.902496	8129.195814
615.250994	8183.705810
615.599439	8164.393150
615.947830	8177.651384
616.296169	8149.446129
616.644454	8164.461205
616.992686	8163.120258
617.340864	8222.512613
617.688990	8122.909495
618.037063	8215.384421
618.385082	8166.013881
618.733048	8247.166375
619.080961	8186.254113
619.428821	8211.348977
619.776628	8212.730253
620.124382	8162.351483
620.472083	8141.770972
620.819731	8174.422525
621.167326	8064.525372
621.514868	8074.559788
621.862357	7963.301523
622.209793	7978.856003
622.557176	7914.583812
622.904506	7885.080459
623.251783	7822.862538
623.599007	7773.691124
623.946179	7775.747915
624.293297	7732.830051
624.640363	7651.949779
624.987376	7633.657952
625.334336	7579.946979
625.681243	7532.681120
626.028097	7521.308277
626.374899	7494.126376
626.721647	7494.801890
627.068343	7418.562000
627.414987	7398.110039
627.761577	7349.425096
628.108115	7387.382463
628.454600	7280.026051
628.801032	7336.660894
629.147412	7290.927546
629.493739	7282.982688
629.840014	7215.988274
630.186236	7268.123887
630.532405	7155.391084
630.878521	7208.809671
631.224585	7169.057652
631.570597	7087.761485
631.916556	7120.869262
632.262462	7118.530167
632.608316	7073.742036
632.954117	7058.517751
633.299866	7040.263733
633.645562	7035.406581
633.991206	6959.201979
634.336797	6899.615541
634.682336	6862.288317
635.027823	6824.933367
635.373257	6814.057078
635.718639	6746.450163
636.063968	6755.872080
636.409245	6658.401370
636.754470	6654.733931
637.099642	6613.840091
637.444762	6552.988323
637.789829	6565.520631
638.134845	6508.043916
638.479808	6492.365927
638.824719	6497.021433
639.169577	6430.110198
639.514383	6446.917405
639.859137	6371.201795
640.203839	6382.821654
640.548489	6369.026537
