Dividing Wavelength (nm)	Counts (n)	Blue Motor Position (mm): 4.000000	Red Motor Position (mm): 0.000000	
326.493990	2102.113263
326.888308	2102.113263
327.282561	2102.113263
327.676750	2078.311455
328.070874	2080.607701
328.464933	2084.628021
328.858929	2096.033631
329.252859	2109.904366
329.646726	2127.356841
330.040528	2140.594911
330.434265	2156.056130
330.827938	2178.438853
331.221547	2198.951308
331.615091	2218.528629
332.008571	2239.789695
332.401986	2258.537746
332.795338	2280.663370
333.188625	2297.962090
333.581847	2319.472693
333.975006	2338.613954
334.368100	2354.110461
334.761129	2373.574356
335.154095	2385.204298
335.546996	2404.050652
335.939833	2416.270409
336.332606	2432.787749
336.725315	2437.980138
337.117960	2451.031685
337.510540	2456.017386
337.903056	2463.760599
338.295508	2474.374748
338.687896	2482.332209
339.080220	2488.822695
339.472480	2490.602222
339.864676	2493.364775
340.256807	2499.356186
340.648875	2499.530106
341.040879	2501.435662
341.432818	2500.868532
341.824694	2503.187463
342.216506	2501.937257
342.608253	2502.007833
342.999937	2501.077740
343.391557	2497.412821
343.783113	2497.836278
344.174605	2498.952894
344.566033	2493.730258
344.957397	2495.008191
345.348697	2490.403097
345.739934	2493.352172
346.131106	2486.750781
346.522215	2487.537201
346.913260	2483.804226
347.304241	2484.804895
347.695159	2480.305666
348.086012	2482.627117
348.476802	2479.373052
348.867528	2479.362970
349.258191	2476.789461
349.648789	2474.843575
350.039324	2474.848617
350.429796	2475.597228
350.820203	2473.913483
351.210548	2471.864253
351.600828	2469.804942
351.991045	2472.224696
352.381198	2474.911631
352.771288	2470.692185
353.161314	2471.624799
353.551276	2471.954994
353.941175	2468.900055
354.331010	2470.316619
354.720782	2469.872998
355.110490	2472.159161
355.500135	2472.353245
355.889717	2475.282156
356.279235	2471.584469
356.668689	2475.012454
357.058080	2473.222844
357.447408	2470.921558
357.836672	2471.042545
358.225873	2470.167905
358.615010	2469.699078
359.004084	2474.699903
359.393095	2476.277784
359.782043	2476.371045
360.170927	2480.247692
360.559748	2478.095120
360.948505	2478.143011
361.337199	2479.178968
361.725830	2480.640902
362.114398	2481.082003
362.502903	2478.233751
362.891344	2480.749287
363.279722	2480.645943
363.668037	2481.389514
364.056289	2481.417240
364.444478	2481.059318
364.832603	2483.761377
365.220665	2481.495378
365.608665	2482.478403
365.996601	2483.547128
366.384474	2483.985708
366.772284	2483.085862
367.160031	2483.380769
367.547715	2481.656695
367.935336	2485.188023
368.322893	2485.588795
368.710388	2484.888074
369.097820	2485.361943
369.485189	2484.998980
369.872495	2485.671974
370.259738	2486.468476
370.646918	2483.100985
371.034035	2488.638693
371.421090	2485.361943
371.808081	2485.311531
372.195010	2487.769094
372.581875	2484.484782
372.968678	2487.209526
373.355418	2489.213384
373.742096	2484.288177
374.128710	2487.307828
374.515262	2487.685915
374.901751	2485.929073
375.288177	2485.588795
375.674540	2492.028869
376.060841	2489.523415
376.447079	2488.575678
376.833254	2489.306646
377.219367	2487.552324
377.605417	2486.344968
377.991404	2487.774135
378.377329	2487.080976
378.763191	2488.517705
379.148991	2488.210195
379.534727	2490.861842
379.920402	2489.576348
380.306013	2491.517192
380.691563	2492.565752
381.077049	2492.043992
381.462474	2491.986019
381.847835	2494.688078
382.233134	2493.838643
382.618371	2493.427789
383.003545	2493.783190
383.388657	2491.728920
383.773706	2494.519199
384.158693	2494.239415
384.543618	2493.636997
384.928480	2495.348469
385.313280	2494.937615
385.698017	2493.258910
386.082692	2497.395177
386.467305	2494.620022
386.851856	2493.261431
387.236344	2495.350989
387.620770	2496.023983
388.005133	2493.485762
388.389435	2497.972389
388.773674	2495.749240
389.157851	2495.179590
389.541965	2496.124806
389.926018	2496.288644
390.310008	2496.344097
390.693936	2496.858294
391.077802	2496.076915
391.461606	2500.051865
391.845348	2498.831906
392.229027	2501.090343
392.612645	2495.298057
392.996200	2497.254025
393.379694	2497.052379
393.763125	2501.201248
394.146494	2501.309633
394.529801	2498.118583
394.913047	2500.770230
395.296230	2501.125631
395.679351	2497.904334
396.062410	2498.237050
396.445408	2501.498676
396.828343	2500.140085
397.211217	2493.674806
397.594028	2496.192862
397.976778	2494.834271
398.359466	2499.605723
398.742092	2495.724035
399.124656	2500.752586
399.507158	2500.961793
399.889598	2503.807525
400.271977	2500.913902
400.654294	2504.679644
401.036549	2503.825169
401.418742	2501.823831
401.800874	2500.966835
402.182944	2502.847185
402.564952	2500.923985
402.946898	2505.214007
403.328783	2500.001454
403.710606	2504.417504
404.092367	2502.033039
404.474067	2504.447751
404.855705	2501.975065
405.237282	2504.977072
405.618797	2506.764162
406.000250	2505.990344
406.381642	2504.704850
406.762972	2505.355159
407.144240	2504.031856
407.525447	2506.849861
407.906593	2504.571260
408.287677	2503.847854
408.668700	2505.156033
409.049661	2505.818945
409.430560	2507.563184
409.811399	2505.713081
410.192176	2508.178205
410.572891	2505.221568
410.953545	2504.775426
411.334138	2505.995386
411.714669	2506.721312
412.095139	2502.559839
412.475547	2504.717453
412.855894	2503.910868
413.236180	2507.311127
413.616405	2508.367248
413.996568	2508.944461
414.376670	2509.483864
414.756711	2506.824655
415.136691	2509.922444
415.516609	2505.652587
415.896466	2507.699296
416.276262	2510.209790
416.655997	2505.561846
417.035670	2504.046980
417.415283	2507.638802
417.794834	2503.613440
418.174324	2508.228617
418.553753	2506.950684
418.933121	2509.564523
419.312428	2509.345232
419.691674	2510.585356
420.070859	2509.246930
420.449983	2508.299193
420.829045	2510.628206
421.208047	2510.769358
421.586988	2510.794564
421.965867	2507.172495
422.344686	2511.086951
422.723444	2509.481343
423.102141	2508.301713
423.480777	2509.834224
423.859352	2511.452435
424.237866	2515.432426
424.616319	2507.772392
424.994712	2513.226921
425.373044	2509.166271
425.751314	2510.792043
426.129524	2510.960922
426.507673	2512.125429
426.885762	2512.947137
427.263789	2513.037877
427.641756	2511.081910
428.019662	2512.606859
428.397508	2515.056860
428.775292	2512.064935
429.153016	2513.234482
429.530679	2511.563340
429.908282	2511.084430
430.285824	2511.858248
430.663305	2513.337826
431.040726	2511.177692
431.418086	2512.964781
431.795385	2514.968639
432.172624	2514.648526
432.549802	2514.605676
432.926920	2512.727847
433.303977	2514.386386
433.680974	2512.284225
434.057910	2512.460665
434.434786	2513.355470
434.811601	2516.639782
435.188355	2513.582322
435.565050	2516.518794
435.941683	2516.135667
436.318257	2512.352281
436.694770	2513.980573
437.071222	2511.669204
437.447614	2511.696931
437.823946	2512.954698
438.200218	2512.533762
438.576429	2517.879906
438.952580	2513.131139
439.328670	2518.321007
439.704700	2515.250944
440.080670	2513.935203
440.456580	2511.505367
440.832429	2517.670698
441.208218	2515.926459
441.583947	2513.766324
441.959616	2513.945285
442.335224	2515.777745
442.710773	2517.978208
443.086261	2514.698938
443.461689	2515.845800
443.837057	2515.311438
444.212365	2516.831346
444.587612	2515.651716
444.962800	2517.267406
445.337927	2519.200688
445.712995	2519.503157
446.088002	2516.894360
446.462949	2515.412261
446.837837	2518.366377
447.212664	2521.348220
447.587431	2519.205729
447.962139	2515.780265
448.336786	2518.411748
448.711374	2515.087107
449.085901	2517.930317
449.460369	2520.516429
449.834776	2518.063908
450.209124	2520.269413
450.583412	2516.657426
450.957640	2519.798065
451.331808	2518.482324
451.705917	2517.832015
452.079965	2521.549866
452.453954	2519.130112
452.827883	2517.141377
453.201752	2518.333610
453.575562	2520.728158
453.949311	2521.212108
454.323001	2518.016017
454.696632	2519.011645
455.070202	2522.807634
455.443713	2519.067097
455.817164	2519.319155
456.190556	2515.384535
456.563888	2517.469052
456.937160	2513.171468
457.310373	2518.885616
457.683526	2518.593229
458.056619	2520.302180
458.429653	2517.663136
458.802628	2521.159176
459.175542	2521.176820
459.548398	2521.244876
459.921194	2521.146573
460.293930	2520.544156
460.666607	2520.040040
461.039224	2521.262520
461.411782	2521.691018
461.784280	2520.723117
462.156719	2521.996008
462.529099	2520.546676
462.901419	2519.687159
463.273680	2523.523477
463.645882	2521.562469
464.018024	2520.965092
464.390106	2521.804444
464.762130	2522.104393
465.134094	2519.813188
465.505999	2521.154135
465.877845	2519.518281
466.249631	2521.154135
466.621358	2520.927283
466.993026	2525.925587
467.364634	2526.129754
467.736184	2522.434588
468.107674	2520.624814
468.479105	2519.026768
468.850477	2521.101203
469.221790	2519.598939
469.593043	2520.614732
469.964238	2522.575741
470.335373	2522.943745
470.706449	2523.914167
471.077467	2517.801768
471.448425	2524.014990
471.819324	2520.811337
472.190164	2521.890144
472.560945	2519.886285
472.931667	2521.532222
473.302330	2522.605988
473.672934	2522.825278
474.043479	2523.818385
474.413965	2521.907788
474.784393	2518.031140
475.154761	2522.936183
475.525070	2518.096675
475.895321	2519.548528
476.265513	2517.650533
476.635645	2524.781245
477.005719	2522.273271
477.375734	2523.185720
477.745691	2525.144208
478.115588	2525.696215
478.485427	2521.159176
478.855207	2521.305370
479.224928	2523.364681
479.594591	2523.654548
479.964194	2524.188910
480.333739	2523.571368
480.703226	2522.537932
481.072653	2523.420134
481.442022	2524.498941
481.811333	2522.840401
482.180584	2525.040865
482.549777	2523.462984
482.918912	2526.459950
483.287988	2525.567665
483.657005	2524.942562
484.025964	2523.011800
484.394864	2524.667819
484.763706	2523.021883
485.132489	2522.469876
485.501213	2525.582789
485.869879	2522.316121
486.238487	2521.988446
486.607036	2520.652540
486.975527	2522.918539
487.343959	2525.197141
487.712333	2523.334434
488.080648	2523.031965
488.448905	2525.260155
488.817104	2525.837367
489.185244	2526.316277
489.553326	2523.072294
489.921350	2523.914167
490.289315	2525.025741
490.657222	2524.042716
491.025070	2525.008097
491.392861	2526.583458
491.760593	2524.204033
492.128267	2527.019518
492.495883	2526.729651
492.863440	2526.918695
493.230939	2522.847963
493.598380	2526.094466
493.965763	2520.365195
494.333088	2524.798889
494.700354	2520.960051
495.067563	2524.829136
495.434713	2520.019876
495.801805	2525.658406
496.168839	2525.393746
496.535815	2524.743437
496.902733	2523.190761
497.269593	2528.826771
497.636395	2524.841739
498.003139	2526.104548
498.369825	2526.903571
498.736453	2525.434075
499.103023	2524.771163
499.469535	2525.194620
499.835989	2525.270237
500.202385	2526.459950
500.568723	2527.080012
500.935003	2525.928108
501.301226	2524.980371
501.667390	2526.112110
502.033497	2527.624456
502.399546	2525.592871
502.765537	2524.637573
503.131470	2527.223684
503.497345	2525.960875
503.863163	2529.761905
504.228923	2525.224867
504.594625	2525.229908
504.960269	2524.582120
505.325856	2528.647810
505.691385	2526.638911
506.056856	2527.291740
506.422270	2524.279651
506.787625	2528.201668
507.152924	2525.529857
507.518164	2525.134126
507.883347	2528.746113
508.248472	2525.945752
508.613540	2527.962213
508.978550	2525.106400
509.343503	2524.622449
509.708398	2527.311905
510.073236	2526.825433
510.438016	2526.215454
510.802738	2526.739734
511.167403	2526.694363
511.532010	2527.200999
511.896561	2529.582944
512.261053	2530.016484
512.625488	2524.332583
512.989866	2523.558766
513.354186	2523.757891
513.718449	2525.257634
514.082655	2527.052285
514.446803	2528.307532
514.810894	2527.296781
515.174927	2527.808458
515.538904	2528.564631
515.902822	2525.723941
516.266684	2526.220495
516.630488	2528.652852
516.994235	2528.945238
517.357925	2525.413910
517.721558	2527.029600
518.085133	2525.648324
518.448651	2527.080012
518.812112	2524.279651
519.175516	2523.989784
519.538863	2527.601771
519.902152	2526.495238
520.265385	2527.931967
520.628560	2527.805938
520.991678	2525.955834
521.354739	2527.475742
521.717743	2526.855680
522.080690	2528.133613
522.443580	2526.961544
522.806413	2529.900537
523.169189	2527.453057
523.531908	2528.370547
523.894569	2528.647810
524.257174	2526.233098
524.619722	2529.214940
524.982213	2530.896165
525.344647	2526.656555
525.707025	2526.918695
526.069345	2525.043385
526.431608	2528.423479
526.793815	2526.210413
527.155964	2529.938346
527.518057	2529.920702
527.880093	2530.661751
528.242072	2531.077647
528.603995	2529.693850
528.965860	2525.366019
529.327669	2529.340969
529.689421	2527.122861
530.051117	2527.422810
530.412755	2526.540608
530.774337	2527.442975
531.135862	2530.266021
531.497331	2525.035824
531.858743	2521.239835
532.220098	2526.848118
532.581396	2525.015659
532.942638	2525.184538
533.303824	2526.051616
533.664953	2528.075639
534.026025	2524.171266
534.387040	2528.151257
534.747999	2525.076153
535.108902	2525.416431
535.469748	2527.574045
535.830537	2530.250897
536.191270	2528.042872
536.551947	2526.313756
536.912567	2527.385001
537.273131	2531.911957
537.633638	2527.327028
537.994089	2528.874662
538.354483	2527.833664
538.714821	2528.675537
539.075103	2527.382481
539.435328	2530.243336
539.795497	2528.957841
540.155609	2529.721576
540.515665	2528.143695
540.875665	2532.103521
541.235609	2528.310053
541.595496	2530.271062
541.955328	2527.241328
542.315102	2524.355268
542.674821	2530.699560
543.034483	2531.097811
543.394090	2528.433561
543.753640	2529.804755
544.113134	2529.494724
544.472571	2529.620753
544.831953	2528.423479
545.191278	2528.408356
545.550548	2529.706453
545.909761	2529.008253
546.268918	2528.103366
546.628019	2529.683768
546.987064	2529.439272
547.346053	2527.584127
547.704986	2529.691329
548.063863	2526.480114
548.422684	2529.386339
548.781449	2528.088242
549.140158	2528.426000
549.498811	2530.800383
549.857408	2530.399611
550.215949	2529.497245
550.574434	2524.725793
550.932864	2529.514889
551.291237	2522.815195
551.649555	2528.841895
552.007817	2529.892975
552.366022	2529.164529
552.724173	2529.182173
553.082267	2527.264014
553.440305	2526.459950
553.798288	2527.150588
554.156215	2528.408356
554.514086	2529.325846
554.871902	2529.582944
555.229661	2531.178470
555.587365	2529.416586
555.945014	2529.676206
556.302606	2526.623787
556.660143	2529.524971
557.017625	2526.999353
557.375050	2530.742410
557.732421	2529.250228
558.089735	2531.896834
558.446994	2526.470032
558.804197	2528.347862
559.161345	2528.599919
559.518437	2529.028418
559.875474	2529.792152
560.232455	2529.482121
560.589381	2533.227699
560.946251	2532.441279
561.303065	2528.297450
561.659825	2529.010773
562.016528	2527.508510
562.373177	2528.166380
562.729770	2528.458767
563.086307	2528.801566
563.442789	2524.831657
563.799216	2533.126876
564.155587	2525.802079
564.511904	2529.512368
564.868164	2529.419107
565.224370	2527.639580
565.580520	2528.065557
565.936615	2527.949611
566.292654	2529.587986
566.648638	2530.235774
567.004567	2530.502955
567.360441	2527.652182
567.716260	2529.361134
568.072023	2527.826102
568.427732	2523.899043
568.783385	2526.291071
569.138982	2524.181348
569.494525	2525.912984
569.850013	2526.835516
570.205445	2527.952131
570.560823	2528.756195
570.916145	2526.795186
571.271412	2528.257121
571.626625	2528.557070
571.981782	2528.899868
572.336884	2527.909281
572.691931	2528.211751
573.046923	2529.532533
573.401860	2527.821061
573.756743	2529.840043
574.111570	2527.223684
574.466342	2528.151257
574.821059	2528.594878
575.175722	2531.833820
575.530330	2531.044879
575.884882	2527.871473
576.239380	2528.383150
576.593823	2530.886083
576.948211	2530.689478
577.302544	2528.579755
577.656823	2530.139992
578.011047	2530.724766
578.365216	2525.638242
578.719330	2531.017153
579.073389	2526.396935
579.427394	2528.796524
579.781344	2531.322143
580.135239	2529.272913
580.489080	2527.037162
580.842866	2530.097142
581.196597	2530.112266
581.550273	2529.565300
581.903895	2527.382481
582.257463	2528.730989
582.610975	2529.318284
582.964434	2529.472039
583.317837	2530.492873
583.671186	2529.582944
584.024481	2528.559590
584.377721	2529.971113
584.730906	2528.037831
585.084037	2530.568490
585.437113	2528.294930
585.790135	2531.208717
586.143103	2531.962369
586.496016	2528.461288
586.848874	2524.451050
587.201679	2526.931297
587.554428	2524.546832
587.907124	2528.796524
588.259765	2521.373425
588.612352	2531.727955
588.964884	2530.545805
589.317362	2530.762574
589.669786	2524.309898
590.022155	2528.269724
590.374470	2529.716535
590.726731	2530.122348
591.078937	2531.438089
591.431090	2527.591689
591.783188	2527.952131
592.135232	2527.460619
592.487222	2528.388191
592.839157	2530.641587
593.191038	2528.937677
593.542866	2530.820548
593.894639	2530.243336
594.246358	2529.162008
594.598022	2530.485311
594.949633	2529.272913
595.301190	2531.145702
595.652692	2527.931967
596.004141	2529.547656
596.355535	2530.455064
596.706876	2531.833820
597.058162	2530.490352
597.409395	2528.161339
597.760573	2531.382636
598.111698	2527.490866
598.462768	2529.227543
598.813785	2528.368026
599.164748	2530.918850
599.515657	2528.347862
599.866511	2529.388860
600.217312	2531.576721
600.568060	2527.848787
600.918753	2531.667462
601.269392	2529.330887
601.619978	2532.605116
601.970510	2532.259797
602.320988	2529.129241
602.671412	2527.954652
603.021783	2528.483973
603.372100	2528.736031
603.722363	2529.149405
604.072572	2531.163346
604.422728	2532.065713
604.772830	2529.449354
605.122878	2524.645134
605.472872	2528.146216
605.822813	2526.137316
606.172701	2527.838705
606.522534	2527.795855
606.872314	2530.926412
607.222041	2528.534384
607.571714	2530.127389
607.921333	2529.845084
608.270899	2527.775691
608.620411	2529.177132
608.969870	2531.211237
609.319276	2528.665454
609.668627	2532.753830
610.017926	2530.034128
610.367171	2530.520599
610.716362	2527.090094
611.065500	2530.644107
611.414585	2530.926412
611.763616	2529.451874
612.112594	2528.594878
612.461518	2532.763912
612.810389	2527.165711
613.159207	2529.814837
613.507971	2530.301309
613.856682	2530.651669
614.205340	2530.293747
614.553945	2529.479601
614.902496	2526.843077
615.250994	2531.342307
615.599439	2528.957841
615.947830	2530.646628
616.296169	2530.475229
616.644454	2530.482790
616.992686	2530.056813
617.340864	2528.791483
617.688990	2528.720907
618.037063	2531.092770
618.385082	2530.490352
618.733048	2529.766947
619.080961	2530.036648
619.428821	2528.368026
619.776628	2528.000022
620.124382	2533.585621
620.472083	2529.789632
620.819731	2529.933305
621.167326	2531.221319
621.514868	2528.897347
621.862357	2528.284847
622.209793	2530.492873
622.557176	2532.305168
622.904506	2530.301309
623.251783	2524.249404
623.599007	2527.798376
623.946179	2525.582789
624.293297	2527.006915
624.640363	2528.748633
624.987376	2531.269210
625.334336	2528.751154
625.681243	2531.140661
626.028097	2531.138140
626.374899	2531.402801
626.721647	2529.114117
627.068343	2526.757378
627.414987	2527.707635
627.761577	2528.320135
628.108115	2529.519930
628.454600	2527.773170
628.801032	2528.940197
629.147412	2528.864580
629.493739	2528.148736
629.840014	2529.073788
630.186236	2528.637728
630.532405	2530.134951
630.878521	2529.910619
631.224585	2531.874149
631.570597	2528.199148
631.916556	2527.846267
632.262462	2525.580268
632.608316	2530.235774
632.954117	2531.748120
633.299866	2528.388191
633.645562	2529.267872
633.991206	2529.590506
634.336797	2528.204189
634.682336	2530.926412
635.027823	2526.338962
635.373257	2528.796524
635.718639	2528.441123
636.063968	2528.799045
636.409245	2528.839374
636.754470	2528.189065
637.099642	2528.998171
637.444762	2531.246525
637.789829	2530.991947
638.134845	2529.151926
638.479808	2528.189065
638.824719	2529.000691
639.169577	2529.005732
639.514383	2527.707635
639.859137	2527.067409
640.203839	2531.617050
640.548489	2528.017666
640.893086	2529.272913
641.237632	2524.241842
641.582125	2527.886596
641.926566	2524.314939
642.270955	2530.220650
642.615292	2529.530012
642.959576	2530.187883
643.303809	2531.279293
643.647990	2527.810979
643.992118	2530.117307
644.336195	2530.850795
