Dividing Wavelength (nm)	Counts (n)	Blue Motor Position (mm): 5.000000	Red Motor Position (mm): 0.000000	
326.493990	2141.706485
326.888308	2141.706485
327.282561	2141.706485
327.676750	2110.486619
328.070874	2108.218100
328.464933	2111.509974
328.858929	2116.457866
329.252859	2128.007150
329.646726	2140.363018
330.040528	2151.985398
330.434265	2170.131031
330.827938	2186.292970
331.221547	2204.741073
331.615091	2223.317725
332.008571	2243.938565
332.401986	2264.312388
332.795338	2281.354008
333.188625	2302.652883
333.581847	2320.034782
333.975006	2339.561691
334.368100	2358.188755
334.761129	2375.003523
335.154095	2390.535318
335.546996	2407.841600
335.939833	2420.976326
336.332606	2440.689758
336.725315	2450.817436
337.117960	2456.168621
337.510540	2468.403501
337.903056	2479.756180
338.295508	2482.911942
338.687896	2492.812768
339.080220	2502.262411
339.472480	2509.345232
339.864676	2512.329595
340.256807	2518.724299
340.648875	2521.907788
341.040879	2525.527336
341.432818	2525.701256
341.824694	2527.760567
342.216506	2527.032121
342.608253	2528.357944
342.999937	2529.598068
343.391557	2529.681247
343.783113	2523.538601
344.174605	2525.050947
344.566033	2525.287881
344.957397	2523.853673
345.348697	2518.938548
345.739934	2519.775380
346.131106	2517.090965
346.522215	2514.756911
346.913260	2510.958402
347.304241	2512.072497
347.695159	2507.593431
348.086012	2509.453617
348.476802	2507.396826
348.867528	2508.359687
349.258191	2504.420025
349.648789	2500.931547
350.039324	2500.286279
350.429796	2501.838954
350.820203	2496.084477
351.210548	2498.421052
351.600828	2496.260918
351.991045	2497.501041
352.381198	2496.152533
352.771288	2497.755620
353.161314	2493.498365
353.551276	2495.177069
353.941175	2494.965341
354.331010	2495.741679
354.720782	2492.122130
355.110490	2494.289826
355.500135	2492.391832
355.889717	2495.650938
356.279235	2492.739672
356.668689	2496.739827
357.058080	2495.166987
357.447408	2494.675475
357.836672	2492.727069
358.225873	2494.244456
358.615010	2491.890237
359.004084	2495.638335
359.393095	2496.664210
359.782043	2498.940291
360.170927	2499.497338
360.559748	2499.620847
360.948505	2500.180415
361.337199	2498.993223
361.725830	2500.422390
362.114398	2502.204438
362.502903	2500.802997
362.891344	2501.748213
363.279722	2501.909530
363.668037	2503.169819
364.056289	2501.271824
364.444478	2504.954387
364.832603	2504.336846
365.220665	2504.059583
365.608665	2504.828358
365.996601	2507.545540
366.384474	2503.996568
366.772284	2507.117042
367.160031	2503.615961
367.547715	2506.464213
367.935336	2504.329284
368.322893	2507.230468
368.710388	2507.870695
369.097820	2510.668535
369.485189	2507.711898
369.872495	2509.718278
370.259738	2504.334325
370.646918	2506.796929
371.034035	2508.029491
371.421090	2512.228772
371.808081	2509.589728
372.195010	2511.328926
372.581875	2509.836745
372.968678	2512.329595
373.355418	2507.664008
373.742096	2511.810357
374.128710	2511.452435
374.515262	2513.834380
374.901751	2512.069976
375.288177	2510.792043
375.674540	2511.293638
376.060841	2512.876561
376.447079	2510.766838
376.833254	2510.524862
377.219367	2508.825993
377.605417	2509.861951
377.991404	2509.690551
378.377329	2507.674090
378.763191	2506.534789
379.148991	2512.478309
379.534727	2515.974350
379.920402	2513.917559
380.306013	2512.032167
380.691563	2514.499812
381.077049	2512.846314
381.462474	2514.358660
381.847835	2516.075173
382.233134	2517.075842
382.618371	2516.332272
383.003545	2516.271778
383.388657	2514.126767
383.773706	2515.702127
384.158693	2516.760770
384.543618	2516.917045
384.928480	2519.296470
385.313280	2517.852179
385.698017	2516.586850
386.082692	2516.007117
386.467305	2518.063908
386.851856	2517.146418
387.236344	2516.801099
387.620770	2519.820750
388.005133	2518.815040
388.389435	2520.604649
388.773674	2518.462159
389.157851	2518.013496
389.541965	2520.317304
389.926018	2518.114319
390.310008	2520.322345
390.693936	2522.427027
391.077802	2518.709176
391.461606	2519.029289
391.845348	2518.636079
392.229027	2519.724968
392.612645	2519.402334
392.996200	2519.687159
393.379694	2522.079187
393.763125	2525.267717
394.146494	2521.033147
394.529801	2523.326872
394.913047	2523.314270
395.296230	2522.916018
395.679351	2522.122037
396.062410	2522.091790
396.445408	2519.830832
396.828343	2522.893333
397.211217	2520.302180
397.594028	2521.837212
397.976778	2520.581964
398.359466	2517.612725
398.742092	2517.779083
399.124656	2521.996008
399.507158	2523.959537
399.889598	2525.035824
400.271977	2522.714372
400.654294	2525.207223
401.036549	2524.115813
401.418742	2525.303005
401.800874	2525.769312
402.182944	2525.907943
402.564952	2526.565814
402.946898	2524.052799
403.328783	2525.998684
403.710606	2525.267717
404.092367	2528.254600
404.474067	2527.546318
404.855705	2528.612522
405.237282	2525.340813
405.618797	2527.316946
406.000250	2525.718900
406.381642	2527.853829
406.762972	2526.734692
407.144240	2526.444826
407.525447	2530.218130
407.906593	2525.008097
408.287677	2527.505989
408.668700	2530.157636
409.049661	2526.991791
409.430560	2527.475742
409.811399	2530.208047
410.192176	2529.416586
410.572891	2526.780063
410.953545	2524.531708
411.334138	2527.143026
411.714669	2530.855836
412.095139	2529.532533
412.475547	2530.313912
412.855894	2529.751823
413.236180	2530.172759
413.616405	2530.699560
413.996568	2530.011442
414.376670	2531.244005
414.756711	2533.086546
415.136691	2529.507327
415.516609	2528.481452
415.896466	2530.951618
416.276262	2532.491690
416.655997	2529.477080
417.035670	2527.362316
417.415283	2527.455577
417.794834	2527.342152
418.174324	2528.249559
418.553753	2528.703263
418.933121	2533.084026
419.312428	2533.699047
419.691674	2533.411701
420.070859	2531.443130
420.449983	2532.075795
420.829045	2532.156453
421.208047	2532.766433
421.586988	2532.670651
421.965867	2534.377082
422.344686	2533.333563
422.723444	2534.835827
423.102141	2533.091587
423.480777	2535.166022
423.859352	2537.742052
424.237866	2532.083357
424.616319	2532.998326
424.994712	2533.762061
425.373044	2533.996475
425.751314	2534.576207
426.129524	2533.540250
426.507673	2536.380940
426.885762	2535.042514
427.263789	2533.779705
427.641756	2535.120652
428.019662	2537.167360
428.397508	2532.864736
428.775292	2534.344314
429.153016	2534.379602
429.530679	2537.351363
429.908282	2534.152750
430.285824	2535.481094
430.663305	2536.665766
431.040726	2534.477905
431.418086	2535.055117
431.795385	2534.603934
432.172624	2536.827082
432.549802	2537.484953
432.926920	2535.281969
433.303977	2539.196425
433.680974	2538.455375
434.057910	2533.890610
434.434786	2533.648635
434.811601	2538.518390
435.188355	2535.279448
435.565050	2534.982020
435.941683	2536.764068
436.318257	2535.617206
436.694770	2531.932122
437.071222	2538.422608
437.447614	2532.806762
437.823946	2535.695343
438.200218	2539.072917
438.576429	2539.680376
438.952580	2537.968904
439.328670	2538.591486
439.704700	2538.929244
440.080670	2539.546785
440.456580	2537.737011
440.832429	2536.325488
441.208218	2537.245498
441.583947	2542.400078
441.959616	2538.757844
442.335224	2537.172402
442.710773	2539.483771
443.086261	2538.122659
443.461689	2538.964532
443.837057	2538.067206
444.212365	2538.286497
444.587612	2538.780530
444.962800	2541.679193
445.337927	2540.928061
445.712995	2537.658873
446.088002	2537.905889
446.462949	2539.874460
446.837837	2542.679862
447.212664	2537.807587
447.587431	2543.002496
447.962139	2539.798843
448.336786	2541.149872
448.711374	2541.187681
449.085901	2540.895294
449.460369	2540.305479
449.834776	2540.282793
450.209124	2543.315047
450.583412	2540.940664
450.957640	2543.546941
451.331808	2538.175591
451.705917	2543.204142
452.079965	2540.676003
452.453954	2542.226158
452.827883	2540.275232
453.201752	2543.864533
453.575562	2540.277752
453.949311	2538.924203
454.323001	2541.318751
454.696632	2540.600386
455.070202	2541.780016
455.443713	2541.606096
455.817164	2536.161650
456.190556	2537.447144
456.563888	2539.511497
456.937160	2535.564273
457.310373	2540.930582
457.683526	2543.557023
458.056619	2543.451159
458.429653	2542.309337
458.802628	2542.576518
459.175542	2541.021323
459.548398	2542.039636
459.921194	2543.862013
460.293930	2544.761859
460.666607	2542.518545
461.039224	2543.161292
461.411782	2541.434697
461.784280	2543.299924
462.156719	2540.398740
462.529099	2542.052238
462.901419	2542.889070
463.273680	2544.187167
463.645882	2544.164482
464.018024	2540.814635
464.390106	2543.839327
464.762130	2544.328319
465.134094	2545.880995
465.505999	2545.344112
465.877845	2546.405275
466.249631	2546.929555
466.621358	2545.775131
466.993026	2545.245809
467.364634	2546.846376
467.736184	2545.265974
468.107674	2544.048535
468.479105	2543.599873
468.850477	2543.962836
469.221790	2544.749256
469.593043	2542.329502
469.964238	2542.752959
470.335373	2542.445448
470.706449	2542.921837
471.077467	2545.220604
471.448425	2546.017106
471.819324	2546.115408
472.190164	2543.572146
472.560945	2544.804708
472.931667	2546.183464
473.302330	2546.695141
473.672934	2544.751776
474.043479	2546.296890
474.413965	2547.446273
474.784393	2540.285314
475.154761	2545.263453
475.525070	2542.720191
475.895321	2542.682383
476.265513	2541.848072
476.635645	2543.942671
477.005719	2548.421736
477.375734	2544.063659
477.745691	2546.619524
478.115588	2543.917465
478.485427	2545.601211
478.855207	2545.845707
479.224928	2544.797147
479.594591	2547.262271
479.964194	2545.200439
480.333739	2546.548948
480.703226	2543.622558
481.072653	2543.945192
481.442022	2546.012065
481.811333	2544.161961
482.180584	2547.247147
482.549777	2544.073741
482.918912	2545.782692
483.287988	2547.088351
483.657005	2544.046015
484.025964	2546.309493
484.394864	2546.122970
484.763706	2549.571119
485.132489	2547.282436
485.501213	2546.985008
485.869879	2546.206149
486.238487	2546.622044
486.607036	2545.480223
486.975527	2547.176571
487.343959	2546.546427
487.712333	2549.001469
488.080648	2543.892260
488.448905	2547.317724
488.817104	2546.957281
489.185244	2546.009544
489.553326	2545.991900
489.921350	2547.244627
490.289315	2548.308310
490.657222	2548.946016
491.025070	2545.709596
491.392861	2548.774617
491.760593	2547.705893
492.128267	2546.435522
492.495883	2545.003834
492.863440	2552.885678
493.230939	2547.915100
493.598380	2549.286294
493.965763	2542.155582
494.333088	2546.801005
494.700354	2544.766900
495.067563	2544.973587
495.434713	2542.354708
495.801805	2547.363094
496.168839	2548.220090
496.535815	2549.351829
496.902733	2548.991387
497.269593	2551.605225
497.636395	2547.627755
498.003139	2548.514998
498.369825	2548.772097
498.736453	2547.708413
499.103023	2548.754453
499.469535	2546.309493
499.835989	2547.300080
500.202385	2547.531973
500.568723	2549.029195
500.935003	2547.463917
501.301226	2550.987684
501.667390	2549.399720
502.033497	2550.493651
502.399546	2546.745553
502.765537	2549.596325
503.131470	2545.833104
503.497345	2546.382590
503.863163	2550.869217
504.228923	2548.267981
504.594625	2548.918290
504.960269	2547.562220
505.325856	2548.875440
505.691385	2548.762014
506.056856	2548.406613
506.422270	2548.570450
506.787625	2549.679504
507.152924	2548.305790
507.518164	2550.695297
507.883347	2547.370656
508.248472	2550.256716
508.613540	2548.109185
508.978550	2549.913918
509.343503	2551.239741
509.708398	2550.922149
510.073236	2551.821995
510.438016	2549.011551
510.802738	2548.681356
511.167403	2550.841490
511.532010	2548.691438
511.896561	2551.743857
512.261053	2550.375183
512.625488	2547.970553
512.989866	2545.792775
513.354186	2547.902498
513.718449	2547.416026
514.082655	2547.277394
514.446803	2552.742005
514.810894	2549.951727
515.174927	2551.761501
515.538904	2548.935934
515.902822	2552.638662
516.266684	2550.213867
516.630488	2549.190512
516.994235	2549.571119
517.357925	2549.044319
517.721558	2550.576830
518.085133	2549.354350
518.448651	2551.106151
518.812112	2551.637992
519.175516	2550.745708
519.538863	2552.807540
519.902152	2550.206305
520.265385	2551.809392
520.628560	2549.195553
520.991678	2549.303938
521.354739	2550.775955
521.717743	2549.644216
522.080690	2551.527087
522.443580	2549.538352
522.806413	2549.926521
523.169189	2547.912580
523.531908	2550.884340
523.894569	2550.097920
524.257174	2551.479196
524.619722	2549.959288
524.982213	2551.799309
525.344647	2548.076417
525.707025	2550.838970
526.069345	2548.938455
526.431608	2553.455328
526.793815	2549.545914
527.155964	2549.981973
527.518057	2548.023485
527.880093	2549.054401
528.242072	2549.815615
528.603995	2551.295194
528.965860	2552.119423
529.327669	2550.380225
529.689421	2552.129505
530.051117	2553.112530
530.412755	2549.636654
530.774337	2549.029195
531.135862	2553.243600
531.497331	2549.331665
531.858743	2546.070038
532.220098	2547.705893
532.581396	2546.874102
532.942638	2549.041798
533.303824	2553.243600
533.664953	2549.903836
534.026025	2549.303938
534.387040	2550.420554
534.747999	2551.154042
535.108902	2551.756460
535.469748	2551.869886
535.830537	2551.375852
536.191270	2551.201933
536.551947	2552.406768
536.912567	2549.230842
537.273131	2551.988353
537.633638	2552.494989
537.994089	2552.431974
538.354483	2552.384083
538.714821	2551.630431
539.075103	2552.860472
539.435328	2552.590771
539.795497	2552.477345
540.155609	2552.757129
540.515665	2550.307128
540.875665	2550.488609
541.235609	2549.687066
541.595496	2552.673950
541.955328	2550.970040
542.315102	2554.448436
542.674821	2552.109340
543.034483	2550.292004
543.394090	2551.784186
543.753640	2552.805020
544.113134	2551.776624
544.472571	2553.251162
544.831953	2552.263096
545.191278	2550.102961
545.550548	2550.912066
545.909761	2552.936090
546.268918	2550.498692
546.628019	2553.089845
546.987064	2551.867365
547.346053	2553.102448
547.704986	2551.070863
548.063863	2550.478527
548.422684	2551.358208
548.781449	2551.723692
549.140158	2552.200081
549.498811	2553.478014
549.857408	2551.627910
550.215949	2548.819987
550.574434	2549.003990
550.932864	2549.671943
551.291237	2549.419885
551.649555	2551.453990
552.007817	2553.205791
552.366022	2551.887530
552.724173	2548.527601
553.082267	2552.124464
553.440305	2552.986501
553.798288	2553.034392
554.156215	2552.585729
554.514086	2550.566747
554.871902	2550.647406
555.229661	2552.500030
555.587365	2550.927190
555.945014	2551.108671
556.302606	2553.067160
556.660143	2552.187478
557.017625	2550.881819
557.375050	2551.406099
557.732421	2551.101110
558.089735	2552.449618
558.446994	2553.523384
558.804197	2551.811912
559.161345	2552.673950
559.518437	2552.714279
559.875474	2552.996583
560.232455	2552.273178
560.589381	2552.731923
560.946251	2554.319886
561.303065	2550.546583
561.659825	2552.195040
562.016528	2553.165462
562.373177	2551.827036
562.729770	2551.945503
563.086307	2551.534649
563.442789	2550.483568
563.799216	2553.079763
564.155587	2553.704866
564.511904	2551.685883
564.868164	2553.082283
565.224370	2553.039433
565.580520	2551.743857
565.936615	2552.885678
566.292654	2554.307283
566.648638	2549.311500
567.004567	2550.962478
567.360441	2552.051367
567.716260	2552.996583
568.072023	2551.416182
568.427732	2545.568443
568.783385	2549.621531
569.138982	2549.601366
569.494525	2548.951057
569.850013	2546.347302
570.205445	2552.250493
570.560823	2551.335523
570.916145	2553.972047
571.271412	2551.446429
571.626625	2554.851728
571.981782	2552.565565
572.336884	2554.324927
572.691931	2552.368960
573.046923	2551.917777
573.401860	2551.063301
573.756743	2550.980122
574.111570	2551.693445
574.466342	2552.479865
574.821059	2554.289639
575.175722	2550.725544
575.530330	2552.769732
575.884882	2551.161603
576.239380	2552.673950
576.593823	2556.840463
576.948211	2551.726213
577.302544	2554.413148
577.656823	2551.133877
578.011047	2552.883158
578.365216	2552.225287
578.719330	2554.733261
579.073389	2553.220915
579.427394	2550.271840
579.781344	2548.595656
580.135239	2552.941131
580.489080	2552.459701
580.842866	2552.041285
581.196597	2557.054712
581.550273	2553.115051
581.903895	2552.399207
582.257463	2551.907694
582.610975	2551.733774
582.964434	2553.062118
583.317837	2551.259906
583.671186	2553.291491
584.024481	2552.439536
584.377721	2552.308466
584.730906	2552.552962
585.084037	2554.161090
585.437113	2554.140925
585.790135	2552.731923
586.143103	2553.334341
586.496016	2554.801317
586.848874	2545.964174
587.201679	2550.377704
587.554428	2548.346119
587.907124	2550.120605
588.259765	2550.183620
588.612352	2553.331820
588.964884	2550.309648
589.317362	2553.082283
589.669786	2550.425595
590.022155	2553.843497
590.374470	2553.788045
590.726731	2551.612787
591.078937	2552.479865
591.431090	2553.082283
591.783188	2552.923487
592.135232	2552.890719
592.487222	2549.949206
592.839157	2552.762170
593.191038	2553.236038
593.542866	2553.886347
593.894639	2553.767880
594.246358	2554.513971
594.598022	2552.777293
594.949633	2552.968857
595.301190	2553.755277
595.652692	2553.704866
596.004141	2551.491799
596.355535	2554.594629
596.706876	2554.566903
597.058162	2551.237221
597.409395	2551.960626
597.760573	2551.650595
598.111698	2551.771583
598.462768	2553.634289
598.813785	2552.515153
599.164748	2552.225287
599.515657	2553.001625
599.866511	2548.875440
600.217312	2551.476676
600.568060	2552.411810
600.918753	2553.281409
601.269392	2551.927859
601.619978	2552.621018
601.970510	2550.629762
602.320988	2553.319217
602.671412	2552.535318
603.021783	2553.110009
603.372100	2551.670760
603.722363	2552.442057
604.072572	2551.758980
604.422728	2552.033723
604.772830	2550.039947
605.122878	2550.695297
605.472872	2548.920811
605.822813	2547.032898
606.172701	2552.124464
606.522534	2549.364432
606.872314	2553.450287
607.222041	2553.417520
607.571714	2554.206460
607.921333	2551.653116
608.270899	2550.012220
608.620411	2551.821995
608.969870	2554.793755
609.319276	2553.609084
609.668627	2557.936914
610.017926	2557.831050
610.367171	2560.674261
610.716362	2558.027655
611.065500	2557.342058
611.414585	2557.384908
611.763616	2557.513457
612.112594	2555.759136
612.461518	2554.032541
612.810389	2552.063970
613.159207	2554.753426
613.507971	2553.331820
613.856682	2553.780483
614.205340	2553.999773
614.553945	2552.825184
614.902496	2553.528425
615.250994	2552.449618
615.599439	2553.568754
615.947830	2555.529763
616.296169	2553.102448
616.644454	2553.702345
616.992686	2551.940462
617.340864	2554.377860
617.688990	2553.130174
618.037063	2551.910215
618.385082	2550.213867
618.733048	2554.549259
619.080961	2552.464742
619.428821	2553.334341
619.776628	2553.818292
620.124382	2556.505227
620.472083	2552.754608
620.819731	2553.856100
621.167326	2554.156049
621.514868	2555.983467
621.862357	2551.824515
622.209793	2552.641182
622.557176	2552.351316
622.904506	2550.675132
623.251783	2549.490461
623.599007	2551.590102
623.946179	2550.569268
624.293297	2551.794268
624.640363	2553.052036
624.987376	2554.115720
625.334336	2551.905174
625.681243	2554.972716
626.028097	2552.416851
626.374899	2551.829556
626.721647	2550.849052
627.068343	2553.722510
627.414987	2551.237221
627.761577	2553.220915
628.108115	2549.946685
628.454600	2553.866183
628.801032	2553.062118
629.147412	2554.773590
629.493739	2552.588250
629.840014	2554.798796
630.186236	2553.367108
630.532405	2554.246790
630.878521	2552.754608
631.224585	2550.869217
631.570597	2552.931048
631.916556	2555.935576
632.262462	2552.764690
632.608316	2552.812581
632.954117	2551.892571
633.299866	2551.277550
633.645562	2552.815102
633.991206	2555.658313
634.336797	2553.929197
634.682336	2555.008004
635.027823	2552.958775
635.373257	2552.767211
635.718639	2552.986501
636.063968	2550.700338
636.409245	2551.612787
636.754470	2550.372663
637.099642	2553.871224
637.444762	2552.253013
637.789829	2553.228477
638.134845	2551.771583
638.479808	2550.160934
638.824719	2554.944989
639.169577	2553.551110
639.514383	2550.818805
639.859137	2550.269319
640.203839	2553.180586
640.548489	2550.032385
640.893086	2548.782179
641.237632	2547.600028
641.582125	2548.696479
641.926566	2547.234545
642.270955	2553.843497
642.615292	2548.537683
642.959576	2552.328631
643.303809	2551.348126
643.647990	2552.820143
643.992118	2549.835780
644.336195	2548.603218
