Dividing Wavelength (nm)	Counts (n)	Blue Motor Position (mm): 16.500000	Red Motor Position (mm): 0.000000	
326.493990	2135.147944
326.888308	2135.147944
327.282561	2135.147944
327.676750	2103.983531
328.070874	2103.310537
328.464933	2105.326998
328.858929	2112.750098
329.252859	2119.515326
329.646726	2132.057717
330.040528	2147.085396
330.434265	2162.602068
330.827938	2180.820798
331.221547	2198.805114
331.615091	2215.269523
332.008571	2235.590414
332.401986	2256.072622
332.795338	2273.993924
333.188625	2296.046451
333.581847	2310.338123
333.975006	2332.047852
334.368100	2349.701972
334.761129	2366.675537
335.154095	2383.860831
335.546996	2404.567370
335.939833	2425.901533
336.332606	2439.535334
336.725315	2449.418516
337.117960	2462.558283
337.510540	2467.564149
337.903056	2478.868937
338.295508	2486.753301
338.687896	2492.507778
339.080220	2502.776609
339.472480	2510.923113
339.864676	2514.217508
340.256807	2516.193640
340.648875	2521.144053
341.040879	2526.202851
341.432818	2526.001205
341.824694	2527.964734
342.216506	2526.734692
342.608253	2526.338962
342.999937	2528.055475
343.391557	2528.025228
343.783113	2526.243180
344.174605	2526.780063
344.566033	2522.127078
344.957397	2523.505833
345.348697	2522.200175
345.739934	2520.942407
346.131106	2516.649864
346.522215	2517.133815
346.913260	2511.550737
347.304241	2512.506036
347.695159	2508.495798
348.086012	2510.451766
348.476802	2508.092506
348.867528	2506.106291
349.258191	2502.547236
349.648789	2503.021105
350.039324	2501.806187
350.429796	2500.417349
350.820203	2500.903820
351.210548	2498.259735
351.600828	2498.869715
351.991045	2494.670433
352.381198	2495.814775
352.771288	2497.377533
353.161314	2494.836792
353.551276	2496.016422
353.941175	2492.676657
354.331010	2494.277223
354.720782	2493.924343
355.110490	2495.950887
355.500135	2492.497696
355.889717	2497.387615
356.279235	2495.242604
356.668689	2497.100270
357.058080	2492.661534
357.447408	2491.534836
357.836672	2492.225474
358.225873	2492.084322
358.615010	2490.148518
359.004084	2495.116576
359.393095	2498.582369
359.782043	2498.383243
360.170927	2499.812410
360.559748	2500.641680
360.948505	2499.010867
361.337199	2501.612102
361.725830	2500.492966
362.114398	2497.846360
362.502903	2499.648573
362.891344	2502.469098
363.279722	2500.825682
363.668037	2503.888183
364.056289	2503.386588
364.444478	2506.033194
364.832603	2503.983965
365.220665	2504.838441
365.608665	2505.108143
365.996601	2505.738287
366.384474	2505.483708
366.772284	2506.716271
367.160031	2507.026302
367.547715	2506.680983
367.935336	2510.091323
368.322893	2507.532938
368.710388	2509.524193
369.097820	2512.266581
369.485189	2508.818432
369.872495	2509.158710
370.259738	2507.215345
370.646918	2510.378669
371.034035	2506.786847
371.421090	2510.287928
371.808081	2508.095026
372.195010	2511.366735
372.581875	2509.753566
372.968678	2513.121057
373.355418	2509.607372
373.742096	2512.874040
374.128710	2513.158865
374.515262	2510.736591
374.901751	2513.252127
375.288177	2510.464368
375.674540	2511.948988
376.060841	2514.736746
376.447079	2510.799605
376.833254	2514.293125
377.219367	2508.654594
377.605417	2510.285408
377.991404	2507.495129
378.377329	2509.488905
378.763191	2507.389265
379.148991	2513.234482
379.534727	2514.756911
379.920402	2514.217507
380.306013	2515.576098
380.691563	2517.237159
381.077049	2515.031654
381.462474	2514.386386
381.847835	2514.260357
382.233134	2516.982580
382.618371	2516.576768
383.003545	2514.431757
383.388657	2516.251613
383.773706	2517.353105
384.158693	2513.602487
384.543618	2517.353105
384.928480	2517.705986
385.313280	2518.005935
385.698017	2517.983249
386.082692	2518.842766
386.467305	2517.141377
386.851856	2519.082221
387.236344	2518.820081
387.620770	2519.959382
388.005133	2518.096675
388.389435	2519.213291
388.773674	2519.767818
389.157851	2515.974350
389.541965	2520.922242
389.926018	2517.678260
390.310008	2517.867303
390.693936	2521.927952
391.077802	2519.747653
391.461606	2520.486182
391.845348	2521.418796
392.229027	2521.590195
392.612645	2520.055164
392.996200	2522.873169
393.379694	2523.394928
393.763125	2522.918539
394.146494	2524.977850
394.529801	2522.863086
394.913047	2523.271420
395.296230	2524.030113
395.679351	2521.330576
396.062410	2523.641945
396.445408	2521.602798
396.828343	2523.505833
397.211217	2517.446367
397.594028	2521.081038
397.976778	2520.203878
398.359466	2522.570699
398.742092	2518.532735
399.124656	2523.427696
399.507158	2526.215454
399.889598	2525.751668
400.271977	2526.384332
400.654294	2526.734693
401.036549	2522.041378
401.418742	2523.906605
401.800874	2523.899043
402.182944	2525.335772
402.564952	2524.743437
402.946898	2526.507841
403.328783	2528.758716
403.710606	2526.228057
404.092367	2527.155629
404.474067	2527.016997
404.855705	2526.815351
405.237282	2529.134282
405.618797	2529.081350
406.000250	2526.769981
406.381642	2526.686802
406.762972	2527.783253
407.144240	2527.566483
407.525447	2527.299302
407.906593	2526.591020
408.287677	2528.799045
408.668700	2527.737882
409.049661	2526.258303
409.430560	2527.821061
409.811399	2528.993129
410.192176	2528.368026
410.572891	2530.041689
410.953545	2529.711494
411.334138	2528.730989
411.714669	2529.600588
412.095139	2526.724610
412.475547	2529.451874
412.855894	2529.724097
413.236180	2530.268541
413.616405	2530.137471
413.996568	2532.355579
414.376670	2527.246370
414.756711	2532.143851
415.136691	2533.706608
415.516609	2529.373737
415.896466	2533.348686
416.276262	2533.595703
416.655997	2529.451874
417.035670	2525.945752
417.415283	2529.106555
417.794834	2526.903571
418.174324	2532.539581
418.553753	2532.935312
418.933121	2532.012781
419.312428	2531.367513
419.691674	2533.230219
420.070859	2532.945394
420.449983	2532.915147
420.829045	2533.457071
421.208047	2534.044366
421.586988	2534.152750
421.965867	2531.657379
422.344686	2531.667462
422.723444	2534.427493
423.102141	2536.033101
423.480777	2535.715508
423.859352	2535.634850
424.237866	2532.408511
424.616319	2534.747607
424.994712	2533.177287
425.373044	2534.785415
425.751314	2532.799201
426.129524	2533.141999
426.507673	2536.930426
426.885762	2532.592513
427.263789	2534.119983
427.641756	2534.603934
428.019662	2535.072761
428.397508	2533.809952
428.775292	2537.464788
429.153016	2535.690302
429.530679	2538.649460
429.908282	2534.246012
430.285824	2536.149047
430.663305	2536.917823
431.040726	2536.912782
431.418086	2535.463450
431.795385	2537.177443
432.172624	2536.937988
432.549802	2537.061496
432.926920	2535.670138
433.303977	2538.399922
433.680974	2537.663914
434.057910	2538.732639
434.434786	2537.646270
434.811601	2536.227185
435.188355	2535.140817
435.565050	2537.268183
435.941683	2536.766589
436.318257	2535.962525
436.694770	2534.901362
437.071222	2535.718029
437.447614	2535.380271
437.823946	2534.369520
438.200218	2539.700540
438.576429	2539.682896
438.952580	2539.347659
439.328670	2538.321785
439.704700	2537.343801
440.080670	2538.904038
440.456580	2538.523431
440.832429	2539.355221
441.208218	2539.113246
441.583947	2539.198945
441.959616	2539.508976
442.335224	2538.052083
442.710773	2538.616692
443.086261	2538.422608
443.461689	2541.792619
443.837057	2539.193904
444.212365	2541.432177
444.587612	2543.216745
444.962800	2536.514531
445.337927	2539.889583
445.712995	2541.525438
446.088002	2539.887063
446.462949	2541.901004
446.837837	2540.930582
447.212664	2539.387989
447.587431	2542.382434
447.962139	2542.732794
448.336786	2542.510983
448.711374	2544.103988
449.085901	2541.472506
449.460369	2538.606610
449.834776	2542.516025
450.209124	2541.590973
450.583412	2544.081303
450.957640	2541.767413
451.331808	2541.545602
451.705917	2542.435366
452.079965	2540.633154
452.453954	2540.418905
452.827883	2542.337064
453.201752	2540.023174
453.575562	2541.926210
453.949311	2541.646426
454.323001	2539.264480
454.696632	2543.539379
455.070202	2542.405119
455.443713	2543.312527
455.817164	2539.932433
456.190556	2537.174922
456.563888	2536.680889
456.937160	2539.004861
457.310373	2538.669624
457.683526	2545.381921
458.056619	2545.626417
458.429653	2544.076262
458.802628	2544.224976
459.175542	2539.977804
459.548398	2543.912424
459.921194	2542.538710
460.293930	2545.485264
460.666607	2542.508463
461.039224	2544.756818
461.411782	2547.980635
461.784280	2545.641540
462.156719	2543.045346
462.529099	2544.212373
462.901419	2542.621889
463.273680	2544.398896
463.645882	2544.940820
464.018024	2544.419060
464.390106	2546.853938
464.762130	2546.924514
465.134094	2545.399565
465.505999	2547.584905
465.877845	2546.155738
466.249631	2548.613300
466.621358	2546.667415
466.993026	2551.370811
467.364634	2550.312169
467.736184	2545.744884
468.107674	2545.780172
468.479105	2544.514842
468.850477	2547.458876
469.221790	2544.537527
469.593043	2545.470141
469.964238	2549.303938
470.335373	2548.300749
470.706449	2550.397869
471.077467	2545.702034
471.448425	2549.954247
471.819324	2547.473999
472.190164	2547.942827
472.560945	2548.046170
472.931667	2543.975439
473.302330	2547.312682
473.672934	2548.237734
474.043479	2547.131201
474.413965	2546.385110
474.784393	2543.337733
475.154761	2543.234389
475.525070	2545.908721
475.895321	2546.508618
476.265513	2543.725902
476.635645	2549.316541
477.005719	2549.003990
477.375734	2549.162786
477.745691	2549.818136
478.115588	2550.717982
478.485427	2548.598177
478.855207	2549.803013
479.224928	2550.261757
479.594591	2550.148332
479.964194	2551.443908
480.333739	2550.816284
480.703226	2550.977601
481.072653	2552.835267
481.442022	2553.621687
481.811333	2553.808209
482.180584	2553.364588
482.549777	2551.438867
482.918912	2549.200595
483.287988	2553.309135
483.657005	2548.507436
484.025964	2552.003476
484.394864	2552.747046
484.763706	2552.174875
485.132489	2550.410472
485.501213	2554.259392
485.869879	2550.922149
486.238487	2549.276212
486.607036	2551.191850
486.975527	2552.189999
487.343959	2552.676470
487.712333	2554.012376
488.080648	2549.757642
488.448905	2553.445246
488.817104	2554.047664
489.185244	2552.920966
489.553326	2553.800647
489.921350	2552.273178
490.289315	2553.934238
490.657222	2553.213353
491.025070	2554.503888
491.392861	2557.190823
491.760593	2554.461039
492.128267	2558.415824
492.495883	2552.434495
492.863440	2553.725030
493.230939	2552.250493
493.598380	2555.678477
493.965763	2548.003321
494.333088	2555.290308
494.700354	2551.925338
495.067563	2552.132026
495.434713	2548.930893
495.801805	2555.131512
496.168839	2553.387273
496.535815	2554.476162
496.902733	2554.781152
497.269593	2555.907850
497.636395	2550.730585
498.003139	2555.118909
498.369825	2557.730227
498.736453	2553.866183
499.103023	2555.590257
499.469535	2556.757284
499.835989	2556.502706
500.202385	2559.086297
500.568723	2557.092521
500.935003	2558.410783
501.301226	2556.081770
501.667390	2558.045299
502.033497	2556.681667
502.399546	2558.945145
502.765537	2557.551266
503.131470	2558.728375
503.497345	2559.169476
503.863163	2560.664178
504.228923	2559.262738
504.594625	2559.353478
504.960269	2556.124619
505.325856	2560.533108
505.691385	2560.961607
506.056856	2563.169632
506.422270	2559.905485
506.787625	2560.815413
507.152924	2559.688715
507.518164	2562.720969
507.883347	2559.721483
508.248472	2564.049313
508.613540	2563.640980
508.978550	2563.711556
509.343503	2562.534447
509.708398	2562.065619
510.073236	2564.777760
510.438016	2563.346072
510.802738	2565.004612
511.167403	2566.673234
511.532010	2568.500652
511.896561	2566.327915
512.261053	2565.478480
512.625488	2565.037379
512.989866	2562.415979
513.354186	2565.821279
513.718449	2563.653583
514.082655	2567.144582
514.446803	2567.522668
514.810894	2569.395457
515.174927	2573.859399
515.538904	2569.735735
515.902822	2570.146589
516.266684	2571.558112
516.630488	2572.805797
516.994235	2575.028946
517.357925	2575.215469
517.721558	2574.126580
518.085133	2575.709502
518.448651	2579.336612
518.812112	2581.191757
519.175516	2578.696386
519.538863	2583.845924
519.902152	2583.145204
520.265385	2587.009248
520.628560	2586.671491
520.991678	2583.873651
521.354739	2588.133426
521.717743	2589.940679
522.080690	2594.087028
522.443580	2592.441092
522.806413	2600.156578
523.169189	2598.850919
523.531908	2601.467278
523.894569	2601.920982
524.257174	2605.139758
524.619722	2607.662856
524.982213	2611.995728
525.344647	2615.257354
525.707025	2617.200719
526.069345	2621.526029
526.431608	2623.066101
526.793815	2627.099024
527.155964	2629.906947
527.518057	2631.157153
527.880093	2638.779378
528.242072	2641.746097
528.603995	2643.724750
528.965860	2648.725574
529.327669	2653.033240
529.689421	2654.885864
530.051117	2660.826864
530.412755	2667.675272
530.774337	2671.430931
531.135862	2679.731191
531.497331	2680.600790
531.858743	2684.081707
532.220098	2693.798531
532.581396	2693.937163
532.942638	2700.079809
533.303824	2710.184802
533.664953	2718.260730
534.026025	2719.770556
534.387040	2732.431413
534.747999	2739.909965
535.108902	2748.948754
535.469748	2751.532345
535.830537	2761.428130
536.191270	2771.018926
536.551947	2780.014865
536.912567	2787.213632
537.273131	2794.518264
537.633638	2804.247691
537.994089	2815.234886
538.354483	2821.546411
538.714821	2835.633915
539.075103	2848.050277
539.435328	2859.629807
539.795497	2863.519057
540.155609	2882.675442
540.515665	2897.319994
540.875665	2901.388205
541.235609	2915.997469
541.595496	2929.409459
541.955328	2951.509877
542.315102	2955.416772
542.674821	2969.509317
543.034483	2979.836121
543.394090	2996.915550
543.753640	3006.657580
544.113134	3041.867519
544.472571	3048.239537
544.831953	3071.932960
545.191278	3080.046697
545.550548	3096.407762
545.909761	3123.728296
546.268918	3139.925523
546.628019	3164.402845
546.987064	3178.576049
547.346053	3185.991587
547.704986	3219.560630
548.063863	3235.006726
548.422684	3250.583891
548.781449	3269.959566
549.140158	3298.411838
549.498811	3311.077737
549.857408	3318.216011
550.215949	3366.691746
550.574434	3368.229298
550.932864	3407.149527
551.291237	3428.166097
551.649555	3458.972588
552.007817	3480.291628
552.366022	3495.939369
552.724173	3526.602187
553.082267	3544.679765
553.440305	3598.733537
553.798288	3591.275150
554.156215	3645.641474
554.514086	3670.524609
554.871902	3678.262780
555.229661	3710.626988
555.587365	3741.400712
555.945014	3747.084613
556.302606	3804.629384
556.660143	3807.918737
557.017625	3876.039849
557.375050	3889.930748
557.732421	3942.094087
558.089735	3963.665185
558.446994	3991.933455
558.804197	4029.573230
559.161345	4065.521698
559.518437	4059.341244
559.875474	4120.563537
560.232455	4160.262623
560.589381	4176.119573
560.946251	4232.671236
561.303065	4266.036113
561.659825	4296.766987
562.016528	4315.210048
562.373177	4312.989420
562.729770	4391.638982
563.086307	4399.677102
563.442789	4451.008651
563.799216	4476.337928
564.155587	4512.074668
564.511904	4544.388464
564.868164	4575.867949
565.224370	4611.597127
565.580520	4650.424094
565.936615	4666.772556
566.292654	4683.978014
566.648638	4744.411366
567.004567	4776.352117
567.360441	4807.140964
567.716260	4827.542514
568.072023	4885.651894
568.427732	4919.031894
568.783385	4912.848919
569.138982	4986.008664
569.494525	5022.362945
569.850013	5018.161143
570.205445	5093.218883
570.560823	5087.313171
570.916145	5106.378815
571.271412	5169.186551
571.626625	5191.271846
571.981782	5212.054003
572.336884	5255.133183
572.691931	5276.008601
573.046923	5311.702491
573.401860	5324.219676
573.756743	5348.540722
574.111570	5394.780706
574.466342	5423.585859
574.821059	5478.216843
575.175722	5468.898271
575.530330	5517.258059
575.884882	5550.469181
576.239380	5559.039142
576.593823	5582.281382
576.948211	5635.503364
577.302544	5608.392039
577.656823	5665.810781
578.011047	5693.524524
578.365216	5724.981324
578.719330	5724.565429
579.073389	5777.603409
579.427394	5776.088542
579.781344	5804.487882
580.135239	5820.460778
580.489080	5854.836406
580.842866	5850.163257
581.196597	5888.307147
581.550273	5939.321103
581.903895	5967.677594
582.257463	6028.388210
582.610975	6009.188975
582.964434	6044.860180
583.317837	6049.886210
583.671186	6063.215021
584.024481	6097.487305
584.377721	6086.852991
584.730906	6108.497185
585.084037	6167.539179
585.437113	6152.246839
585.790135	6208.566610
586.143103	6185.841088
586.496016	6196.631678
586.848874	6263.137100
587.201679	6283.400018
587.554428	6253.440441
587.907124	6315.706252
588.259765	6326.209497
588.612352	6362.397419
588.964884	6311.098638
589.317362	6351.253949
589.669786	6383.255193
590.022155	6433.321413
590.374470	6487.070195
590.726731	6465.761238
591.078937	6408.871817
591.431090	6515.136819
591.783188	6454.065761
592.135232	6495.562019
592.487222	6503.711044
592.839157	6577.571510
593.191038	6552.345576
593.542866	6547.730399
593.894639	6510.299832
594.246358	6572.059008
594.598022	6613.202385
594.949633	6573.399955
595.301190	6581.826243
595.652692	6624.096318
596.004141	6729.864767
596.355535	6600.586898
596.706876	6613.968640
597.058162	6594.358552
597.409395	6667.624161
597.760573	6737.900367
598.111698	6695.048038
598.462768	6714.421193
598.813785	6702.778648
599.164748	6715.449588
599.515657	6718.925463
599.866511	6685.752151
600.217312	6792.680065
600.568060	6719.280865
600.918753	6811.642365
601.269392	6812.751419
601.619978	6771.915552
601.970510	6836.780079
602.320988	6852.079981
602.671412	6921.665548
603.021783	6894.193780
603.372100	6890.062554
603.722363	6917.045330
604.072572	6914.832264
604.422728	6944.829650
604.772830	6904.994452
605.122878	6938.976870
605.472872	6947.143539
605.822813	6992.823955
606.172701	6966.123483
606.522534	7046.111472
606.872314	7058.472381
607.222041	7053.166566
607.571714	7113.957841
607.921333	7097.566529
608.270899	7117.153932
608.620411	7208.257664
608.969870	7145.586040
609.319276	7156.069119
609.668627	7185.758995
610.017926	7232.087199
610.367171	7291.466950
610.716362	7283.892616
611.065500	7291.880324
611.414585	7331.181160
611.763616	7333.895821
612.112594	7328.400963
612.461518	7356.780139
612.810389	7421.160715
613.159207	7385.270220
613.507971	7349.092379
613.856682	7468.620658
614.205340	7438.746780
614.553945	7524.827003
614.902496	7447.011752
615.250994	7509.774117
615.599439	7501.463775
615.947830	7531.897221
616.296169	7512.292173
616.644454	7533.119701
616.992686	7547.819705
617.340864	7606.138293
617.688990	7532.260184
618.037063	7619.933411
618.385082	7585.265396
618.733048	7674.793768
619.080961	7622.905171
619.428821	7651.649830
619.776628	7666.760689
620.124382	7634.832541
620.472083	7628.775595
620.819731	7664.040987
621.167326	7581.693738
621.514868	7592.837209
621.862357	7508.229003
622.209793	7526.437651
622.557176	7482.677915
622.904506	7466.657128
623.251783	7408.860299
623.599007	7383.503296
623.946179	7392.920171
624.293297	7365.672734
624.640363	7294.390819
624.987376	7291.842516
625.334336	7247.911381
625.681243	7208.350926
626.028097	7199.062600
626.374899	7191.614295
626.721647	7189.489449
627.068343	7128.657845
627.414987	7111.679239
627.761577	7077.250679
628.108115	7116.906916
628.454600	7023.343100
628.801032	7078.253868
629.147412	7037.254164
629.493739	7032.419698
629.840014	6981.740978
630.186236	7037.586880
630.532405	6935.627023
630.878521	6982.897923
631.224585	6943.191275
631.570597	6879.148456
631.916556	6909.445791
632.262462	6910.428816
632.608316	6877.653754
632.954117	6861.196907
633.299866	6853.768767
633.645562	6845.445822
633.991206	6779.910822
634.336797	6727.029118
634.682336	6693.835641
635.027823	6663.077041
635.373257	6658.792060
635.718639	6599.707216
636.063968	6612.103413
636.409245	6512.601119
636.754470	6517.554052
637.099642	6481.998794
637.444762	6425.817655
637.789829	6439.953051
638.134845	6384.664196
638.479808	6373.689604
638.824719	6379.247476
639.169577	6318.161294
639.514383	6340.927145
639.859137	6266.819663
640.203839	6279.218381
640.548489	6271.835611
640.893086	6249.042034
641.237632	6220.693105
641.582125	6245.291416
641.926566	6219.200924
642.270955	6229.507563
642.615292	6226.888683
642.959576	6246.458443
643.303809	6239.567185
643.647990	6247.736375
643.992118	6236.469396
644.336195	6183.990985
