Dividing Wavelength (nm)	Counts (n)	Blue Motor Position (mm): 46.600000	Red Motor Position (mm): 0.000000	
326.493990	2130.958745
326.888308	2130.958745
327.282561	2130.958745
327.676750	2096.920874
328.070874	2094.869125
328.464933	2099.764085
328.858929	2104.636360
329.252859	2116.379728
329.646726	2126.807355
330.040528	2138.896042
330.434265	2155.302477
330.827938	2173.632113
331.221547	2191.618949
331.615091	2209.847762
332.008571	2230.904661
332.401986	2249.917373
332.795338	2269.855137
333.188625	2289.119906
333.581847	2307.613379
333.975006	2325.869918
334.368100	2342.198215
334.761129	2359.648169
335.154095	2376.717516
335.546996	2401.303223
335.939833	2424.555545
336.332606	2440.220931
336.725315	2453.726182
337.117960	2461.797069
337.510540	2470.672021
337.903056	2481.472693
338.295508	2486.218939
338.687896	2495.598006
339.080220	2505.125787
339.472480	2514.157014
339.864676	2518.699093
340.256807	2519.598939
340.648875	2522.608508
341.040879	2524.687984
341.432818	2526.754857
341.824694	2525.885258
342.216506	2528.420958
342.608253	2529.719056
342.999937	2527.548839
343.391557	2530.981865
343.783113	2527.006915
344.174605	2528.388191
344.566033	2527.032121
344.957397	2526.122192
345.348697	2524.125895
345.739934	2517.887468
346.131106	2516.027282
346.522215	2518.142046
346.913260	2515.618948
347.304241	2515.351767
347.695159	2509.153668
348.086012	2513.352950
348.476802	2510.406395
348.867528	2511.200377
349.258191	2505.007319
349.648789	2507.958915
350.039324	2501.493635
350.429796	2505.070334
350.820203	2503.232833
351.210548	2500.931547
351.600828	2499.721670
351.991045	2497.680002
352.381198	2497.226298
352.771288	2498.731083
353.161314	2497.027173
353.551276	2499.462050
353.941175	2497.526247
354.331010	2494.559528
354.720782	2497.929539
355.110490	2497.140599
355.500135	2499.061278
355.889717	2498.002636
356.279235	2498.975579
356.668689	2499.522544
357.058080	2497.080105
357.447408	2497.795949
357.836672	2494.763695
358.225873	2496.134889
358.615010	2494.315032
359.004084	2500.727380
359.393095	2501.256701
359.782043	2499.547750
360.170927	2502.494304
360.559748	2505.299706
360.948505	2503.820128
361.337199	2504.069665
361.725830	2505.334994
362.114398	2507.754748
362.502903	2507.227948
362.891344	2509.836745
363.279722	2508.271467
363.668037	2509.549399
364.056289	2510.232475
364.444478	2511.495284
364.832603	2512.148114
365.220665	2510.345901
365.608665	2511.180212
365.996601	2513.680625
366.384474	2513.237003
366.772284	2513.047960
367.160031	2510.940758
367.547715	2514.209946
367.935336	2514.088958
368.322893	2516.065090
368.710388	2514.837569
369.097820	2518.051305
369.485189	2516.002076
369.872495	2517.353105
370.259738	2518.782272
370.646918	2517.655574
371.034035	2520.523991
371.421090	2522.699249
371.808081	2522.157325
372.195010	2526.492717
372.581875	2527.531195
372.968678	2534.820703
373.355418	2535.062679
373.742096	2543.773792
374.128710	2548.875440
374.515262	2559.040927
374.901751	2565.874211
375.288177	2574.872671
375.674540	2586.139649
376.060841	2598.896289
376.447079	2612.514966
376.833254	2627.512399
377.219367	2635.734521
377.605417	2659.037255
377.991404	2669.943791
378.377329	2689.637058
378.763191	2703.459902
379.148991	2730.898903
379.534727	2751.663415
379.920402	2776.874226
380.306013	2796.837195
380.691563	2835.623833
381.077049	2857.852801
381.462474	2877.379710
381.847835	2918.071904
382.233134	2941.089812
382.618371	2954.615228
383.003545	3012.328878
383.388657	3030.741692
383.773706	3068.414235
384.158693	3093.234356
384.543618	3125.719551
384.928480	3168.259328
385.313280	3216.659446
385.698017	3227.177814
386.082692	3283.285856
386.467305	3302.706901
386.851856	3341.596883
387.236344	3373.812376
387.620770	3410.338056
388.005133	3445.220320
388.389435	3477.125783
388.773674	3494.880727
389.157851	3546.189591
389.541965	3570.838312
389.926018	3543.714384
390.310008	3617.501753
390.693936	3644.429076
391.077802	3690.346426
391.461606	3682.005837
391.845348	3750.835231
392.229027	3752.604676
392.612645	3774.826082
392.996200	3853.521014
393.379694	3895.566758
393.763125	3959.349957
394.146494	3929.413065
394.529801	3997.365298
394.913047	4041.719890
395.296230	4011.916589
395.679351	4068.087646
396.062410	4091.725616
396.445408	4074.752051
396.828343	4108.994088
397.211217	4133.849498
397.594028	4052.548289
397.976778	4119.588073
398.359466	4148.073113
398.742092	4179.419008
399.124656	4098.674847
399.507158	4181.420346
399.889598	4209.683575
400.271977	4263.492851
400.654294	4239.050817
401.036549	4244.517948
401.418742	4214.644070
401.800874	4317.395388
402.182944	4344.988144
402.564952	4402.966454
402.946898	4390.277870
403.328783	4385.619844
403.710606	4299.821926
404.092367	4495.151514
404.474067	4459.583653
404.855705	4466.323676
405.237282	4394.472110
405.618797	4501.498327
406.000250	4539.803534
406.381642	4624.545331
406.762972	4580.475564
407.144240	4591.493005
407.525447	4593.643057
407.906593	4652.934588
408.287677	4692.550496
408.668700	4620.956029
409.049661	4675.564328
409.430560	4714.880287
409.811399	4640.765243
410.192176	4803.332372
410.572891	4742.944390
410.953545	4843.424669
411.334138	4723.629209
411.714669	4790.910969
412.095139	4686.788457
412.475547	4828.858255
412.855894	4808.020645
413.236180	4821.654446
413.616405	4774.338176
413.996568	4860.672977
414.376670	4801.552845
414.756711	4757.720012
415.136691	4791.795692
415.516609	4864.070714
415.896466	4901.614708
416.276262	4939.153660
416.655997	4917.501904
417.035670	5101.340182
417.415283	5191.496177
417.794834	5136.827384
418.174324	5089.823666
418.553753	4998.142722
418.933121	5181.575187
419.312428	5245.275207
419.691674	5189.517524
420.070859	5312.655269
420.449983	5226.191919
420.829045	5337.508157
421.208047	5251.264097
421.586988	5322.616589
421.965867	5331.090768
422.344686	5467.970698
422.723444	5317.709026
423.102141	5139.141274
423.480777	5434.827632
423.859352	5205.845822
424.237866	5465.855934
424.616319	5452.995951
424.994712	5564.733126
425.373044	5440.438437
425.751314	5583.428245
426.129524	5387.319798
426.507673	5577.988840
426.885762	5662.697868
427.263789	5600.774855
427.641756	5478.582327
428.019662	5597.876192
428.397508	5605.944558
428.775292	5555.979162
429.153016	5653.792670
429.530679	5580.789201
429.908282	5667.308004
430.285824	5535.897726
430.663305	5808.172966
431.040726	5543.169590
431.418086	5546.068254
431.795385	5647.904602
432.172624	5661.644267
432.549802	5660.139483
432.926920	5666.831615
433.303977	5679.668913
433.680974	5714.989757
434.057910	5730.524073
434.434786	5739.323407
434.811601	5707.763263
435.188355	5948.634635
435.565050	5816.561446
435.941683	5799.252644
436.318257	6009.602350
436.694770	5996.989383
437.071222	6030.818046
437.447614	5963.659794
437.823946	5876.956989
438.200218	6025.902921
438.576429	5895.233693
438.952580	5995.587942
439.328670	6036.020517
439.704700	5944.828564
440.080670	5931.330875
440.456580	6199.613521
440.832429	6087.218475
441.208218	5934.247182
441.583947	6081.237146
441.959616	6091.818528
442.335224	6013.065623
442.710773	6157.408981
443.086261	6182.781108
443.461689	5976.882741
443.837057	6123.940760
444.212365	6280.841632
444.587612	6173.578482
444.962800	6327.978942
445.337927	6304.477082
445.712995	5917.555922
446.088002	6492.807028
446.462949	6321.092725
446.837837	6255.797180
447.212664	6430.049704
447.587431	6574.884575
447.962139	7119.586289
448.336786	8043.496198
448.711374	7779.284284
449.085901	6859.656835
449.460369	6773.967302
449.834776	6711.600667
450.209124	7099.852692
450.583412	7250.605877
450.957640	7395.564256
451.331808	7161.478277
451.705917	6713.972530
452.079965	6630.891794
452.453954	6846.345668
452.827883	6726.698923
453.201752	6822.952194
453.575562	6617.570545
453.949311	6817.981616
454.323001	6708.986829
454.696632	6784.838550
455.070202	6925.239726
455.443713	7079.861997
455.817164	7180.004518
456.190556	7261.315809
456.563888	7335.085533
456.937160	7382.580764
457.310373	7041.052674
457.683526	7058.396763
458.056619	6948.542459
458.429653	6938.089627
458.802628	6873.353650
459.175542	6983.460012
459.548398	7337.492684
459.921194	7499.742221
460.293930	7502.673652
460.666607	8033.658387
461.039224	8344.589194
461.411782	8463.131927
461.784280	8486.094382
462.156719	8376.605562
462.529099	8250.997652
462.901419	7842.339036
463.273680	7730.995071
463.645882	7749.279336
464.018024	7614.869572
464.390106	7779.072556
464.762130	8171.297010
465.134094	8641.346797
465.505999	9662.248507
465.877845	10889.356094
466.249631	11532.687983
466.621358	11154.729994
466.993026	10521.631647
467.364634	10262.586916
467.736184	9896.886492
468.107674	9565.569258
468.479105	9607.657852
468.850477	9372.969455
469.221790	9135.805852
469.593043	8808.592117
469.964238	8665.458636
470.335373	8683.584105
470.706449	8741.111232
471.077467	8720.233293
471.448425	10035.298933
471.819324	11102.261665
472.190164	11124.251178
472.560945	9874.329849
472.931667	9088.350950
473.302330	8953.051422
473.672934	8597.307278
474.043479	8953.845404
474.413965	8899.852126
474.784393	8780.951471
475.154761	8934.172301
475.525070	9026.586733
475.895321	8855.200105
476.265513	9025.578503
476.635645	9196.413124
477.005719	9200.801448
477.375734	9313.703130
477.745691	9550.377741
478.115588	9683.945633
478.485427	9925.840359
478.855207	10463.544952
479.224928	11277.708942
479.594591	11909.010118
479.964194	11717.385778
480.333739	11655.372024
480.703226	11574.196844
481.072653	11666.807881
481.442022	11906.454253
481.811333	12091.320926
482.180584	11889.417673
482.549777	11608.133892
482.918912	11429.556058
483.287988	11450.620519
483.657005	11458.149482
484.025964	11147.541309
484.394864	11274.979157
484.763706	11239.585216
485.132489	11005.403455
485.501213	10971.544546
485.869879	11041.472911
486.238487	10888.020188
486.607036	10997.009934
486.975527	10777.197983
487.343959	10970.652261
487.712333	11018.147492
488.080648	10949.814652
488.448905	10989.458286
488.817104	10921.720302
489.185244	11194.960922
489.553326	11351.778616
489.921350	11888.711912
490.289315	12948.634672
490.657222	13295.604689
491.025070	13195.741952
491.392861	13073.173858
491.760593	12694.895755
492.128267	12337.848472
492.495883	12007.723472
492.863440	11679.592247
493.230939	11340.521719
493.598380	11267.107396
493.965763	11142.769857
494.333088	11045.082377
494.700354	10953.149375
495.067563	11028.307938
495.434713	10849.770433
495.801805	10976.537808
496.168839	10910.566749
496.535815	10837.031438
496.902733	10840.466984
497.269593	10774.412745
497.636395	10870.716427
498.003139	10858.980621
498.369825	10729.785931
498.736453	10879.508200
499.103023	10815.689713
499.469535	10842.722900
499.835989	10830.177989
500.202385	10791.487133
500.568723	10645.598661
500.935003	10870.335820
501.301226	10672.833495
501.667390	10934.928125
502.033497	11031.017558
502.399546	10882.840403
502.765537	10798.348143
503.131470	10865.791220
503.497345	11040.694053
503.863163	10654.758438
504.228923	10966.047167
504.594625	11023.959943
504.960269	10782.609661
505.325856	11000.505974
505.691385	10788.255753
506.056856	10947.830958
506.422270	10970.465739
506.787625	10852.691782
507.152924	10974.206275
507.518164	10958.818153
507.883347	10875.979392
508.248472	10795.842690
508.613540	11037.001408
508.978550	10915.388612
509.343503	10885.761751
509.708398	11006.061326
510.073236	11123.376538
510.438016	11129.630089
510.802738	11074.331152
511.167403	11132.478341
511.532010	11024.423729
511.896561	11251.681465
512.261053	11328.947230
512.625488	11200.775893
512.989866	11181.443068
513.354186	11168.336068
513.718449	11067.999463
514.082655	11260.851324
514.446803	11161.911118
514.810894	11280.892431
515.174927	11148.768830
515.538904	11172.726913
515.902822	11323.407002
516.266684	11199.465193
516.630488	11146.142388
516.994235	11205.554907
517.357925	11266.605801
517.721558	11354.561333
518.085133	11370.342665
518.448651	11386.038297
518.812112	11258.124059
519.175516	11276.221802
519.538863	11404.241904
519.902152	11314.791670
520.265385	11476.610188
520.628560	11388.427804
520.991678	11367.927952
521.354739	11424.504822
521.717743	11362.980059
522.080690	11338.769918
522.443580	11476.819396
522.806413	11430.942375
523.169189	11459.921448
523.531908	11524.765810
523.894569	11344.247132
524.257174	11349.741989
524.619722	11466.348919
524.982213	11413.741958
525.344647	11464.287087
525.707025	11415.060220
526.069345	11507.025989
526.431608	11427.279977
526.793815	11532.254444
527.155964	11322.418936
527.518057	11378.312729
527.880093	11326.398927
528.242072	11391.286138
528.603995	11296.767024
528.965860	11217.139479
529.327669	11270.719382
529.689421	11221.321116
530.051117	11185.453306
530.412755	11295.156376
530.774337	11184.528254
531.135862	11167.968064
531.497331	11189.435818
531.858743	11043.678416
532.220098	11206.263189
532.581396	11084.070661
532.942638	11065.062991
533.303824	11022.412308
533.664953	11036.925790
534.026025	10955.750611
534.387040	11050.617564
534.747999	11053.216279
535.108902	11112.427152
535.469748	10868.533608
535.830537	10971.542025
536.191270	10956.796650
536.551947	10980.651390
536.912567	10975.194341
537.273131	10896.723740
537.633638	10875.185410
537.994089	10864.137722
538.354483	10828.249747
538.714821	10967.405758
539.075103	10976.631070
539.435328	10934.179513
539.795497	10762.873544
540.155609	10917.584035
540.515665	11004.591830
540.875665	10740.465615
541.235609	10809.378188
541.595496	10802.759153
541.955328	10962.851076
542.315102	10845.891265
542.674821	10787.542430
543.034483	10792.754983
543.394090	10798.239759
543.753640	10728.364325
544.113134	10950.606113
544.472571	10803.684205
544.831953	10942.376429
545.191278	10755.939437
545.550548	10781.132603
545.909761	10914.052707
546.268918	10893.701568
546.628019	10969.018927
546.987064	10842.599392
547.346053	10759.511094
547.704986	10860.240910
548.063863	10842.191058
548.422684	10839.330204
548.781449	10755.518500
549.140158	10857.080106
549.498811	10739.351520
549.857408	10595.799623
550.215949	10818.280866
550.574434	10675.129741
550.932864	10768.829667
551.291237	10833.789976
551.649555	10782.196287
552.007817	10795.104161
552.366022	10754.943809
552.724173	10753.350804
553.082267	10729.942206
553.440305	10870.010666
553.798288	10673.062867
554.156215	10827.977525
554.514086	10797.518874
554.871902	10643.781325
555.229661	10687.992245
555.587365	10664.006435
555.945014	10549.239526
556.302606	10689.139107
556.660143	10573.464791
557.017625	10727.890457
557.375050	10619.828283
557.732421	10759.102761
558.089735	10677.836840
558.446994	10675.336428
558.804197	10709.848167
559.161345	10717.682120
559.518437	10561.234952
559.875474	10653.183077
560.232455	10679.969248
560.589381	10625.945723
560.946251	10628.884716
561.303065	10730.148894
561.659825	10675.018835
562.016528	10603.053843
562.373177	10477.640018
562.729770	10594.400703
563.086307	10511.014977
563.442789	10604.790521
563.799216	10484.561522
564.155587	10526.335044
564.511904	10488.244085
564.868164	10484.407767
565.224370	10487.142593
565.580520	10419.911245
565.936615	10417.897304
566.292654	10294.298294
566.648638	10424.044991
567.004567	10379.947498
567.360441	10362.071566
567.716260	10271.061095
568.072023	10364.229180
568.427732	10323.131173
568.783385	10227.840763
569.138982	10299.137802
569.494525	10314.515841
569.850013	10187.304845
570.205445	10268.767370
570.560823	10170.633749
570.916145	10084.306510
571.271412	10153.894597
571.626625	10099.001473
571.981782	10075.547505
572.336884	10047.896776
572.691931	10055.667715
573.046923	9997.326441
573.401860	9959.358991
573.756743	9901.589889
574.111570	9935.463922
574.466342	9918.318958
574.821059	9948.298700
575.175722	9833.556997
575.530330	9846.880767
575.884882	9842.656280
576.239380	9765.660216
576.593823	9747.416281
576.948211	9760.077138
577.302544	9644.367534
577.656823	9656.788937
578.011047	9663.425616
578.365216	9637.110793
578.719330	9561.160769
579.073389	9570.922964
579.427394	9516.486064
579.781344	9495.857662
580.135239	9448.077606
580.489080	9453.186816
580.842866	9350.012041
581.196597	9360.948824
581.550273	9394.235563
581.903895	9367.328404
582.257463	9431.267879
582.610975	9313.015012
582.964434	9335.969907
583.317837	9264.365357
583.671186	9241.896935
584.024481	9240.412315
584.377721	9152.277822
584.730906	9131.924163
585.084037	9166.730810
585.437113	9102.471222
585.790135	9117.690466
586.143103	9015.470989
586.496016	8993.617587
586.848874	9047.194970
587.201679	9043.517448
587.554428	8921.506402
587.907124	8971.088671
588.259765	8941.456768
588.612352	8943.773178
588.964884	8819.975043
589.317362	8833.694543
589.669786	8833.997012
590.022155	8885.260506
590.374470	8899.494204
590.726731	8835.577414
591.078937	8686.664250
591.431090	8802.628432
591.783188	8675.762755
592.135232	8662.191969
592.487222	8667.119697
592.839157	8715.620638
593.191038	8649.435329
593.542866	8594.655631
593.894639	8499.072833
594.246358	8546.056387
594.598022	8562.606495
594.949633	8464.891289
595.301190	8434.019263
595.652692	8462.000188
596.004141	8574.007064
596.355535	8356.761060
596.706876	8331.610743
597.058162	8270.630426
597.409395	8341.677928
597.760573	8405.466168
598.111698	8314.629617
598.462768	8300.317781
598.813785	8271.651260
599.164748	8237.678924
599.515657	8225.973365
599.866511	8136.777709
600.217312	8260.628777
600.568060	8123.171635
600.918753	8220.531439
601.269392	8193.571348
601.619978	8106.074562
601.970510	8168.877256
602.320988	8165.018253
602.671412	8222.457160
603.021783	8155.777818
603.372100	8127.837223
603.722363	8135.081361
604.072572	8104.141279
604.422728	8119.100903
604.772830	8044.925365
605.122878	8055.168990
605.472872	8052.005666
605.822813	8074.789161
606.172701	8026.043724
606.522534	8099.644570
606.872314	8102.099612
607.222041	8071.318326
607.571714	8123.322869
607.921333	8080.185716
608.270899	8084.112775
608.620411	8173.741970
608.969870	8080.379800
609.319276	8074.206907
609.668627	8091.452695
610.017926	8126.677757
610.367171	8175.428236
610.716362	8154.094072
611.065500	8139.036146
611.414585	8171.793564
611.763616	8160.831575
612.112594	8143.903380
612.461518	8155.200606
612.810389	8212.586581
613.159207	8154.305801
613.507971	8107.763348
613.856682	8224.231646
614.205340	8174.367073
614.553945	8254.362623
614.902496	8156.042478
615.250994	8207.512659
615.599439	8191.743930
615.947830	8204.407308
616.296169	8180.156838
616.644454	8188.454577
616.992686	8188.184875
617.340864	8243.458607
617.688990	8148.299266
618.037063	8243.566992
618.385082	8185.961727
618.733048	8274.507073
619.080961	8212.513484
619.428821	8233.335970
619.776628	8229.938232
620.124382	8183.846962
620.472083	8165.119076
620.819731	8197.458078
621.167326	8086.035975
621.514868	8099.803366
621.862357	7987.206674
622.209793	8003.464396
622.557176	7937.178264
622.904506	7905.073675
623.251783	7838.815270
623.599007	7795.060575
623.946179	7801.036863
624.293297	7751.678926
624.640363	7667.564753
624.987376	7656.968248
625.334336	7600.968590
625.681243	7551.628297
626.028097	7541.286370
626.374899	7515.763008
626.721647	7508.833942
627.068343	7436.964732
627.414987	7415.340703
627.761577	7369.221707
628.108115	7409.099754
628.454600	7300.019267
628.801032	7355.051023
629.147412	7309.877244
629.493739	7300.054555
629.840014	7238.670946
630.186236	7293.226312
630.532405	7174.673497
630.878521	7229.644760
631.224585	7179.840680
631.570597	7110.207222
631.916556	7136.837117
632.262462	7141.283415
632.608316	7101.581808
632.954117	7076.186995
633.299866	7063.780716
633.645562	7057.421300
633.991206	6975.222766
634.336797	6920.571617
634.682336	6877.026130
635.027823	6839.381314
635.373257	6834.209090
635.718639	6768.432115
636.063968	6778.521984
636.409245	6671.336971
636.754470	6678.508013
637.099642	6628.663604
637.444762	6576.094452
637.789829	6583.222643
638.134845	6525.619899
638.479808	6511.534915
638.824719	6512.344020
639.169577	6441.747702
639.514383	6463.454910
639.859137	6391.510083
640.203839	6398.081227
640.548489	6384.147478
