Dividing Wavelength (nm)	Counts (n)	Blue Motor Position (mm): 3.000000	Red Motor Position (mm): 0.000000	
326.493990	2064.896945
326.888308	2064.896945
327.282561	2064.896945
327.676750	2040.989273
328.070874	2041.319468
328.464933	2046.433719
328.858929	2054.678526
329.252859	2067.125135
329.646726	2078.165262
330.040528	2097.551019
330.434265	2114.776641
330.827938	2135.664662
331.221547	2156.487148
331.615091	2173.838800
332.008571	2196.108097
332.401986	2218.594164
332.795338	2237.495970
333.188625	2256.362488
333.581847	2274.455189
333.975006	2292.626028
334.368100	2312.813329
334.761129	2327.657007
335.154095	2340.953050
335.546996	2357.167921
335.939833	2371.021012
336.332606	2383.550800
336.725315	2394.316184
337.117960	2406.435118
337.510540	2417.064391
337.903056	2424.018662
338.295508	2432.248346
338.687896	2440.843513
339.080220	2443.011209
339.472480	2448.241407
339.864676	2453.015379
340.256807	2455.011676
340.648875	2455.440174
341.040879	2456.902109
341.432818	2456.874383
341.824694	2462.207923
342.216506	2459.437809
342.608253	2460.803962
342.999937	2458.565690
343.391557	2455.407407
343.783113	2456.183744
344.174605	2454.126954
344.566033	2451.699638
344.957397	2455.046964
345.348697	2454.305915
345.739934	2446.945830
346.131106	2447.868361
346.522215	2441.914758
346.913260	2442.038267
347.304241	2440.508277
347.695159	2439.648760
348.086012	2437.052566
348.476802	2437.037442
348.867528	2434.552153
349.258191	2430.733479
349.648789	2432.487801
350.039324	2429.470670
350.429796	2430.453695
350.820203	2431.126689
351.210548	2429.531164
351.600828	2430.231884
351.991045	2429.526123
352.381198	2429.324477
352.771288	2427.650814
353.161314	2428.790114
353.551276	2428.951431
353.941175	2429.198448
354.331010	2430.274734
354.720782	2429.851277
355.110490	2429.901689
355.500135	2430.463778
355.889717	2431.020825
356.279235	2429.183324
356.668689	2431.459405
357.058080	2430.650300
357.447408	2429.770619
357.836672	2428.850608
358.225873	2430.312543
358.615010	2432.543253
359.004084	2431.693819
359.393095	2433.753130
359.782043	2432.830599
360.170927	2433.375044
360.559748	2433.871597
360.948505	2434.242122
361.337199	2436.067020
361.725830	2434.292534
362.114398	2435.885538
362.502903	2437.786053
362.891344	2433.846392
363.279722	2438.655652
363.668037	2436.477874
364.056289	2437.339911
364.444478	2438.471650
364.832603	2438.524582
365.220665	2437.909562
365.608665	2439.220262
365.996601	2440.777978
366.384474	2439.260591
366.772284	2440.291507
367.160031	2440.684717
367.547715	2443.608586
367.935336	2440.964501
368.322893	2438.874943
368.710388	2436.407298
369.097820	2441.342587
369.485189	2436.374530
369.872495	2443.240582
370.259738	2443.757300
370.646918	2443.381734
371.034035	2444.541200
371.421090	2443.762341
371.808081	2441.004830
372.195010	2445.183947
372.581875	2440.543565
372.968678	2444.891560
373.355418	2442.318051
373.742096	2445.544389
374.128710	2443.626230
374.515262	2445.902311
374.901751	2444.999945
375.288177	2447.860799
375.674540	2447.381890
376.060841	2447.316355
376.447079	2444.064811
376.833254	2446.915583
377.219367	2446.242589
377.605417	2450.595625
377.991404	2447.878443
378.377329	2449.126129
378.763191	2448.261571
379.148991	2449.168979
379.534727	2445.156220
379.920402	2448.916921
380.306013	2447.331478
380.691563	2450.653599
381.077049	2450.129319
381.462474	2452.249124
381.847835	2447.704524
382.233134	2450.676284
382.618371	2450.025975
383.003545	2448.569082
383.388657	2447.918773
383.773706	2453.111161
384.158693	2451.923969
384.543618	2451.631582
384.928480	2451.382045
385.313280	2450.885492
385.698017	2451.326593
386.082692	2452.619649
386.467305	2452.894392
386.851856	2451.654268
387.236344	2453.741305
387.620770	2451.185440
388.005133	2446.832404
388.389435	2450.736778
388.773674	2448.248968
389.157851	2455.775411
389.541965	2454.252982
389.926018	2457.408745
390.310008	2451.881120
390.693936	2457.973354
391.077802	2454.754577
391.461606	2457.176852
391.845348	2451.618980
392.229027	2455.273816
392.612645	2456.818930
392.996200	2452.508743
393.379694	2454.895730
393.763125	2457.325566
394.146494	2456.581996
394.529801	2455.926646
394.913047	2456.445884
395.296230	2458.404373
395.679351	2456.919753
396.062410	2459.452933
396.445408	2454.484876
396.828343	2458.348920
397.211217	2458.835391
397.594028	2457.260031
397.976778	2456.637448
398.359466	2458.006122
398.742092	2459.057202
399.124656	2457.068467
399.507158	2457.479321
399.889598	2460.377984
400.271977	2458.245576
400.654294	2457.829681
401.036549	2460.224229
401.418742	2460.206585
401.800874	2457.673405
402.182944	2459.158025
402.564952	2459.800772
402.946898	2461.955866
403.328783	2461.426544
403.710606	2460.246914
404.092367	2459.286575
404.474067	2462.943932
404.855705	2459.284054
405.237282	2462.696915
405.618797	2461.350927
406.000250	2462.253294
406.381642	2461.003087
406.762972	2460.478808
407.144240	2457.922943
407.525447	2460.191462
407.906593	2456.471090
408.287677	2463.415280
408.668700	2460.125927
409.049661	2461.865125
409.430560	2462.137347
409.811399	2463.485856
410.192176	2462.321349
410.572891	2462.686833
410.953545	2462.611216
411.334138	2460.443519
411.714669	2461.998715
412.095139	2463.634570
412.475547	2461.623149
412.855894	2466.813017
413.236180	2462.679271
413.616405	2467.899386
413.996568	2464.388222
414.376670	2464.892338
414.756711	2467.347380
415.136691	2462.028962
415.516609	2466.828141
415.896466	2464.196658
416.276262	2464.746144
416.655997	2464.214303
417.035670	2465.562811
417.415283	2468.285034
417.794834	2466.119859
418.174324	2466.750003
418.553753	2465.151957
418.933121	2465.260342
419.312428	2466.457616
419.691674	2467.163377
420.070859	2468.857205
420.449983	2466.535754
420.829045	2465.078860
421.208047	2466.172791
421.586988	2464.244549
421.965867	2467.266721
422.344686	2466.510548
422.723444	2467.982565
423.102141	2466.901238
423.480777	2465.043572
423.859352	2469.252936
424.237866	2466.581124
424.616319	2471.097998
424.994712	2471.075313
425.373044	2466.964252
425.751314	2466.167750
426.129524	2468.194293
426.507673	2465.615743
426.885762	2464.073150
427.263789	2470.067082
427.641756	2469.142030
428.019662	2467.024746
428.397508	2470.888790
428.775292	2469.825107
429.153016	2469.522638
429.530679	2472.204531
429.908282	2470.818214
430.285824	2469.237812
430.663305	2472.267546
431.040726	2473.066569
431.418086	2468.831999
431.795385	2470.518265
432.172624	2474.304172
432.549802	2471.231589
432.926920	2471.511373
433.303977	2472.648153
433.680974	2469.126907
434.057910	2469.499952
434.434786	2470.319140
434.811601	2472.335601
435.188355	2471.176136
435.565050	2472.053297
435.941683	2471.332412
436.318257	2470.581280
436.694770	2471.849130
437.071222	2474.311734
437.447614	2474.402474
437.823946	2472.474233
438.200218	2474.662094
438.576429	2469.930971
438.952580	2472.426342
439.328670	2472.872484
439.704700	2473.167392
440.080670	2472.842237
440.456580	2473.747124
440.832429	2471.733183
441.208218	2473.048925
441.583947	2472.325519
441.959616	2473.595890
442.335224	2473.038842
442.710773	2473.684110
443.086261	2472.406178
443.461689	2473.742083
443.837057	2475.090592
444.212365	2473.003554
444.587612	2472.338122
444.962800	2469.068934
445.337927	2470.286372
445.712995	2469.530199
446.088002	2471.082875
446.462949	2476.948257
446.837837	2474.868781
447.212664	2477.336426
447.587431	2472.459110
447.962139	2475.357773
448.336786	2474.543627
448.711374	2475.662763
449.085901	2476.847434
449.460369	2473.981538
449.834776	2475.554378
450.209124	2472.340643
450.583412	2475.786271
450.957640	2471.226547
451.331808	2478.493371
451.705917	2477.598566
452.079965	2477.293576
452.453954	2477.724595
452.827883	2476.338277
453.201752	2476.892804
453.575562	2477.011272
453.949311	2473.648822
454.323001	2474.558750
454.696632	2476.918010
455.070202	2473.517752
455.443713	2474.513380
455.817164	2475.471199
456.190556	2475.322485
456.563888	2480.484627
456.937160	2476.529841
457.310373	2475.138483
457.683526	2475.274594
458.056619	2475.577063
458.429653	2474.868781
458.802628	2477.137300
459.175542	2475.541775
459.548398	2477.810294
459.921194	2478.611838
460.293930	2479.337764
460.666607	2479.559575
461.039224	2475.362814
461.411782	2479.206694
461.784280	2476.998669
462.156719	2478.959678
462.529099	2478.347177
462.901419	2477.613689
463.273680	2475.922382
463.645882	2475.130921
464.018024	2473.225365
464.390106	2474.919193
464.762130	2477.880871
465.134094	2478.120325
465.505999	2480.910604
465.877845	2477.190233
466.249631	2477.747280
466.621358	2478.062352
466.993026	2477.588484
467.364634	2479.229379
467.736184	2481.344143
468.107674	2477.482619
468.479105	2479.098309
468.850477	2478.321972
469.221790	2479.262147
469.593043	2477.006230
469.964238	2479.431025
470.335373	2479.055459
470.706449	2478.415233
471.077467	2480.802219
471.448425	2478.984883
471.819324	2477.863227
472.190164	2481.056798
472.560945	2482.057467
472.931667	2481.636530
473.302330	2476.557568
473.672934	2478.279122
474.043479	2479.375573
474.413965	2478.261478
474.784393	2481.649133
475.154761	2479.491519
475.525070	2479.289873
475.895321	2480.610655
476.265513	2478.720223
476.635645	2481.765080
477.005719	2479.857003
477.375734	2478.518577
477.745691	2479.093268
478.115588	2479.194091
478.485427	2479.879688
478.855207	2478.979842
479.224928	2479.829277
479.594591	2481.704586
479.964194	2478.495891
480.333739	2479.221817
480.703226	2481.722230
481.072653	2478.193422
481.442022	2480.497229
481.811333	2479.206694
482.180584	2477.326344
482.549777	2479.113433
482.918912	2473.732001
483.287988	2480.963536
483.657005	2481.079483
484.025964	2482.440594
484.394864	2477.475058
484.763706	2484.164669
485.132489	2479.282311
485.501213	2478.992445
485.869879	2480.469503
486.238487	2482.453197
486.607036	2480.595532
486.975527	2483.058136
487.343959	2481.462610
487.712333	2484.875472
488.080648	2482.163331
488.448905	2481.681901
488.817104	2478.511015
489.185244	2480.988742
489.553326	2482.566623
489.921350	2481.593680
490.289315	2481.946561
490.657222	2485.417396
491.025070	2481.704586
491.392861	2483.022848
491.760593	2481.255923
492.128267	2484.409165
492.495883	2482.546458
492.863440	2481.936479
493.230939	2481.152579
493.598380	2483.695842
493.965763	2483.166520
494.333088	2483.070738
494.700354	2478.816005
495.067563	2481.525625
495.434713	2478.994966
495.801805	2482.914463
496.168839	2480.280460
496.535815	2482.170892
496.902733	2481.545789
497.269593	2482.163331
497.636395	2484.772128
498.003139	2486.133239
498.369825	2481.497898
498.736453	2482.226345
499.103023	2480.313227
499.469535	2482.821201
499.835989	2482.775831
500.202385	2480.512353
500.568723	2480.789616
500.935003	2481.034112
501.301226	2479.914976
501.667390	2481.906232
502.033497	2483.574854
502.399546	2481.974287
502.765537	2482.198619
503.131470	2483.053094
503.497345	2482.659884
503.863163	2483.141315
504.228923	2483.685759
504.594625	2484.220122
504.960269	2480.547641
505.325856	2483.133753
505.691385	2483.030409
506.056856	2484.346150
506.422270	2482.904380
506.787625	2484.078969
507.152924	2485.971922
507.518164	2484.666264
507.883347	2483.166520
508.248472	2483.058136
508.613540	2485.006542
508.978550	2480.628299
509.343503	2484.454535
509.708398	2484.318424
510.073236	2484.194916
510.438016	2484.757004
510.802738	2484.467138
511.167403	2485.588795
511.532010	2481.669298
511.896561	2484.104175
512.261053	2482.422950
512.625488	2484.086531
512.989866	2484.126860
513.354186	2487.892602
513.718449	2484.023517
514.082655	2484.842704
514.446803	2482.836325
514.810894	2484.452015
515.174927	2485.805564
515.538904	2484.343630
515.902822	2484.709113
516.266684	2485.132570
516.630488	2487.267499
516.994235	2484.797334
517.357925	2485.999649
517.721558	2487.136429
518.085133	2482.493526
518.448651	2482.843887
518.812112	2478.707620
519.175516	2484.656181
519.538863	2475.501446
519.902152	2485.944196
520.265385	2485.198105
520.628560	2483.980667
520.991678	2484.958651
521.354739	2485.424957
521.717743	2483.365646
522.080690	2487.461583
522.443580	2483.277426
522.806413	2487.012921
523.169189	2483.806747
523.531908	2487.103662
523.894569	2481.250882
524.257174	2484.968733
524.619722	2483.973105
524.982213	2486.728096
525.344647	2483.126191
525.707025	2484.119298
526.069345	2482.501088
526.431608	2484.320945
526.793815	2486.755822
527.155964	2484.814978
527.518057	2486.470997
527.880093	2484.414206
528.242072	2484.893116
528.603995	2483.811788
528.965860	2485.855976
529.327669	2484.421768
529.689421	2486.125678
530.051117	2484.530152
530.412755	2488.137098
530.774337	2486.017293
531.135862	2482.909422
531.497331	2486.377735
531.858743	2486.619711
532.220098	2485.447643
532.581396	2485.722385
532.942638	2486.405462
533.303824	2486.511326
533.664953	2487.295225
534.026025	2485.563589
534.387040	2484.008393
534.747999	2486.085348
535.108902	2487.648106
535.469748	2483.446304
535.830537	2487.176758
536.191270	2484.757004
536.551947	2484.494864
536.912567	2482.586788
537.273131	2483.920173
537.633638	2481.916314
537.994089	2486.523929
538.354483	2485.903867
538.714821	2483.022847
539.075103	2484.983856
539.435328	2486.135760
539.795497	2485.019144
540.155609	2485.306490
540.515665	2486.634834
540.875665	2488.623569
541.235609	2485.898826
541.595496	2485.414875
541.955328	2483.549648
542.315102	2485.064515
542.674821	2484.638537
543.034483	2485.608959
543.394090	2484.323465
543.753640	2487.872438
544.113134	2484.373877
544.472571	2485.127529
544.831953	2484.111737
545.191278	2486.654999
545.550548	2483.763897
545.909761	2483.630307
546.268918	2484.313383
546.628019	2485.467807
546.987064	2487.333034
547.346053	2485.429998
547.704986	2485.041830
548.063863	2485.490492
548.422684	2484.658702
548.781449	2484.734319
549.140158	2484.842704
549.498811	2488.011069
549.857408	2485.437560
550.215949	2486.607108
550.574434	2485.918990
550.932864	2487.338075
551.291237	2489.064670
551.649555	2486.385297
552.007817	2484.255410
552.366022	2486.718013
552.724173	2486.196254
553.082267	2485.104844
553.440305	2487.146511
553.798288	2487.106182
554.156215	2484.691469
554.514086	2484.220122
554.871902	2481.359267
555.229661	2483.123671
555.587365	2482.342292
555.945014	2485.513177
556.302606	2484.769607
556.660143	2485.787920
557.017625	2485.422437
557.375050	2483.831953
557.732421	2485.251037
558.089735	2484.462097
558.446994	2484.396562
558.804197	2484.371356
559.161345	2484.837663
559.518437	2486.516367
559.875474	2484.651140
560.232455	2487.035606
560.589381	2487.257417
560.946251	2489.283961
561.303065	2485.641727
561.659825	2485.493013
562.016528	2486.075266
562.373177	2487.509474
562.729770	2485.505616
563.086307	2487.683394
563.442789	2484.449494
563.799216	2486.503764
564.155587	2486.153404
564.511904	2486.929742
564.868164	2484.225163
565.224370	2485.198105
565.580520	2484.439412
565.936615	2487.423775
566.292654	2486.337406
566.648638	2486.803713
567.004567	2488.774804
567.360441	2485.684577
567.716260	2485.866058
568.072023	2487.804382
568.427732	2486.534011
568.783385	2488.303456
569.138982	2488.437047
569.494525	2485.818167
569.850013	2485.034268
570.205445	2490.357726
570.560823	2487.040647
570.916145	2488.026193
571.271412	2484.169710
571.626625	2490.592140
571.981782	2484.837663
572.336884	2487.305308
572.691931	2483.257261
573.046923	2483.577374
573.401860	2482.233907
573.756743	2487.549804
574.111570	2485.203147
574.466342	2489.709938
574.821059	2486.367653
575.175722	2488.517705
575.530330	2486.155925
575.884882	2487.181799
576.239380	2485.498054
576.593823	2489.848570
576.948211	2486.173569
577.302544	2487.753970
577.656823	2485.790441
578.011047	2487.879999
578.365216	2487.055771
578.719330	2485.271202
579.073389	2486.894454
579.427394	2487.988384
579.781344	2486.652478
580.135239	2488.167345
580.489080	2485.677015
580.842866	2486.075266
581.196597	2486.140801
581.550273	2484.837663
581.903895	2485.629124
582.257463	2486.085348
582.610975	2485.598877
582.964434	2488.033754
583.317837	2485.934114
583.671186	2486.460914
584.024481	2486.458394
584.377721	2485.311531
584.730906	2486.080307
585.084037	2485.261120
585.437113	2486.957468
585.790135	2487.333034
586.143103	2486.934783
586.496016	2488.227839
586.848874	2487.151552
587.201679	2487.184320
587.554428	2485.490492
587.907124	2485.382108
588.259765	2485.810606
588.612352	2486.652478
588.964884	2487.280102
589.317362	2486.223980
589.669786	2490.221615
590.022155	2484.159628
590.374470	2487.355719
590.726731	2485.268682
591.078937	2483.221973
591.431090	2485.132570
591.783188	2486.768425
592.135232	2486.415544
592.487222	2488.774804
592.839157	2487.716162
593.191038	2486.360091
593.542866	2486.183651
593.894639	2486.231542
594.246358	2486.725575
594.598022	2485.979484
594.949633	2486.375215
595.301190	2485.868579
595.652692	2487.779176
596.004141	2486.571820
596.355535	2487.600215
596.706876	2487.333034
597.058162	2486.720534
597.409395	2487.774135
597.760573	2486.397900
598.111698	2488.779845
598.462768	2488.714310
598.813785	2486.972592
599.164748	2486.367653
599.515657	2488.033754
599.866511	2486.521408
600.217312	2486.339927
600.568060	2483.675677
600.918753	2491.807058
601.269392	2486.322283
601.619978	2486.753301
601.970510	2485.452684
602.320988	2485.835811
602.671412	2486.783548
603.021783	2486.644917
603.372100	2486.821357
603.722363	2485.223311
604.072572	2486.551655
604.422728	2487.917808
604.772830	2488.119454
605.122878	2485.639206
605.472872	2484.963692
605.822813	2482.584267
606.172701	2486.970071
606.522534	2484.250368
606.872314	2486.889413
607.222041	2486.433188
607.571714	2487.635503
607.921333	2480.935810
608.270899	2484.973774
608.620411	2481.444966
608.969870	2489.571306
609.319276	2486.178610
609.668627	2487.796820
610.017926	2486.450832
610.367171	2486.528970
610.716362	2487.388487
611.065500	2487.897643
611.414585	2486.723054
611.763616	2489.198261
612.112594	2485.155256
612.461518	2484.731799
612.810389	2487.204485
613.159207	2487.149032
613.507971	2486.407982
613.856682	2486.110554
614.205340	2486.062663
614.553945	2485.490492
614.902496	2486.859166
615.250994	2486.980153
615.599439	2486.065184
615.947830	2487.665750
616.296169	2486.791110
616.644454	2486.866727
616.992686	2490.435864
617.340864	2488.454691
617.688990	2486.307159
618.037063	2487.368322
618.385082	2486.387818
618.733048	2489.614156
619.080961	2483.970584
619.428821	2488.091728
619.776628	2485.404793
620.124382	2485.949237
620.472083	2486.884371
620.819731	2487.282622
621.167326	2488.184989
621.514868	2485.656850
621.862357	2485.548466
622.209793	2486.226501
622.557176	2486.077787
622.904506	2486.599546
623.251783	2486.246665
623.599007	2485.878661
623.946179	2484.797334
624.293297	2486.508805
624.640363	2484.283136
624.987376	2484.825060
625.334336	2483.842035
625.681243	2483.411016
626.028097	2481.608804
626.374899	2485.994608
626.721647	2486.342447
627.068343	2485.646768
627.414987	2486.468476
627.761577	2487.227170
628.108115	2485.614001
628.454600	2484.444453
628.801032	2485.840853
629.147412	2485.558548
629.493739	2485.228352
629.840014	2487.615339
630.186236	2485.624083
630.532405	2485.205667
630.878521	2487.597695
631.224585	2485.084679
631.570597	2487.771614
631.916556	2485.253558
632.262462	2483.315234
632.608316	2485.417396
632.954117	2487.905205
633.299866	2485.243476
633.645562	2484.310862
633.991206	2487.234732
634.336797	2485.467807
634.682336	2485.520739
635.027823	2488.731954
635.373257	2484.691469
635.718639	2484.494864
636.063968	2487.222129
636.409245	2486.574340
636.754470	2485.727427
637.099642	2485.427478
637.444762	2486.105513
637.789829	2488.671460
638.134845	2486.113075
638.479808	2488.648775
638.824719	2485.460245
639.169577	2489.795638
639.514383	2487.602736
639.859137	2487.370843
640.203839	2486.050060
640.548489	2483.363125
640.893086	2485.644247
641.237632	2485.855976
641.582125	2486.947386
641.926566	2485.916470
642.270955	2482.067549
642.615292	2482.339771
642.959576	2486.826398
643.303809	2481.646613
643.647990	2486.692807
643.992118	2486.249186
644.336195	2487.383446
