Dividing Wavelength (nm)	Counts (n)	Blue Motor Position (mm): 48.300000	Red Motor Position (mm): 0.000000	
326.493990	2280.600356
326.888308	2280.600356
327.282561	2280.600356
327.676750	2241.314644
328.070874	2236.727194
328.464933	2238.912534
328.858929	2241.765827
329.252859	2248.576426
329.646726	2257.748806
330.040528	2268.615013
330.434265	2280.088679
330.827938	2300.026442
331.221547	2315.613690
331.615091	2332.867039
332.008571	2354.281861
332.401986	2371.772144
332.795338	2390.467263
333.188625	2411.362846
333.581847	2431.308171
333.975006	2451.732406
334.368100	2469.005919
334.761129	2485.871099
335.154095	2505.597134
335.546996	2531.783408
335.939833	2573.246898
336.332606	2584.831470
336.725315	2600.885024
337.117960	2613.205604
337.510540	2622.688015
337.903056	2633.244191
338.295508	2641.940181
338.687896	2651.863693
339.080220	2659.264107
339.472480	2665.411794
339.864676	2667.985303
340.256807	2672.817249
340.648875	2678.584329
341.040879	2682.095492
341.432818	2684.162365
341.824694	2686.773683
342.216506	2690.176462
342.608253	2687.509692
342.999937	2691.998839
343.391557	2686.509022
343.783113	2689.319466
344.174605	2687.852490
344.566033	2686.947603
344.957397	2684.578261
345.348697	2683.706141
345.739934	2684.059022
346.131106	2680.570543
346.522215	2679.791685
346.913260	2679.126253
347.304241	2678.206242
347.695159	2674.758093
348.086012	2673.989317
348.476802	2669.175015
348.867528	2666.767864
349.258191	2665.520178
349.648789	2665.373985
350.039324	2661.585558
350.429796	2662.417348
350.820203	2663.957421
351.210548	2658.976761
351.600828	2660.012718
351.991045	2662.099756
352.381198	2659.884168
352.771288	2660.778973
353.161314	2660.428613
353.551276	2659.337203
353.941175	2657.698828
354.331010	2657.973571
354.720782	2658.744868
355.110490	2655.561379
355.500135	2655.964671
355.889717	2660.352996
356.279235	2658.273520
356.668689	2657.141781
357.058080	2658.167656
357.447408	2658.245793
357.836672	2656.642707
358.225873	2660.670588
358.615010	2657.242604
359.004084	2660.431134
359.393095	2660.927687
359.782043	2660.058088
360.170927	2664.829540
360.559748	2663.002122
360.948505	2664.542195
361.337199	2664.617812
361.725830	2664.912719
362.114398	2665.966321
362.502903	2665.273162
362.891344	2665.600837
363.279722	2664.832061
363.668037	2665.968841
364.056289	2670.468071
364.444478	2668.524706
364.832603	2670.556291
365.220665	2670.216013
365.608665	2669.031342
365.996601	2672.121569
366.384474	2672.552588
366.772284	2672.963442
367.160031	2674.695078
367.547715	2672.368586
367.935336	2674.115346
368.322893	2671.148627
368.710388	2671.824141
369.097820	2674.127949
369.485189	2674.097702
369.872495	2678.400327
370.259738	2680.835204
370.646918	2682.823939
371.034035	2686.254444
371.421090	2690.143694
371.808081	2693.024714
372.195010	2700.702391
372.581875	2709.446272
372.968678	2719.558827
373.355418	2728.832030
373.742096	2741.177815
374.128710	2755.028386
374.515262	2769.662855
374.901751	2783.198353
375.288177	2800.108904
375.674540	2821.233859
376.060841	2843.651870
376.447079	2865.969058
376.833254	2892.036865
377.219367	2912.022519
377.605417	2947.797068
377.991404	2970.535192
378.377329	3010.438445
378.763191	3029.216743
379.148991	3073.077302
379.534727	3114.399640
379.920402	3147.522542
380.306013	3170.903413
380.691563	3235.402456
381.077049	3258.561517
381.462474	3299.750264
381.847835	3355.981815
382.233134	3397.014287
382.618371	3424.430602
383.003545	3490.976353
383.388657	3513.964015
383.773706	3574.210844
384.158693	3605.014815
384.543618	3635.019763
384.928480	3696.887323
385.313280	3750.668873
385.698017	3772.817182
386.082692	3861.387735
386.467305	3866.012994
386.851856	3900.756626
387.236344	3983.464317
387.620770	4010.857947
388.005133	4056.245975
388.389435	4104.956124
388.773674	4115.151858
389.157851	4187.409237
389.541965	4259.127212
389.926018	4218.044328
390.310008	4322.396213
390.693936	4379.182291
391.077802	4407.231271
391.461606	4406.923760
391.845348	4470.999346
392.229027	4534.026372
392.612645	4533.194582
392.996200	4634.879696
393.379694	4688.157130
393.763125	4799.198626
394.146494	4831.313297
394.529801	4886.902100
394.913047	4968.372188
395.296230	4915.477881
395.679351	5023.726577
396.062410	5076.152057
396.445408	5047.208272
396.828343	5112.087922
397.211217	5165.133463
397.594028	5046.540319
397.976778	5165.990459
398.359466	5210.655083
398.742092	5233.070573
399.124656	5155.446886
399.507158	5275.312922
399.889598	5336.744423
400.271977	5456.849913
400.654294	5461.147497
401.036549	5504.148539
401.418742	5422.565026
401.800874	5626.802332
402.182944	5689.695768
402.564952	5794.473630
402.946898	5851.733576
403.328783	5683.535478
403.710606	5708.121185
404.092367	6030.956678
404.474067	6054.526592
404.855705	5952.765861
405.237282	5887.971910
405.618797	6145.559748
406.000250	6118.773577
406.381642	6331.590928
406.762972	6352.579772
407.144240	6409.411220
407.525447	6389.014712
407.906593	6401.710858
408.287677	6569.931641
408.668700	6490.291492
409.049661	6591.628767
409.430560	6625.666638
409.811399	6484.471480
410.192176	6745.257931
410.572891	6773.906808
410.953545	6954.299457
411.334138	6687.574528
411.714669	6859.871084
412.095139	6653.246791
412.475547	6901.284163
412.855894	6973.889381
413.236180	7163.003226
413.616405	6813.933569
413.996568	7032.641508
414.376670	7091.822134
414.756711	6984.193499
415.136691	7082.231339
415.516609	7291.348483
415.896466	7265.321005
416.276262	7475.451421
416.655997	7466.387427
417.035670	7633.415977
417.415283	7978.404820
417.794834	8048.867548
418.174324	7902.570742
418.553753	7830.520051
418.933121	8123.471583
419.312428	8224.236687
419.691674	7999.028180
420.070859	8475.336560
420.449983	8158.305957
420.829045	8531.810086
421.208047	8293.991133
421.586988	8610.936037
421.965867	8632.887741
422.344686	8722.348058
422.723444	8809.804515
423.102141	8130.529199
423.480777	8902.672651
423.859352	8428.917616
424.237866	9042.889825
424.616319	8904.991582
424.994712	9347.796453
425.373044	8873.565029
425.751314	9371.578097
426.129524	9249.251978
426.507673	9320.667484
426.885762	9478.692534
427.263789	9406.646883
427.641756	9346.314354
428.019662	9424.358978
428.397508	9699.172438
428.775292	9349.124798
429.153016	9744.300848
429.530679	9573.201565
429.908282	9578.595600
430.285824	9317.194129
430.663305	9998.478345
431.040726	9451.372000
431.418086	9430.166387
431.795385	9771.760012
432.172624	9865.671667
432.549802	9769.688098
432.926920	9839.127472
433.303977	9710.847751
433.680974	9910.195138
434.057910	10020.218321
434.434786	10090.938148
434.811601	9902.325897
435.188355	10466.025200
435.565050	10228.617100
435.941683	10138.403132
436.318257	10610.156829
436.694770	10801.168669
437.071222	10843.584938
437.447614	10665.538945
437.823946	10601.906981
438.200218	10678.794659
438.576429	10529.720178
438.952580	10786.874477
439.328670	10793.352360
439.704700	10603.169790
440.080670	10589.954405
440.456580	11101.939031
440.832429	10895.092927
441.208218	10497.161886
441.583947	10782.493715
441.959616	10973.871038
442.335224	10796.399737
442.710773	10893.341126
443.086261	11133.443722
443.461689	10382.631912
443.837057	11085.164592
444.212365	11303.411265
444.587612	10943.079670
444.962800	11159.171251
445.337927	10883.387368
445.712995	10578.942005
446.088002	11604.267327
446.462949	11315.000878
446.837837	11277.383788
447.212664	11184.503049
447.587431	11801.424333
447.962139	12569.033267
448.336786	14868.159864
448.711374	15339.164950
449.085901	13142.701452
449.460369	12800.916262
449.834776	12243.135274
450.209124	13195.507538
450.583412	13616.801806
450.957640	14534.359862
451.331808	13555.662692
451.705917	12648.512099
452.079965	11875.630118
452.453954	12795.960808
452.827883	12455.619909
453.201752	12743.515164
453.575562	12307.089872
453.949311	12714.899054
454.323001	12704.506715
454.696632	12939.880709
455.070202	13221.822361
455.443713	13394.055903
455.817164	13906.327874
456.190556	13861.499414
456.563888	14223.242532
456.937160	14354.221791
457.310373	13725.589906
457.683526	13848.576416
458.056619	13357.137013
458.429653	13585.405500
458.802628	12925.583997
459.175542	13356.925284
459.548398	14300.346980
459.921194	14672.172405
460.293930	14741.866357
460.666607	15563.130812
461.039224	16641.370606
461.411782	17369.461935
461.784280	17116.824510
462.156719	17250.432731
462.529099	16909.688540
462.901419	15881.444390
463.273680	15632.623118
463.645882	15542.583069
464.018024	15265.443116
464.390106	15488.486447
464.762130	16206.808021
465.134094	17008.442223
465.505999	19093.153423
465.877845	22370.465511
466.249631	25155.171170
466.621358	24741.569702
466.993026	23340.373429
467.364634	22742.449733
467.736184	21255.833628
468.107674	20474.807663
468.479105	20607.586614
468.850477	20064.694674
469.221790	19672.883594
469.593043	18977.292584
469.964238	18406.361746
470.335373	18025.855454
470.706449	18554.990085
471.077467	18141.045819
471.448425	20036.466733
471.819324	24202.947620
472.190164	25961.717976
472.560945	22260.863265
472.931667	19992.573407
473.302330	19391.035203
473.672934	19071.163910
474.043479	19253.946066
474.413965	19054.777639
474.784393	18643.522829
475.154761	19443.851372
475.525070	19332.154527
475.895321	19074.067614
476.265513	19688.672488
476.635645	20277.708630
477.005719	20021.779332
477.375734	20205.209276
477.745691	20692.030982
478.115588	21248.166033
478.485427	21820.359680
478.855207	22913.546495
479.224928	24719.307967
479.594591	26960.239483
479.964194	26815.681876
480.333739	27064.833343
480.703226	26656.731775
481.072653	26372.319957
481.442022	27031.405452
481.811333	27953.646740
482.180584	27817.689341
482.549777	26869.609619
482.918912	26552.820991
483.287988	26688.972474
483.657005	26297.176518
484.025964	26093.455929
484.394864	25964.808204
484.763706	25594.563180
485.132489	25084.065695
485.501213	25257.209165
485.869879	25176.132287
486.238487	25030.342118
486.607036	25148.073225
486.975527	24911.789303
487.343959	25198.656163
487.712333	25096.466933
488.080648	24762.142651
488.448905	25274.971670
488.817104	25050.259717
489.185244	25762.647852
489.553326	25697.185949
489.921350	26764.889731
490.289315	29140.087338
490.657222	30816.452474
491.025070	31339.875478
491.392861	31070.977811
491.760593	30208.761542
492.128267	29281.148905
492.495883	28215.552326
492.863440	27351.911931
493.230939	26502.545564
493.598380	26323.057802
493.965763	25944.797343
494.333088	25426.097901
494.700354	25427.973210
495.067563	25249.148360
495.434713	25007.293963
495.801805	25196.286820
496.168839	24954.800428
496.535815	24844.179868
496.902733	25058.794390
497.269593	24775.584888
497.636395	24922.882362
498.003139	24845.838408
498.369825	24580.779580
498.736453	24796.946777
499.103023	24679.883623
499.469535	24671.671584
499.835989	24897.774895
500.202385	24917.349696
500.568723	24460.132165
500.935003	24622.414469
501.301226	24333.710109
501.667390	25172.290928
502.033497	25359.421079
502.399546	25103.141421
502.765537	24632.637929
503.131470	25011.704972
503.497345	25175.280332
503.863163	24411.948817
504.228923	24946.371618
504.594625	25212.849531
504.960269	24785.337000
505.325856	25246.549645
505.691385	24635.690348
506.056856	25251.474852
506.422270	25244.339099
506.787625	24756.514203
507.152924	25183.734347
507.518164	25246.214408
507.883347	25050.748709
508.248472	24721.286620
508.613540	25485.858259
508.978550	25289.117148
509.343503	25302.241792
509.708398	25500.681772
510.073236	25675.786251
510.438016	25885.891461
510.802738	25541.885643
511.167403	25814.501161
511.532010	25561.347017
511.896561	26293.269624
512.261053	26261.699398
512.625488	26103.066889
512.989866	26001.434707
513.354186	25810.054863
513.718449	25945.757683
514.082655	26318.586298
514.446803	26026.763984
514.810894	26528.636056
515.174927	26028.845981
515.538904	26055.375053
515.902822	26569.061068
516.266684	26316.685783
516.630488	26214.748611
516.994235	26148.018858
517.357925	26503.445410
517.721558	26655.768914
518.085133	26777.694261
518.448651	26669.730390
518.812112	26435.137775
519.175516	26652.673646
519.538863	26810.030743
519.902152	26615.921114
520.265385	26863.393877
520.628560	26676.528386
520.991678	26635.266542
521.354739	26690.447012
521.717743	26797.947097
522.080690	26562.376498
522.443580	26890.911015
522.806413	26847.612545
523.169189	26975.052914
523.531908	27024.620059
523.894569	26663.464236
524.257174	26749.461279
524.619722	26886.603349
524.982213	26606.554650
525.344647	26610.995907
525.707025	26780.363552
526.069345	26724.220222
526.431608	26698.548146
526.793815	26862.912447
527.155964	26386.125157
527.518057	26552.866362
527.880093	26462.944780
528.242072	26686.189757
528.603995	26405.808342
528.965860	26192.738934
529.327669	26237.653094
529.689421	26219.794806
530.051117	26070.150675
530.412755	26247.863951
530.774337	26016.074218
531.135862	25919.190802
531.497331	26096.054644
531.858743	25718.061367
532.220098	26149.972305
532.581396	25847.422416
532.942638	25726.288530
533.303824	25873.444852
533.664953	25844.763207
534.026025	25510.149059
534.387040	25756.225422
534.747999	25795.322091
535.108902	25962.481711
535.469748	25470.326464
535.830537	25624.061492
536.191270	25757.785659
536.551947	25576.478041
536.912567	25193.650297
537.273131	25672.872464
537.633638	25318.539842
537.994089	25543.105602
538.354483	25018.669326
538.714821	25523.142633
539.075103	25565.760548
539.435328	25349.094276
539.795497	24966.546316
540.155609	25266.613437
540.515665	25590.326090
540.875665	24814.666433
541.235609	25169.800598
541.595496	25084.189203
541.955328	25445.455932
542.315102	25379.540324
542.674821	24881.877617
543.034483	24769.825370
543.394090	24929.307313
543.753640	24754.235601
544.113134	25369.999941
544.472571	24954.220695
544.831953	25266.517655
545.191278	24932.332005
545.550548	24795.855367
545.909761	25003.036708
546.268918	25252.205819
546.628019	25230.785957
546.987064	24906.012141
547.346053	24635.092971
547.704986	24732.538475
548.063863	24889.472115
548.422684	24926.759009
548.781449	24407.946141
549.140158	24832.565050
549.498811	24401.397682
549.857408	24184.234857
550.215949	24551.167842
550.574434	24265.644450
550.932864	24447.584733
551.291237	24645.356761
551.649555	24461.941940
552.007817	24537.478589
552.366022	24384.862697
552.724173	24391.375868
553.082267	24366.477609
553.440305	24850.778739
553.798288	24087.893365
554.156215	24565.736777
554.514086	24708.338416
554.871902	24111.730461
555.229661	24375.420616
555.587365	24212.223343
555.945014	24132.648729
556.302606	24329.440252
556.660143	24341.113044
557.017625	24557.292844
557.375050	24086.625515
557.732421	24471.822601
558.089735	24310.062057
558.446994	24343.888199
558.804197	24390.085333
559.161345	24261.959367
559.518437	24082.837088
559.875474	24231.994748
560.232455	24412.057202
560.589381	24211.139495
560.946251	24233.446600
561.303065	24522.236660
561.659825	24617.486742
562.016528	24225.368151
562.373177	23962.724036
562.729770	24326.095446
563.086307	24155.654035
563.442789	24340.581202
563.799216	24191.738614
564.155587	24173.340923
564.511904	24153.511544
564.868164	24118.041986
565.224370	24076.200409
565.580520	24036.884450
565.936615	24135.655777
566.292654	23849.802190
566.648638	24070.425767
567.004567	23903.321600
567.360441	23843.311704
567.716260	23565.745773
568.072023	23865.298697
568.427732	23660.922758
568.783385	23404.403645
569.138982	23673.661754
569.494525	23708.465880
569.850013	23460.191574
570.205445	23585.446603
570.560823	23396.093303
570.916145	23165.100072
571.271412	23362.509136
571.626625	23104.949024
571.981782	23206.984498
572.336884	23021.601107
572.691931	23149.926198
573.046923	22894.044791
573.401860	22772.837808
573.756743	22813.681237
574.111570	22698.208567
574.466342	22613.202110
574.821059	22696.713865
575.175722	22403.918608
575.530330	22352.214014
575.884882	22354.858099
576.239380	22270.910285
576.593823	22173.459740
576.948211	22146.945791
577.302544	22004.026559
577.656823	21864.338706
578.011047	21979.244247
578.365216	21844.905058
578.719330	21713.285573
579.073389	21586.787899
579.427394	21750.075913
579.781344	21502.020897
580.135239	21396.325545
580.489080	21327.392807
580.842866	21123.508381
581.196597	21341.157678
581.550273	21287.219852
581.903895	21161.233856
582.257463	21483.222434
582.610975	21013.598624
582.964434	21357.813650
583.317837	21001.101604
583.671186	21095.116603
584.024481	21086.266857
584.377721	20848.538645
584.730906	20946.286618
585.084037	20920.909449
585.437113	20855.830674
585.790135	21060.763660
586.143103	20495.035293
586.496016	20532.478463
586.848874	20770.645256
587.201679	20673.736635
587.554428	20386.017820
587.907124	20718.469314
588.259765	20469.809359
588.612352	20534.250429
588.964884	20115.098651
589.317362	20277.869947
589.669786	20339.777837
590.022155	20314.438477
590.374470	20582.811864
590.726731	20324.838377
591.078937	20138.421549
591.431090	20207.114832
591.783188	19986.213991
592.135232	19937.241702
592.487222	20041.102074
592.839157	20043.857065
593.191038	19922.844167
593.542866	19813.793927
593.894639	19516.895171
594.246358	19743.454707
594.598022	19620.402662
594.949633	19375.919304
595.301190	19365.370689
595.652692	19535.635660
596.004141	19736.881043
596.355535	19076.484847
596.706876	19096.309185
597.058162	18994.293875
597.409395	19247.669829
597.760573	19277.979767
598.111698	19048.077946
598.462768	19004.986162
598.813785	18978.351226
599.164748	18760.407022
599.515657	18834.743877
599.866511	18632.026478
600.217312	18981.615373
600.568060	18488.751844
600.918753	18805.520308
601.269392	18703.207570
601.619978	18501.427825
601.970510	18670.044339
602.320988	18623.007853
602.671412	18829.496035
603.021783	18767.084030
603.372100	18459.122462
603.722363	18622.284448
604.072572	18569.798474
604.422728	18721.827072
604.772830	18469.819791
605.122878	18436.565819
605.472872	18405.119102
605.822813	18395.573677
606.172701	18383.548004
606.522534	18550.037151
606.872314	18591.672041
607.222041	18433.581456
607.571714	18635.136869
607.921333	18461.327967
608.270899	18542.495585
608.620411	18690.019911
608.969870	18498.357763
609.319276	18482.203385
609.668627	18504.654164
610.017926	18644.954517
610.367171	18759.383668
610.716362	18819.859870
611.065500	18631.184605
611.414585	18769.909597
611.763616	18751.327904
612.112594	18694.367907
612.461518	18667.412857
612.810389	18866.125059
613.159207	18719.198110
613.507971	18637.791037
613.856682	18876.126708
614.205340	18784.171021
614.553945	18957.720304
614.902496	18698.400830
615.250994	18893.957270
615.599439	18850.497482
615.947830	18848.516309
616.296169	18918.406866
616.644454	18879.113592
616.992686	18850.850363
617.340864	19079.106248
617.688990	18811.368046
618.037063	18988.098297
618.385082	18861.489718
618.733048	19120.781466
619.080961	19015.857411
619.428821	19042.084014
619.776628	18910.025947
620.124382	18840.319393
620.472083	18903.641326
620.819731	18907.999404
621.167326	18586.628367
621.514868	18640.246079
621.862357	18439.535059
622.209793	18422.339683
622.557176	18256.846164
622.904506	18090.427593
623.251783	18026.644394
623.599007	17764.511956
623.946179	17714.483545
624.293297	17637.169889
624.640363	17371.871607
624.987376	17387.789050
625.334336	17195.595059
625.681243	17041.340793
626.028097	17066.549083
626.374899	16974.716904
626.721647	16842.174887
627.068343	16687.570260
627.414987	16614.523941
627.761577	16578.262921
628.108115	16597.139522
628.454600	16337.426837
628.801032	16440.513392
629.147412	16379.833023
629.493739	16385.821914
629.840014	16191.014086
630.186236	16287.136287
630.532405	16049.493774
630.878521	16245.637508
631.224585	16157.986966
631.570597	15980.770244
631.916556	16012.312743
632.262462	15976.974255
632.608316	15898.450722
632.954117	15847.028432
633.299866	15829.190309
633.645562	15744.488843
633.991206	15526.859710
634.336797	15391.847528
634.682336	15362.739906
635.027823	15212.122832
635.373257	15081.476289
635.718639	15006.584907
636.063968	14938.310040
