Dividing Wavelength (nm)	Counts (n)	Blue Motor Position (mm): 20.000000	Red Motor Position (mm): 0.000000	
326.493990	2102.922368
326.888308	2102.922368
327.282561	2102.922368
327.676750	2079.891857
328.070874	2079.932186
328.464933	2085.530387
328.858929	2097.737541
329.252859	2111.547782
329.646726	2124.110338
330.040528	2137.234982
330.434265	2159.431182
330.827938	2176.301403
331.221547	2199.437779
331.615091	2218.289174
332.008571	2239.174674
332.401986	2261.043200
332.795338	2281.356529
333.188625	2298.521658
333.581847	2317.504123
333.975006	2337.628409
334.368100	2354.438136
334.761129	2373.297093
335.154095	2387.142622
335.546996	2429.011925
335.939833	2493.397542
336.332606	2506.040756
336.725315	2515.906294
337.117960	2525.996163
337.510540	2530.780218
337.903056	2543.476364
338.295508	2548.091541
338.687896	2556.379198
339.080220	2566.317832
339.472480	2569.511403
339.864676	2570.998544
340.256807	2576.692527
340.648875	2577.501632
341.040879	2579.576067
341.432818	2574.736559
341.824694	2577.509194
342.216506	2578.267888
342.608253	2576.682445
342.999937	2578.651015
343.391557	2579.147569
343.783113	2575.238154
344.174605	2571.290931
344.566033	2570.968297
344.957397	2568.546023
345.348697	2568.906465
345.739934	2567.537792
346.131106	2563.630898
346.522215	2565.155847
346.913260	2562.710887
347.304241	2562.438665
347.695159	2557.528581
348.086012	2557.246276
348.476802	2553.546069
348.867528	2553.530946
349.258191	2551.055739
349.648789	2554.818961
350.039324	2548.968702
350.429796	2552.595812
350.820203	2547.998279
351.210548	2548.923331
351.600828	2548.154555
351.991045	2548.734288
352.381198	2546.511139
352.771288	2547.920142
353.161314	2545.114739
353.551276	2545.402085
353.941175	2544.855120
354.331010	2545.639019
354.720782	2547.330327
355.110490	2549.109854
355.500135	2550.125646
355.889717	2547.206818
356.279235	2547.491643
356.668689	2550.717982
357.058080	2549.356870
357.447408	2546.422919
357.836672	2546.226314
358.225873	2547.569781
358.615010	2545.933927
359.004084	2550.634803
359.393095	2552.255534
359.782043	2551.948023
360.170927	2550.934752
360.559748	2551.983312
360.948505	2555.529763
361.337199	2551.738816
361.725830	2554.246790
362.114398	2554.892057
362.502903	2553.772921
362.891344	2556.439692
363.279722	2555.081101
363.668037	2559.061092
364.056289	2554.675288
364.444478	2556.926163
364.832603	2557.105124
365.220665	2559.724003
365.608665	2558.196534
365.996601	2559.479507
366.384474	2557.992367
366.772284	2559.774415
367.160031	2561.274158
367.547715	2561.639642
367.935336	2559.335834
368.322893	2560.563355
368.710388	2563.172152
369.097820	2563.920764
369.485189	2564.331618
369.872495	2562.209292
370.259738	2560.921277
370.646918	2561.251473
371.034035	2563.807338
371.421090	2562.922615
371.808081	2561.160732
372.195010	2565.453275
372.581875	2565.549057
372.968678	2565.170970
373.355418	2563.698953
373.742096	2565.581824
374.128710	2565.962431
374.515262	2568.346897
374.901751	2566.111145
375.288177	2565.594427
375.674540	2565.317163
376.060841	2567.300858
376.447079	2567.676423
376.833254	2566.824468
377.219367	2563.487225
377.605417	2566.398491
377.991404	2565.672565
378.377329	2566.199365
378.763191	2563.381360
379.148991	2570.665828
379.534727	2571.795046
379.920402	2570.121383
380.306013	2568.997206
380.691563	2571.288410
381.077049	2566.320353
381.462474	2570.562484
381.847835	2571.023750
382.233134	2573.425859
382.618371	2573.720767
383.003545	2572.218503
383.388657	2572.858730
383.773706	2572.208421
384.158693	2573.327557
384.543618	2574.562640
384.928480	2575.308730
385.313280	2576.009451
385.698017	2575.064234
386.082692	2577.564647
386.467305	2574.751683
386.851856	2575.767475
387.236344	2573.340160
387.620770	2576.264029
388.005133	2579.140007
388.389435	2576.891653
388.773674	2577.365521
389.157851	2574.615572
389.541965	2575.959039
389.926018	2579.611355
390.310008	2578.225038
390.693936	2581.073290
391.077802	2578.351067
391.461606	2580.465831
391.845348	2577.796540
392.229027	2579.008937
392.612645	2579.215625
392.996200	2578.681262
393.379694	2582.094123
393.763125	2581.176633
394.146494	2581.234607
394.529801	2579.661767
394.913047	2582.817529
395.296230	2582.358784
395.679351	2584.660071
396.062410	2584.649988
396.445408	2581.045563
396.828343	2583.422467
397.211217	2579.999524
397.594028	2583.286356
397.976778	2578.721592
398.359466	2581.854669
398.742092	2580.269226
399.124656	2583.412385
399.507158	2585.048240
399.889598	2585.801892
400.271977	2584.997828
400.654294	2585.015472
401.036549	2585.506985
401.418742	2584.551686
401.800874	2588.874475
402.182944	2588.607294
402.564952	2587.778024
402.946898	2586.603436
403.328783	2585.267530
403.710606	2590.220463
404.092367	2586.956316
404.474067	2586.709300
404.855705	2587.878848
405.237282	2588.756008
405.618797	2589.749116
406.000250	2591.004363
406.381642	2594.356730
406.762972	2589.544949
407.144240	2587.722572
407.525447	2591.125351
407.906593	2588.846749
408.287677	2589.789445
408.668700	2591.957141
409.049661	2591.503437
409.430560	2591.115268
409.811399	2593.056112
410.192176	2594.018973
410.572891	2592.398242
410.953545	2592.347830
411.334138	2591.790783
411.714669	2591.891606
412.095139	2593.630804
412.475547	2593.356061
412.855894	2594.691967
413.236180	2592.340269
413.616405	2594.253387
413.996568	2593.955958
414.376670	2597.439396
414.756711	2592.635176
415.136691	2595.067533
415.516609	2590.371698
415.896466	2595.745568
416.276262	2596.635332
416.655997	2593.114086
417.035670	2591.596698
417.415283	2592.625094
417.794834	2591.390011
418.174324	2592.428489
418.553753	2594.792790
418.933121	2598.898810
419.312428	2597.946032
419.691674	2595.725403
420.070859	2595.823706
420.449983	2597.809921
420.829045	2598.747575
421.208047	2600.360744
421.586988	2595.664910
421.965867	2599.284458
422.344686	2598.876125
422.723444	2600.622884
423.102141	2600.534664
423.480777	2598.193048
423.859352	2600.237236
424.237866	2601.689088
424.616319	2597.787235
424.994712	2601.744541
425.373044	2602.263780
425.751314	2602.331836
426.129524	2601.109356
426.507673	2599.566763
426.885762	2603.755962
427.263789	2602.326794
427.641756	2603.511466
428.019662	2602.984665
428.397508	2604.008019
428.775292	2606.019440
429.153016	2605.033894
429.530679	2607.511621
429.908282	2607.695623
430.285824	2605.674121
430.663305	2604.620519
431.040726	2604.933071
431.418086	2604.391147
431.795385	2607.947681
432.172624	2606.919286
432.549802	2607.279728
432.926920	2610.231324
433.303977	2610.425408
433.680974	2606.639502
434.057910	2608.245109
434.434786	2608.287959
434.811601	2606.589090
435.188355	2611.859616
435.565050	2611.340377
435.941683	2609.258381
436.318257	2612.315841
436.694770	2609.767537
437.071222	2608.976076
437.447614	2607.640171
437.823946	2608.615634
438.200218	2609.525562
438.576429	2610.929523
438.952580	2613.245934
439.328670	2611.065635
439.704700	2611.158896
440.080670	2612.623351
440.456580	2613.303907
440.832429	2614.014710
441.208218	2613.661829
441.583947	2612.444390
441.959616	2613.097220
442.335224	2613.717282
442.710773	2614.382714
443.086261	2615.416150
443.461689	2616.610904
443.837057	2615.963116
444.212365	2616.129474
444.587612	2615.368259
444.962800	2614.528907
445.337927	2615.179216
445.712995	2618.634927
446.088002	2617.082252
446.462949	2618.909670
446.837837	2618.771038
447.212664	2617.934207
447.587431	2620.404372
447.962139	2625.662296
448.336786	2630.814355
448.711374	2626.511730
449.085901	2624.311266
449.460369	2625.584158
449.834776	2624.482666
450.209124	2629.118007
450.583412	2628.029117
450.957640	2627.794704
451.331808	2627.429220
451.705917	2627.555249
452.079965	2627.003242
452.453954	2625.193468
452.827883	2626.332769
453.201752	2628.071967
453.575562	2630.849643
453.949311	2631.346197
454.323001	2628.934004
454.696632	2632.525827
455.070202	2636.836013
455.443713	2638.449182
455.817164	2634.539767
456.190556	2634.466671
456.563888	2636.543626
456.937160	2634.917854
457.310373	2638.106384
457.683526	2641.521766
458.056619	2640.195942
458.429653	2641.945222
458.802628	2641.736015
459.175542	2648.334885
459.548398	2651.314207
459.921194	2652.539207
460.293930	2655.826040
460.666607	2660.254693
461.039224	2664.015394
461.411782	2667.052689
461.784280	2667.345076
462.156719	2664.721156
462.529099	2667.682833
462.901419	2666.596465
463.273680	2665.736948
463.645882	2669.258194
464.018024	2669.298523
464.390106	2674.548885
464.762130	2682.745801
465.134094	2691.376257
465.505999	2703.878318
465.877845	2717.159238
466.249631	2721.587892
466.621358	2720.062942
466.993026	2721.005638
467.364634	2720.052860
467.736184	2713.998434
468.107674	2713.723692
468.479105	2709.000130
468.850477	2711.881150
469.221790	2711.251006
469.593043	2705.783874
469.964238	2707.747404
470.335373	2708.506097
470.706449	2718.734598
471.077467	2726.359344
471.448425	2744.336098
471.819324	2755.315731
472.190164	2752.258272
472.560945	2742.352404
472.931667	2737.500294
473.302330	2731.405539
473.672934	2734.140365
474.043479	2738.432907
474.413965	2736.902917
474.784393	2736.164388
475.154761	2742.760738
475.525070	2745.067066
475.895321	2743.642940
476.265513	2749.896491
476.635645	2762.086001
477.005719	2764.427617
477.375734	2767.762340
477.745691	2776.274328
478.115588	2786.795217
478.485427	2797.212761
478.855207	2818.640185
479.224928	2833.844305
479.594591	2846.323682
479.964194	2845.597756
480.333739	2854.409692
480.703226	2863.816486
481.072653	2873.523227
481.442022	2883.693755
481.811333	2894.766650
482.180584	2894.358316
482.549777	2898.242525
482.918912	2903.989441
483.287988	2910.079154
483.657005	2914.369176
484.025964	2919.551483
484.394864	2932.174532
484.763706	2939.627878
485.132489	2943.076027
485.501213	2954.045578
485.869879	2968.551498
486.238487	2978.359063
486.607036	2994.621825
486.975527	3003.680778
487.343959	3022.096113
487.712333	3039.014226
488.080648	3055.869324
488.448905	3075.444124
488.817104	3097.133688
489.185244	3132.162146
489.553326	3179.430525
489.921350	3243.097777
490.289315	3316.837255
490.657222	3356.057432
491.025070	3394.392887
491.392861	3408.140113
491.760593	3414.333171
492.128267	3419.328954
492.495883	3425.070828
492.863440	3437.333435
493.230939	3452.472020
493.598380	3470.136223
493.965763	3499.435409
494.333088	3524.537835
494.700354	3556.871796
495.067563	3593.246241
495.434713	3634.818117
495.801805	3687.598997
496.168839	3731.363774
496.535815	3771.466153
496.902733	3826.482786
497.269593	3870.240001
497.636395	3923.245213
498.003139	3999.386801
498.369825	4044.646280
498.736453	4119.141931
499.103023	4168.373840
499.469535	4236.855394
499.835989	4308.462464
500.202385	4371.323132
500.568723	4450.847334
500.935003	4541.255387
501.301226	4616.161892
501.667390	4734.417279
502.033497	4836.452753
502.399546	4894.368049
502.765537	4949.901400
503.131470	5063.123195
503.497345	5185.658521
503.863163	5206.549063
504.228923	5341.727603
504.594625	5478.058047
504.960269	5537.641965
505.325856	5698.447211
505.691385	5769.005721
506.056856	5897.587911
506.422270	6050.738165
506.787625	6136.382328
507.152924	6279.016735
507.518164	6423.045021
507.883347	6468.370035
508.248472	6628.676207
508.613540	6811.612118
508.978550	6982.877758
509.343503	7098.292455
509.708398	7267.347549
510.073236	7484.775035
510.438016	7639.263715
510.802738	7726.742858
511.167403	7971.858882
511.532010	8159.382243
511.896561	8360.065536
512.261053	8652.465062
512.625488	8757.429447
512.989866	8906.992920
513.354186	9051.600939
513.718449	9233.571469
514.082655	9519.541003
514.446803	9659.087703
514.810894	9933.656668
515.174927	10112.458833
515.538904	10281.909658
515.902822	10605.309760
516.266684	10691.919303
516.630488	10977.944290
516.994235	11147.995013
517.357925	11469.227418
517.721558	11721.453989
518.085133	12006.919408
518.448651	12244.791293
518.812112	12410.715831
519.175516	12658.314623
519.538863	12972.630565
519.902152	13190.983103
520.265385	13542.585939
520.628560	13784.556283
520.991678	13961.825937
521.354739	14268.388585
521.717743	14588.716103
522.080690	14796.257886
522.443580	15193.072311
522.806413	15455.774400
523.169189	15697.409507
523.531908	15999.057029
523.894569	16201.174531
524.257174	16515.561050
524.619722	16869.699587
524.982213	17121.759800
525.344647	17354.189759
525.707025	17635.786093
526.069345	18060.778047
526.431608	18310.410944
526.793815	18689.296506
527.155964	18789.123955
527.518057	19118.941445
527.880093	19305.398603
528.242072	19780.532394
528.603995	19928.323901
528.965860	20205.327743
529.327669	20521.314828
529.689421	20748.764128
530.051117	21012.088799
530.412755	21341.165240
530.774337	21645.666055
531.135862	21828.165907
531.497331	22192.036392
531.858743	22414.517634
532.220098	22844.833047
532.581396	22989.299913
532.942638	23098.385442
533.303824	23537.653944
533.664953	23801.422236
534.026025	23928.131638
534.387040	24432.612507
534.747999	24683.057030
535.108902	25037.450145
535.469748	25054.196858
535.830537	25380.871189
536.191270	25763.784632
536.551947	25845.678177
536.912567	26277.258919
537.273131	26632.567004
537.633638	26592.260458
537.994089	27047.897587
538.354483	27079.079644
538.714821	27687.655298
539.075103	28168.041972
539.435328	28295.991497
539.795497	28481.067378
540.155609	28733.687159
540.515665	29292.380596
540.875665	29210.920591
541.235609	29680.196562
541.595496	29929.937844
541.955328	30619.376126
542.315102	30454.928646
542.674821	30566.171788
543.034483	30837.688334
543.394090	31075.189695
543.753640	31306.419860
544.113134	32236.389237
544.472571	31777.034257
544.831953	32906.187183
545.191278	32592.405603
545.550548	32634.456388
545.909761	33213.614389
546.268918	33590.314610
546.628019	34057.947164
546.987064	33968.045747
547.346053	33658.723068
547.704986	34545.595620
548.063863	34435.136377
548.422684	34803.122964
548.781449	34891.408692
549.140158	35429.080517
549.498811	35525.916041
549.857408	35313.023073
550.215949	36172.474269
550.574434	36330.839596
550.932864	36342.101534
551.291237	37123.765205
551.649555	37017.061622
552.007817	37399.728049
552.366022	37323.185690
552.724173	37653.721544
553.082267	38191.287505
553.440305	38623.881520
553.798288	38221.516784
554.156215	38689.668577
554.514086	39048.490347
554.871902	39007.261270
555.229661	39210.366838
555.587365	39242.970500
555.945014	39516.967294
556.302606	39638.534719
556.660143	40003.541984
557.017625	40229.673022
557.375050	40210.796421
557.732421	40683.389471
558.089735	40826.500267
558.446994	40931.323499
558.804197	41489.132214
559.161345	41588.571494
559.518437	41069.559500
559.875474	41514.448888
560.232455	41824.928512
560.589381	42122.911116
560.946251	42000.678259
561.303065	42734.392996
561.659825	42690.653424
562.016528	42545.400138
562.373177	42418.761312
562.729770	43002.544572
563.086307	42690.595451
563.442789	43235.992844
563.799216	43405.221858
564.155587	43349.494423
564.511904	43490.334179
564.868164	43693.089387
565.224370	44016.839849
565.580520	43882.571237
565.936615	44200.539495
566.292654	44036.389443
566.648638	44401.041307
567.004567	44461.015914
567.360441	44608.346156
567.716260	44574.870374
568.072023	44948.785358
568.427732	45026.212439
568.783385	44672.673800
569.138982	45132.149767
569.494525	45190.473396
569.850013	45043.511159
570.205445	45122.853879
570.560823	45148.755328
570.916145	45131.282688
571.271412	45228.103089
571.626625	45070.123410
571.981782	45188.051122
572.336884	44971.654552
572.691931	45352.828797
573.046923	45045.308330
573.401860	44963.311442
573.756743	45001.389798
574.111570	45170.548236
574.466342	45095.034272
574.821059	45272.409790
575.175722	44866.009611
575.530330	44956.833560
575.884882	44730.397532
576.239380	44758.191933
576.593823	44792.728878
576.948211	44771.734993
577.302544	44359.159401
577.656823	44436.435248
578.011047	44700.753027
578.365216	44487.035830
578.719330	44323.649513
579.073389	44224.142177
579.427394	44364.326583
579.781344	44358.262075
580.135239	44058.570520
580.489080	44182.091393
580.842866	43704.391654
581.196597	44188.798648
581.550273	44171.900700
581.903895	44089.313997
582.257463	44519.722671
582.610975	43946.997183
582.964434	44275.609837
583.317837	43944.622799
583.671186	43812.731091
584.024481	44078.520887
584.377721	43608.929844
584.730906	43937.557622
585.084037	44019.783883
585.437113	43766.793577
585.790135	43818.190661
586.143103	43451.754229
586.496016	43608.077889
586.848874	43651.325948
587.201679	43686.944221
587.554428	43190.055330
587.907124	43426.122482
588.259765	43194.478943
588.612352	43458.842091
588.964884	42862.476112
589.317362	43173.079244
589.669786	43130.282369
590.022155	42910.757763
590.374470	43362.813152
590.726731	42915.599791
591.078937	42446.782566
591.431090	42578.250817
591.783188	42233.965215
592.135232	41938.026799
592.487222	42220.467526
592.839157	42302.361070
593.191038	41992.388082
593.542866	41753.384457
593.894639	41195.288397
594.246358	41482.041831
594.598022	41483.067706
594.949633	41086.754875
595.301190	41059.038612
595.652692	40915.022928
596.004141	41249.322005
596.355535	40277.616916
596.706876	40244.594837
597.058162	40085.435528
597.409395	40565.769269
597.760573	40662.105719
598.111698	40249.877967
598.462768	40268.807499
598.813785	40316.262401
599.164748	39785.030650
599.515657	40166.572899
599.866511	39664.657978
600.217312	40289.166199
600.568060	39264.748285
600.918753	40018.153768
601.269392	39975.346810
601.619978	39642.928085
601.970510	39839.457467
602.320988	40033.380573
602.671412	40355.008709
603.021783	40107.596440
603.372100	39771.348958
603.722363	39870.400070
604.072572	39957.186054
604.422728	39972.347324
604.772830	39797.066405
605.122878	39903.021376
605.472872	39849.673366
605.822813	40112.183890
606.172701	39942.022263
606.522534	40198.564062
606.872314	40472.830557
607.222041	40221.879398
607.571714	40602.264703
607.921333	40063.269575
608.270899	40346.831958
608.620411	40708.607843
608.969870	40485.090643
609.319276	40507.619560
609.668627	40558.152086
610.017926	41031.644982
610.367171	41193.967615
610.716362	41287.125617
611.065500	41220.957952
611.414585	41426.959663
611.763616	41718.126627
612.112594	41657.693275
612.461518	41876.149156
612.810389	42182.200127
613.159207	42047.440002
613.507971	42131.352528
613.856682	42600.091616
614.205340	42478.720796
614.553945	43199.767113
614.902496	42648.637927
615.250994	43126.234322
615.599439	43194.317626
615.947830	43386.410793
616.296169	43467.671672
616.644454	43565.437289
616.992686	43743.604269
617.340864	44271.188746
617.688990	43967.857477
618.037063	44600.605464
618.385082	44555.081324
618.733048	44857.117016
619.080961	44867.322832
619.428821	44877.508483
619.776628	44980.395913
620.124382	44837.506928
620.472083	44965.045599
620.819731	45092.773314
621.167326	44756.155307
621.514868	44752.984422
621.862357	44312.049818
622.209793	44365.211306
622.557176	44004.912479
622.904506	43747.483437
623.251783	43407.339143
623.599007	43182.317159
623.946179	42988.857839
624.293297	42938.390848
624.640363	42348.734644
624.987376	42322.626508
625.334336	42080.764550
625.681243	41731.432753
626.028097	41700.394368
626.374899	41557.452451
626.721647	41533.905222
627.068343	41432.840169
627.414987	41180.734586
627.761577	40973.175159
628.108115	41300.971146
628.454600	40747.293658
628.801032	40931.459611
629.147412	40884.967569
629.493739	40877.678061
629.840014	40529.457838
630.186236	40875.777546
630.532405	40470.420886
630.878521	40685.809225
631.224585	40559.949257
631.570597	40273.019383
631.916556	40429.590060
632.262462	40371.982274
632.608316	40385.724460
632.954117	40299.886213
633.299866	40273.538622
633.645562	40199.201768
633.991206	39714.966173
634.336797	39267.805745
634.682336	39260.853993
635.027823	39020.595122
635.373257	38841.412349
635.718639	38601.740772
636.063968	38482.068821
636.409245	37893.904799
636.754470	37948.276164
637.099642	37700.909265
637.444762	37199.344704
637.789829	37377.347847
638.134845	37010.747577
638.479808	36953.749771
638.824719	36863.079578
639.169577	36480.854252
