Dividing Wavelength (nm)	Counts (n)	Blue Motor Position (mm): 5.700000	Red Motor Position (mm): 0.000000	
326.493990	2142.702113
326.888308	2142.702113
327.282561	2142.702113
327.676750	2110.506784
328.070874	2110.733636
328.464933	2111.406630
328.858929	2116.478031
329.252859	2125.531943
329.646726	2138.825466
330.040528	2150.697383
330.434265	2170.889725
330.827938	2185.967816
331.221547	2204.862061
331.615091	2223.095914
332.008571	2242.264902
332.401986	2264.138468
332.795338	2280.764193
333.188625	2302.476443
333.581847	2316.001859
333.975006	2338.770230
334.368100	2356.280678
334.761129	2374.199459
335.154095	2390.046327
335.546996	2407.624830
335.939833	2422.423137
336.332606	2437.234047
336.725315	2449.254678
337.117960	2461.187090
337.510540	2466.351752
337.903056	2480.179637
338.295508	2485.092241
338.687896	2495.139261
339.080220	2503.222751
339.472480	2509.378000
339.864676	2512.740449
340.256807	2520.587005
340.648875	2519.041892
341.040879	2521.189423
341.432818	2523.699918
341.824694	2527.508510
342.216506	2525.497089
342.608253	2524.763601
342.999937	2527.316946
343.391557	2527.324508
343.783113	2526.190248
344.174605	2524.443488
344.566033	2525.592871
344.957397	2519.893847
345.348697	2521.348220
345.739934	2518.653723
346.131106	2516.438136
346.522215	2513.562157
346.913260	2511.523011
347.304241	2515.079545
347.695159	2509.138545
348.086012	2506.444048
348.476802	2504.709891
348.867528	2506.096209
349.258191	2502.408605
349.648789	2501.591938
350.039324	2498.262256
350.429796	2502.582524
350.820203	2498.292503
351.210548	2498.108500
351.600828	2494.635145
351.991045	2495.126658
352.381198	2493.072388
352.771288	2497.019611
353.161314	2496.664210
353.551276	2491.837305
353.941175	2493.682367
354.331010	2491.895278
354.720782	2494.466267
355.110490	2494.012563
355.500135	2494.758654
355.889717	2492.722028
356.279235	2497.027173
356.668689	2494.148674
357.058080	2494.589775
357.447408	2492.359064
357.836672	2491.607933
358.225873	2493.352172
358.615010	2490.955103
359.004084	2497.511124
359.393095	2496.437358
359.782043	2501.780981
360.170927	2498.347955
360.559748	2500.714777
360.948505	2499.913233
361.337199	2501.355003
361.725830	2498.617657
362.114398	2501.496156
362.502903	2500.351814
362.891344	2498.602533
363.279722	2503.570591
363.668037	2500.762668
364.056289	2502.665703
364.444478	2502.302740
364.832603	2501.254180
365.220665	2504.742659
365.608665	2504.593945
365.996601	2505.387927
366.384474	2507.157372
366.772284	2505.229130
367.160031	2503.560508
367.547715	2506.612927
367.935336	2504.233502
368.322893	2508.803308
368.710388	2507.177536
369.097820	2508.531086
369.485189	2507.598473
369.872495	2507.406909
370.259738	2506.194511
370.646918	2509.491426
371.034035	2506.537310
371.421090	2506.965808
371.808081	2509.383041
372.195010	2510.386231
372.581875	2509.909842
372.968678	2508.793226
373.355418	2508.858761
373.742096	2508.135355
374.128710	2509.473782
374.515262	2507.853051
374.901751	2511.462517
375.288177	2510.701303
375.674540	2510.764317
376.060841	2510.338340
376.447079	2510.038391
376.833254	2511.885974
377.219367	2507.853051
377.605417	2512.422857
377.991404	2507.661487
378.377329	2509.554440
378.763191	2509.383041
379.148991	2514.661129
379.534727	2514.862775
379.920402	2515.439987
380.306013	2513.657939
380.691563	2514.323372
381.077049	2514.381345
381.462474	2516.080214
381.847835	2516.554082
382.233134	2517.637930
382.618371	2515.505522
383.003545	2511.339009
383.388657	2514.416633
383.773706	2518.003414
384.158693	2516.995183
384.543618	2516.392765
384.928480	2516.264216
385.313280	2518.073990
385.698017	2515.969308
386.082692	2516.039885
386.467305	2518.661285
386.851856	2515.629031
387.236344	2519.130112
387.620770	2519.228414
388.005133	2517.506860
388.389435	2518.235307
388.773674	2522.084228
389.157851	2518.051305
389.541965	2519.190606
389.926018	2517.307735
390.310008	2517.655574
390.693936	2516.090296
391.077802	2520.682787
391.461606	2522.434588
391.845348	2518.409227
392.229027	2524.224198
392.612645	2522.694208
392.996200	2519.059536
393.379694	2520.753363
393.763125	2520.939886
394.146494	2520.773528
394.529801	2523.326873
394.913047	2523.352078
395.296230	2521.930473
395.679351	2523.924249
396.062410	2522.106913
396.445408	2523.830988
396.828343	2526.336441
397.211217	2518.426871
397.594028	2518.943589
397.976778	2520.317304
398.359466	2522.021214
398.742092	2517.655574
399.124656	2525.018180
399.507158	2523.710000
399.889598	2523.410052
400.271977	2522.205216
400.654294	2526.613705
401.036549	2523.231091
401.418742	2525.436595
401.800874	2524.884589
402.182944	2526.071781
402.564952	2524.715710
402.946898	2525.731503
403.328783	2524.803931
403.710606	2524.803931
404.092367	2525.015659
404.474067	2526.948942
404.855705	2528.063037
405.237282	2523.972140
405.618797	2523.984743
406.000250	2526.356606
406.381642	2525.355937
406.762972	2527.039682
407.144240	2526.800228
407.525447	2529.582944
407.906593	2527.866432
408.287677	2528.247039
408.668700	2526.913653
409.049661	2529.398942
409.430560	2526.170083
409.811399	2528.310053
410.192176	2528.405835
410.572891	2528.504137
410.953545	2529.202337
411.334138	2528.879703
411.714669	2529.204858
412.095139	2530.066895
412.475547	2526.212933
412.855894	2527.455577
413.236180	2528.791483
413.616405	2527.382481
413.996568	2528.521782
414.376670	2529.048582
414.756711	2528.967924
415.136691	2531.561597
415.516609	2531.465815
415.896466	2533.041176
416.276262	2533.320960
416.655997	2527.069929
417.035670	2527.697553
417.415283	2530.407173
417.794834	2528.390712
418.174324	2529.585465
418.553753	2530.235774
418.933121	2530.523120
419.312428	2532.181659
419.691674	2533.194931
420.070859	2532.892462
420.449983	2533.474715
420.829045	2531.727955
421.208047	2533.567977
421.586988	2529.167049
421.965867	2531.470857
422.344686	2532.340456
422.723444	2531.990095
423.102141	2529.683768
423.480777	2533.517565
423.859352	2533.283151
424.237866	2535.055117
424.616319	2532.428676
424.994712	2532.252235
425.373044	2533.089067
425.751314	2533.860363
426.129524	2532.121165
426.507673	2532.884900
426.885762	2534.843388
427.263789	2535.155940
427.641756	2532.327853
428.019662	2535.821372
428.397508	2535.796167
428.775292	2533.605785
429.153016	2533.588141
429.530679	2536.078471
429.908282	2534.921526
430.285824	2534.510672
430.663305	2536.201979
431.040726	2535.130734
431.418086	2536.837165
431.795385	2536.670807
432.172624	2534.422452
432.549802	2534.104859
432.926920	2535.876825
433.303977	2534.407329
433.680974	2533.467153
434.057910	2535.841537
434.434786	2537.303472
434.811601	2539.771116
435.188355	2536.204500
435.565050	2536.396064
435.941683	2536.267514
436.318257	2536.491846
436.694770	2532.837009
437.071222	2534.019160
437.447614	2529.746782
437.823946	2531.732997
438.200218	2537.031249
438.576429	2538.553678
438.952580	2538.072247
439.328670	2537.784902
439.704700	2537.174922
440.080670	2537.787422
440.456580	2537.230375
440.832429	2538.306661
441.208218	2539.251877
441.583947	2539.309851
441.959616	2540.043339
442.335224	2536.753986
442.710773	2538.546116
443.086261	2539.025026
443.461689	2537.913451
443.837057	2539.970242
444.212365	2539.173740
444.587612	2541.512835
444.962800	2539.183822
445.337927	2539.849254
445.712995	2538.619213
446.088002	2539.017464
446.462949	2539.922351
446.837837	2540.812115
447.212664	2539.307330
447.587431	2539.498894
447.962139	2538.026877
448.336786	2541.948895
448.711374	2540.585263
449.085901	2541.606096
449.460369	2540.744059
449.834776	2539.362783
450.209124	2541.500232
450.583412	2540.542413
450.957640	2539.433359
451.331808	2538.604089
451.705917	2540.943185
452.079965	2543.163813
452.453954	2541.656508
452.827883	2540.837320
453.201752	2539.037628
453.575562	2539.541744
453.949311	2540.736497
454.323001	2543.695655
454.696632	2542.145500
455.070202	2539.365303
455.443713	2540.799512
455.817164	2539.067875
456.190556	2538.283976
456.563888	2538.402443
456.937160	2537.038811
457.310373	2542.107691
457.683526	2541.699358
458.056619	2543.022661
458.429653	2540.640715
458.802628	2541.986703
459.175542	2541.038967
459.548398	2540.174409
459.921194	2540.643236
460.293930	2539.582073
460.666607	2542.609286
461.039224	2542.773123
461.411782	2542.342105
461.784280	2544.298073
462.156719	2541.447300
462.529099	2544.154400
462.901419	2542.211035
463.273680	2543.302445
463.645882	2544.575336
464.018024	2543.753628
464.390106	2542.352187
464.762130	2545.578526
465.134094	2543.143648
465.505999	2542.568957
465.877845	2540.822197
466.249631	2545.485264
466.621358	2541.336395
466.993026	2543.327650
467.364634	2548.825029
467.736184	2543.068031
468.107674	2543.068031
468.479105	2544.638350
468.850477	2543.483926
469.221790	2543.985521
469.593043	2543.506611
469.964238	2545.208001
470.335373	2543.781354
470.706449	2547.126160
471.077467	2545.364277
471.448425	2545.404606
471.819324	2544.721529
472.190164	2544.335881
472.560945	2542.926879
472.931667	2546.821170
473.302330	2544.683721
473.672934	2546.100285
474.043479	2546.133053
474.413965	2545.452497
474.784393	2539.433359
475.154761	2542.798329
475.525070	2541.056611
475.895321	2540.733977
476.265513	2539.720705
476.635645	2543.627599
477.005719	2543.894780
477.375734	2544.441745
477.745691	2543.541899
478.115588	2545.576005
478.485427	2545.442414
478.855207	2545.762528
479.224928	2542.793288
479.594591	2546.755635
479.964194	2546.548948
480.333739	2547.975594
480.703226	2544.499719
481.072653	2548.134391
481.442022	2547.133722
481.811333	2545.785213
482.180584	2545.059287
482.549777	2547.085831
482.918912	2546.717826
483.287988	2547.579864
483.657005	2544.603062
484.025964	2547.441232
484.394864	2545.260933
484.763706	2546.412837
485.132489	2546.155738
485.501213	2548.215049
485.869879	2546.332178
486.238487	2543.380582
486.607036	2547.438711
486.975527	2548.386448
487.343959	2544.920655
487.712333	2546.304452
488.080648	2548.237734
488.448905	2546.019627
488.817104	2545.180274
489.185244	2548.537683
489.553326	2546.488454
489.921350	2547.148845
490.289315	2546.518701
490.657222	2546.243958
491.025070	2549.180430
491.392861	2548.449463
491.760593	2545.870913
492.128267	2549.707231
492.495883	2546.503577
492.863440	2547.950388
493.230939	2546.140614
493.598380	2551.443908
493.965763	2542.954605
494.333088	2543.854451
494.700354	2544.340922
495.067563	2544.565254
495.434713	2542.851261
495.801805	2549.059442
496.168839	2547.307641
496.535815	2546.962322
496.902733	2548.600697
497.269593	2550.347457
497.636395	2549.165307
498.003139	2546.707744
498.369825	2547.000131
498.736453	2548.159596
499.103023	2546.080120
499.469535	2549.341747
499.835989	2544.285470
500.202385	2549.455173
500.568723	2550.128167
500.935003	2548.774617
501.301226	2546.712785
501.667390	2545.737322
502.033497	2547.531973
502.399546	2548.804864
502.765537	2548.641027
503.131470	2547.700851
503.497345	2547.300080
503.863163	2549.860986
504.228923	2548.570450
504.594625	2549.450132
504.960269	2548.036088
505.325856	2547.395862
505.691385	2548.641027
506.056856	2546.067517
506.422270	2549.457693
506.787625	2550.614638
507.152924	2546.067517
507.518164	2548.633465
507.883347	2548.688917
508.248472	2547.373176
508.613540	2548.691438
508.978550	2549.394679
509.343503	2548.383928
509.708398	2550.531459
510.073236	2549.823177
510.438016	2548.958619
510.802738	2549.341747
511.167403	2550.281922
511.532010	2547.660522
511.896561	2549.775286
512.261053	2547.766386
512.625488	2544.716488
512.989866	2543.942671
513.354186	2546.019627
513.718449	2545.492826
514.082655	2546.122970
514.446803	2548.620862
514.810894	2551.451470
515.174927	2552.048847
515.538904	2550.115564
515.902822	2549.371994
516.266684	2548.202446
516.630488	2549.253527
516.994235	2549.866027
517.357925	2551.169165
517.721558	2550.944834
518.085133	2550.415513
518.448651	2550.884340
518.812112	2548.116747
519.175516	2549.462735
519.538863	2548.391489
519.902152	2548.721685
520.265385	2550.228990
520.628560	2549.291335
520.991678	2549.251006
521.354739	2549.561037
521.717743	2546.337219
522.080690	2551.320400
522.443580	2550.496171
522.806413	2547.784030
523.169189	2549.127498
523.531908	2549.828218
523.894569	2549.490461
524.257174	2551.781665
524.619722	2547.138763
524.982213	2551.539690
525.344647	2550.090358
525.707025	2550.317210
526.069345	2548.948537
526.431608	2549.606408
526.793815	2547.925183
527.155964	2550.380225
527.518057	2550.428116
527.880093	2551.418702
528.242072	2551.191850
528.603995	2553.034392
528.965860	2551.408620
529.327669	2551.234700
529.689421	2549.825698
530.051117	2552.626059
530.412755	2549.571119
530.774337	2548.252858
531.135862	2549.346788
531.497331	2549.969371
531.858743	2547.927703
532.220098	2544.141797
532.581396	2547.988197
532.942638	2547.247147
533.303824	2547.978115
533.664953	2550.271840
534.026025	2550.415513
534.387040	2552.462221
534.747999	2549.949206
535.108902	2551.569937
535.469748	2551.519525
535.830537	2550.954916
536.191270	2549.452652
536.551947	2549.402241
536.912567	2549.866027
537.273131	2551.910215
537.633638	2552.540359
537.994089	2551.985832
538.354483	2548.671273
538.714821	2553.581357
539.075103	2550.831408
539.435328	2549.215718
539.795497	2550.382745
540.155609	2552.999104
540.515665	2551.161603
540.875665	2550.254196
541.235609	2549.755122
541.595496	2552.552962
541.955328	2552.182437
542.315102	2552.439536
542.674821	2552.563044
543.034483	2552.119423
543.394090	2551.423743
543.753640	2549.591284
544.113134	2548.187323
544.472571	2550.632282
544.831953	2549.392158
545.191278	2552.137067
545.550548	2552.207643
545.909761	2550.327292
546.268918	2552.852911
546.628019	2553.629248
546.987064	2551.459032
547.346053	2550.944834
547.704986	2549.334185
548.063863	2550.939793
548.422684	2549.871068
548.781449	2550.493651
549.140158	2553.624207
549.498811	2554.075390
549.857408	2552.888199
550.215949	2549.147662
550.574434	2543.362938
550.932864	2548.235214
551.291237	2549.702189
551.649555	2549.772766
552.007817	2550.470965
552.366022	2550.904505
552.724173	2552.247972
553.082267	2552.550441
553.440305	2553.125133
553.798288	2552.247972
554.156215	2547.133722
554.514086	2553.490617
554.871902	2551.229659
555.229661	2552.182437
555.587365	2550.571788
555.945014	2553.021789
556.302606	2549.926521
556.660143	2551.307797
557.017625	2550.977601
557.375050	2548.923331
557.732421	2550.793599
558.089735	2554.700493
558.446994	2552.875596
558.804197	2552.734443
559.161345	2550.667570
559.518437	2550.342416
559.875474	2550.675132
560.232455	2550.982642
560.589381	2553.021789
560.946251	2555.202088
561.303065	2551.269988
561.659825	2551.635472
562.016528	2553.316697
562.373177	2549.792930
562.729770	2552.426933
563.086307	2549.803012
563.442789	2553.162942
563.799216	2553.397355
564.155587	2551.264947
564.511904	2551.000287
564.868164	2551.033054
565.224370	2551.655637
565.580520	2551.297715
565.936615	2551.753939
566.292654	2553.137736
566.648638	2553.152859
567.004567	2552.719320
567.360441	2551.073383
567.716260	2552.071532
568.072023	2551.501881
568.427732	2546.798485
568.783385	2548.308310
569.138982	2545.258412
569.494525	2548.182282
569.850013	2545.192877
570.205445	2550.586912
570.560823	2550.924669
570.916145	2554.120761
571.271412	2551.138918
571.626625	2552.555483
571.981782	2553.435164
572.336884	2550.390307
572.691931	2548.756973
573.046923	2551.426264
573.401860	2547.355532
573.756743	2554.766028
574.111570	2550.637323
574.466342	2554.362736
574.821059	2553.346944
575.175722	2551.517005
575.530330	2550.816284
575.884882	2549.999617
576.239380	2551.474155
576.593823	2551.436346
576.948211	2551.824515
577.302544	2550.236552
577.656823	2551.418702
578.011047	2552.956254
578.365216	2552.033723
578.719330	2554.463559
579.073389	2551.643034
579.427394	2551.552293
579.781344	2552.033723
580.135239	2551.577499
580.489080	2553.175544
580.842866	2553.558672
581.196597	2556.873231
581.550273	2552.578168
581.903895	2553.997252
582.257463	2551.474155
582.610975	2551.285112
582.964434	2554.713096
583.317837	2550.710420
583.671186	2553.132695
584.024481	2552.676470
584.377721	2550.526418
584.730906	2552.300904
585.084037	2553.291491
585.437113	2552.323589
585.790135	2552.081614
586.143103	2554.279557
586.496016	2554.629917
586.848874	2545.760007
587.201679	2549.092210
587.554428	2549.981973
587.907124	2548.988866
588.259765	2549.165307
588.612352	2550.710420
588.964884	2552.379042
589.317362	2552.565565
589.669786	2551.665719
590.022155	2550.929710
590.374470	2552.116902
590.726731	2550.743188
591.078937	2553.926676
591.431090	2553.115051
591.783188	2553.737633
592.135232	2554.103117
592.487222	2549.795451
592.839157	2553.117571
593.191038	2552.086655
593.542866	2551.572457
593.894639	2550.279402
594.246358	2548.940975
594.598022	2551.222097
594.949633	2553.228477
595.301190	2553.556152
595.652692	2550.866696
596.004141	2550.750749
596.355535	2554.894578
596.706876	2552.666388
597.058162	2553.780483
597.409395	2551.688404
597.760573	2553.452808
598.111698	2552.618497
598.462768	2550.879299
598.813785	2551.199412
599.164748	2551.796789
599.515657	2552.033723
599.866511	2552.946172
600.217312	2550.564227
600.568060	2553.712427
600.918753	2553.127653
601.269392	2551.728733
601.619978	2552.053888
601.970510	2554.453477
602.320988	2554.773590
602.671412	2553.198230
603.021783	2552.721841
603.372100	2552.797458
603.722363	2552.126984
604.072572	2554.556821
604.422728	2552.920966
604.772830	2548.928372
605.122878	2548.968702
605.472872	2549.291335
605.822813	2546.490974
606.172701	2550.710420
606.522534	2551.343085
606.872314	2552.326110
607.222041	2550.133208
607.571714	2553.891388
607.921333	2554.763508
608.270899	2552.331151
608.620411	2552.749567
608.969870	2554.846687
609.319276	2555.260062
609.668627	2555.476831
610.017926	2556.948848
610.367171	2559.237532
610.716362	2558.544373
611.065500	2557.034548
611.414585	2556.109496
611.763616	2555.769218
612.112594	2555.766697
612.461518	2553.024310
612.810389	2553.467931
613.159207	2551.569937
613.507971	2553.573796
613.856682	2552.968857
614.205340	2553.530946
614.553945	2553.750236
614.902496	2551.965668
615.250994	2554.713096
615.599439	2551.385935
615.947830	2550.370142
616.296169	2553.972047
616.644454	2555.030689
616.992686	2550.612118
617.340864	2552.381563
617.688990	2553.414999
618.037063	2552.941131
618.385082	2551.602704
618.733048	2551.272509
619.080961	2551.673281
619.428821	2552.943651
619.776628	2555.454146
620.124382	2556.086811
620.472083	2548.759494
620.819731	2553.357026
621.167326	2549.891233
621.514868	2551.257385
621.862357	2550.113043
622.209793	2552.905843
622.557176	2553.964485
622.904506	2550.271840
623.251783	2547.264792
623.599007	2548.547765
623.946179	2547.773948
624.293297	2548.867878
624.640363	2551.640513
624.987376	2551.305276
625.334336	2551.517005
625.681243	2553.268806
626.028097	2550.876778
626.374899	2554.307283
626.721647	2551.396017
627.068343	2551.771583
627.414987	2551.501881
627.761577	2547.332847
628.108115	2553.006666
628.454600	2553.646892
628.801032	2552.321069
629.147412	2552.721841
629.493739	2553.346944
629.840014	2552.472303
630.186236	2551.771583
630.532405	2555.590257
630.878521	2551.590102
631.224585	2551.194371
631.570597	2551.637993
631.916556	2553.914073
632.262462	2551.547252
632.608316	2552.323589
632.954117	2552.303425
633.299866	2550.052550
633.645562	2552.316028
633.991206	2552.253013
634.336797	2551.557334
634.682336	2552.101779
635.027823	2550.433157
635.373257	2551.716130
635.718639	2552.215205
636.063968	2554.093034
636.409245	2554.808878
636.754470	2552.046326
637.099642	2552.862993
637.444762	2553.339382
637.789829	2554.476162
638.134845	2550.566747
638.479808	2551.388455
638.824719	2552.873075
639.169577	2550.566747
639.514383	2550.576830
639.859137	2551.196892
640.203839	2555.340720
640.548489	2553.044474
640.893086	2550.433157
641.237632	2548.341078
641.582125	2548.701520
641.926566	2546.571633
642.270955	2552.253013
642.615292	2554.841646
642.959576	2552.454659
643.303809	2551.552293
643.647990	2551.217056
643.992118	2549.137580
644.336195	2552.132026
