Dividing Wavelength (nm)	Counts (n)	Blue Motor Position (mm): 42.700000	Red Motor Position (mm): 0.000000	
326.493990	2257.010277
326.888308	2257.010277
327.282561	2257.010277
327.676750	2218.775645
328.070874	2216.940665
328.464933	2214.165510
328.858929	2219.015100
329.252859	2223.678167
329.646726	2234.161247
330.040528	2246.557444
330.434265	2257.315266
330.827938	2277.787392
331.221547	2292.799948
331.615091	2311.220324
332.008571	2329.360917
332.401986	2347.279698
332.795338	2366.436083
333.188625	2389.300236
333.581847	2406.767834
333.975006	2428.296081
334.368100	2442.335695
334.761129	2464.146247
335.154095	2479.723412
335.546996	2508.967146
335.939833	2546.004503
336.332606	2562.335321
336.725315	2576.891653
337.117960	2587.702407
337.510540	2601.585745
337.903056	2611.945316
338.295508	2617.440174
338.687896	2628.137502
339.080220	2634.610344
339.472480	2640.143010
339.864676	2648.350008
340.256807	2651.047026
340.648875	2655.410144
341.040879	2658.553304
341.432818	2659.490958
341.824694	2662.843326
342.216506	2662.951711
342.608253	2667.143430
342.999937	2666.087308
343.391557	2664.426248
343.783113	2665.366423
344.174605	2663.339879
344.566033	2659.143119
344.957397	2661.182266
345.348697	2658.518016
345.739934	2658.475166
346.131106	2657.650937
346.522215	2656.806544
346.913260	2653.360915
347.304241	2649.746408
347.695159	2652.448467
348.086012	2650.893271
348.476802	2648.342447
348.867528	2643.129894
349.258191	2640.105201
349.648789	2640.576549
350.039324	2637.511528
350.429796	2639.696868
350.820203	2639.041518
351.210548	2637.642598
351.600828	2636.909110
351.991045	2633.299644
352.381198	2631.641104
352.771288	2633.085395
353.161314	2635.207720
353.551276	2633.196300
353.941175	2630.153964
354.331010	2633.450878
354.720782	2632.533388
355.110490	2634.373409
355.500135	2631.126906
355.889717	2634.159160
356.279235	2633.350055
356.668689	2631.908285
357.058080	2632.598923
357.447408	2634.484315
357.836672	2631.956176
358.225873	2634.050776
358.615010	2632.568676
359.004084	2635.116980
359.393095	2636.626805
359.782043	2637.874491
360.170927	2638.328195
360.559748	2634.436424
360.948505	2643.059317
361.337199	2640.926909
361.725830	2638.587814
362.114398	2641.753659
362.502903	2641.738535
362.891344	2641.310037
363.279722	2641.138638
363.668037	2642.345994
364.056289	2646.036119
364.444478	2646.941006
364.832603	2645.456386
365.220665	2644.468320
365.608665	2646.078969
365.996601	2646.010913
366.384474	2646.225162
366.772284	2652.065339
367.160031	2648.899494
367.547715	2652.458549
367.935336	2652.050215
368.322893	2646.809936
368.710388	2647.014103
369.097820	2648.745739
369.485189	2647.056952
369.872495	2651.573826
370.259738	2653.267654
370.646918	2652.665236
371.034035	2654.021307
371.421090	2654.737150
371.808081	2652.947541
372.195010	2654.800165
372.581875	2655.450474
372.968678	2656.567089
373.355418	2655.861328
373.742096	2656.113385
374.128710	2658.412152
374.515262	2656.930052
374.901751	2657.910557
375.288177	2660.330311
375.674540	2661.648572
376.060841	2659.916936
376.447079	2659.632111
376.833254	2663.027328
377.219367	2660.559683
377.605417	2664.842143
377.991404	2662.666885
378.377329	2663.254180
378.763191	2666.639315
379.148991	2666.304078
379.534727	2669.142247
379.920402	2668.592762
380.306013	2673.878412
380.691563	2681.644309
381.077049	2685.152952
381.462474	2692.182841
381.847835	2704.087526
382.233134	2716.917262
382.618371	2730.520816
383.003545	2750.952613
383.388657	2775.137548
383.773706	2803.559574
384.158693	2832.024449
384.543618	2867.705736
384.928480	2906.605799
385.313280	2947.514763
385.698017	2985.646051
386.082692	3047.657284
386.467305	3080.339084
386.851856	3129.187865
387.236344	3199.406097
387.620770	3246.122470
388.005133	3308.085812
388.389435	3371.652242
388.773674	3411.961308
389.157851	3494.356447
389.541965	3579.340218
389.926018	3594.332610
390.310008	3702.661965
390.693936	3774.589148
391.077802	3840.119107
391.461606	3878.993965
391.845348	3966.057212
392.229027	4045.165519
392.612645	4088.365687
392.996200	4202.328531
393.379694	4287.546717
393.763125	4406.954007
394.146494	4463.344354
394.529801	4546.510790
394.913047	4650.252695
395.296230	4635.880365
395.679351	4762.982977
396.062410	4840.092466
396.445408	4838.542311
396.828343	4919.082306
397.211217	4992.531917
397.594028	4897.793513
397.976778	5026.531979
398.359466	5084.656483
398.742092	5122.306341
399.124656	5044.450761
399.507158	5168.931973
399.889598	5245.968365
400.271977	5372.629876
400.654294	5372.178693
401.036549	5416.918933
401.418742	5343.565104
401.800874	5553.524120
402.182944	5612.334221
402.564952	5724.310851
402.946898	5786.463237
403.328783	5631.258712
403.710606	5644.572400
404.092367	5962.515452
404.474067	5989.278938
404.855705	5897.587911
405.237282	5830.769938
405.618797	6081.088432
406.000250	6063.986318
406.381642	6261.917141
406.762972	6287.969824
407.144240	6349.182035
407.525447	6326.272511
407.906593	6352.471387
408.287677	6509.110120
408.668700	6422.818169
409.049661	6542.729575
409.430560	6565.865950
409.811399	6426.228509
410.192176	6700.550458
410.572891	6702.692948
410.953545	6906.191726
411.334138	6634.826414
411.714669	6806.394524
412.095139	6607.558813
412.475547	6852.142995
412.855894	6914.817140
413.236180	7091.975889
413.616405	6773.470748
413.996568	6992.231619
414.376670	7027.398708
414.756711	6922.797287
415.136691	7019.446288
415.516609	7226.178966
415.896466	7217.238480
416.276262	7411.610249
416.655997	7396.519555
417.035670	7583.178358
417.415283	7916.098679
417.794834	7974.392061
418.174324	7835.785536
418.553753	7752.626662
418.933121	8065.916730
419.312428	8165.177049
419.691674	7943.968698
420.070859	8421.902850
420.449983	8101.093902
420.829045	8466.776681
421.208047	8244.572702
421.586988	8541.053042
421.965867	8564.108759
422.344686	8667.984254
422.723444	8711.638126
423.102141	8068.666679
423.480777	8831.917536
423.859352	8355.780556
424.237866	8969.127662
424.616319	8839.932971
424.994712	9260.851673
425.373044	8812.791399
425.751314	9281.621227
426.129524	9158.783431
426.507673	9258.457125
426.885762	9414.221217
427.263789	9332.166356
427.641756	9256.024768
428.019662	9354.400365
428.397508	9604.053427
428.775292	9281.076782
429.153016	9665.308487
429.530679	9493.720213
429.908282	9529.784628
430.285824	9251.835569
430.663305	9932.701370
431.040726	9382.769458
431.418086	9366.199186
431.795385	9699.114465
432.172624	9785.295511
432.549802	9693.886788
432.926920	9783.649574
433.303977	9649.905242
433.680974	9849.880253
434.057910	9947.459348
434.434786	10015.330922
434.811601	9848.854378
435.188355	10417.007540
435.565050	10149.160954
435.941683	10076.986754
436.318257	10562.434746
436.694770	10710.533764
437.071222	10779.789136
437.447614	10602.595098
437.823946	10515.955308
438.200218	10633.020982
438.576429	10455.995824
438.952580	10707.821623
439.328670	10741.529298
439.704700	10536.676971
440.080670	10531.787052
440.456580	11062.802033
440.832429	10840.051089
441.208218	10431.458008
441.583947	10747.049362
441.959616	10915.827193
442.335224	10720.147244
442.710773	10843.221974
443.086261	11067.361757
443.461689	10336.044089
443.837057	11011.919147
444.212365	11269.479258
444.587612	10897.769780
444.962800	11133.529422
445.337927	10874.338497
445.712995	10514.674855
446.088002	11568.893550
446.462949	11252.293965
446.837837	11222.825900
447.212664	11168.509988
447.587431	11730.833056
447.962139	12476.838125
448.336786	14757.945117
448.711374	15268.677016
449.085901	13094.767640
449.460369	12741.092889
449.834776	12175.858555
450.209124	13089.550046
450.583412	13508.570754
450.957640	14446.149752
451.331808	13521.939894
451.705917	12562.038666
452.079965	11830.695793
452.453954	12744.241090
452.827883	12385.182387
453.201752	12674.905060
453.575562	12210.990357
453.949311	12626.751958
454.323001	12602.808998
454.696632	12840.625431
455.070202	13122.385602
455.443713	13334.189680
455.817164	13817.497702
456.190556	13790.782108
456.563888	14157.901616
456.937160	14303.858143
457.310373	13664.914578
457.683526	13756.741716
458.056619	13285.955920
458.429653	13481.562772
458.802628	12857.984644
459.175542	13261.110594
459.548398	14213.412282
459.921194	14560.354572
460.293930	14632.566580
460.666607	15481.640560
461.039224	16545.140020
461.411782	17261.256088
461.784280	17075.832367
462.156719	17173.817275
462.529099	16834.759349
462.901419	15788.611542
463.273680	15566.495783
463.645882	15447.330467
464.018024	15181.765003
464.390106	15406.754220
464.762130	16126.441946
465.134094	16911.321873
465.505999	18935.667777
465.877845	22212.841233
466.249631	25022.848443
466.621358	24668.004144
466.993026	23232.248241
467.364634	22671.613960
467.736184	21193.071263
468.107674	20390.854808
468.479105	20526.106445
468.850477	19985.871193
469.221790	19580.625438
469.593043	18893.009533
469.964238	18327.439962
470.335373	17969.944017
470.706449	18461.895097
471.077467	18017.197272
471.448425	19896.894827
471.819324	23996.509849
472.190164	25896.535857
472.560945	22248.882963
472.931667	19934.418656
473.302330	19317.638524
473.672934	18913.048119
474.043479	19172.110495
474.413965	18981.015476
474.784393	18589.264890
475.154761	19338.541668
475.525070	19277.256361
475.895321	18986.548142
476.265513	19579.203833
476.635645	20167.425828
477.005719	19938.181877
477.375734	20117.979670
477.745691	20605.358424
478.115588	21143.917493
478.485427	21692.586595
478.855207	22782.935240
479.224928	24556.836620
479.594591	26794.357795
479.964194	26733.397643
480.333739	26962.399618
480.703226	26544.561061
481.072653	26239.089823
481.442022	26862.287343
481.811333	27777.707950
482.180584	27670.288523
482.549777	26706.682048
482.918912	26382.596349
483.287988	26514.026792
483.657005	26136.404039
484.025964	25932.683451
484.394864	25813.397148
484.763706	25470.699509
485.132489	24927.336222
485.501213	25109.702482
485.869879	25025.772312
486.238487	24861.642425
486.607036	24994.733928
486.975527	24731.053855
487.343959	25024.501941
487.712333	24935.722181
488.080648	24599.552837
488.448905	25100.328457
488.817104	24867.354053
489.185244	25563.023201
489.553326	25511.051425
489.921350	26545.602059
490.289315	28883.835406
490.657222	30614.665168
491.025070	31123.310029
491.392861	30878.269623
491.760593	30029.374603
492.128267	29109.401835
492.495883	28042.255101
492.863440	27189.533845
493.230939	26315.301987
493.598380	26161.743399
493.965763	25767.625992
494.333088	25275.556444
494.700354	25242.872123
495.067563	25098.808549
495.434713	24844.242883
495.801805	25021.767115
496.168839	24803.704444
496.535815	24655.887731
496.902733	24875.326637
497.269593	24568.582508
497.636395	24735.389248
498.003139	24675.502861
498.369825	24426.923564
498.736453	24631.773372
499.103023	24491.616692
499.469535	24495.977290
499.835989	24715.832091
500.202385	24749.411217
500.568723	24274.277426
500.935003	24472.898888
501.301226	24138.471262
501.667390	24989.544060
502.033497	25199.094743
502.399546	24941.796771
502.765537	24473.108095
503.131470	24864.092426
503.497345	25006.232800
503.863163	24227.619027
504.228923	24798.993486
504.594625	25027.289699
504.960269	24570.790533
505.325856	25052.747526
505.691385	24450.400218
506.056856	25070.134466
506.422270	25043.607914
506.787625	24579.854528
507.152924	24999.258363
507.518164	25047.582864
507.883347	24859.051272
508.248472	24535.149576
508.613540	25316.382228
508.978550	25122.680933
509.343503	25126.978517
509.708398	25344.806774
510.073236	25514.517219
510.438016	25724.440947
510.802738	25378.494285
511.167403	25627.570135
511.532010	25380.480500
511.896561	26123.496165
512.261053	26087.736740
512.625488	25918.043940
512.989866	25814.402858
513.354186	25639.084130
513.718449	25768.765292
514.082655	26141.702292
514.446803	25868.837237
514.810894	26351.923449
515.174927	25844.390162
515.538904	25873.815377
515.902822	26366.008432
516.266684	26123.420548
516.630488	26029.700457
516.994235	25975.964277
517.357925	26313.706461
517.721558	26462.944780
518.085133	26588.177124
518.448651	26472.747303
518.812112	26239.183084
519.175516	26449.437008
519.538863	26595.920336
519.902152	26400.376499
520.265385	26663.812075
520.628560	26457.230632
520.991678	26442.172705
521.354739	26504.844330
521.717743	26600.172549
522.080690	26379.543931
522.443580	26704.153909
522.806413	26678.988469
523.169189	26806.012943
523.531908	26833.459505
523.894569	26450.112523
524.257174	26550.696145
524.619722	26687.044233
524.982213	26406.098208
525.344647	26437.008043
525.707025	26586.044716
526.069345	26560.528915
526.431608	26530.168566
526.793815	26706.243467
527.155964	26195.733379
527.518057	26363.906271
527.880093	26281.876616
528.242072	26501.370975
528.603995	26211.335750
528.965860	26011.375862
529.327669	26060.093573
529.689421	26050.459928
530.051117	25887.451698
530.412755	26069.447434
530.774337	25843.588618
531.135862	25737.658853
531.497331	25924.466370
531.858743	25504.802915
532.220098	25966.386085
532.581396	25665.048593
532.942638	25557.147736
533.303824	25678.942013
533.664953	25674.339440
534.026025	25319.336345
534.387040	25570.542082
534.747999	25634.985672
535.108902	25798.621526
535.469748	25288.343331
535.830537	25459.387160
536.191270	25591.233498
536.551947	25433.921772
536.912567	25056.790532
537.273131	25482.946993
537.633638	25154.488093
537.994089	25379.540324
538.354483	24882.003646
538.714821	25389.420986
539.075103	25434.294817
539.435328	25195.220616
539.795497	24799.936182
540.155609	25143.838656
540.515665	25457.559742
540.875665	24668.450286
541.235609	25013.159345
541.595496	24939.747542
541.955328	25310.332844
542.315102	25233.374589
542.674821	24737.272119
543.034483	24625.887824
543.394090	24797.224041
543.753640	24607.974084
544.113134	25233.460289
544.472571	24824.693288
544.831953	25126.340811
545.191278	24775.065649
545.550548	24653.210878
545.909761	24854.335273
546.268918	25095.632622
546.628019	25068.579270
546.987064	24751.800724
547.346053	24498.581046
547.704986	24600.959319
548.063863	24773.676811
548.422684	24789.846312
548.781449	24285.060454
549.140158	24703.778692
549.498811	24276.729947
549.857408	24040.559451
550.215949	24436.400934
550.574434	24132.989007
550.932864	24327.436393
551.291237	24512.902964
551.649555	24351.966648
552.007817	24423.248563
552.366022	24278.378405
552.724173	24287.271000
553.082267	24254.546350
553.440305	24743.003911
553.798288	23984.620288
554.156215	24485.514375
554.514086	24610.396359
554.871902	23982.813034
555.229661	24259.456434
555.587365	24113.918322
555.945014	24015.958621
556.302606	24226.588111
556.660143	24217.445978
557.017625	24456.943636
557.375050	23962.103974
557.732421	24352.800959
558.089735	24181.905843
558.446994	24230.696651
558.804197	24268.704430
559.161345	24167.042001
559.518437	23957.735814
559.875474	24127.642863
560.232455	24316.872655
560.589381	24128.033553
560.946251	24119.687923
561.303065	24440.953096
561.659825	24526.171281
562.016528	24125.734787
562.373177	23865.568398
562.729770	24228.382761
563.086307	24080.374484
563.442789	24252.678602
563.799216	24082.706018
564.155587	24086.950670
564.511904	24068.063987
564.868164	24020.276369
565.224370	23978.056705
565.580520	23910.505244
565.936615	24025.335167
566.292654	23727.435742
566.648638	23975.228618
567.004567	23816.228105
567.360441	23763.532924
567.716260	23493.405216
568.072023	23794.878819
568.427732	23584.178752
568.783385	23349.666796
569.138982	23591.054886
569.494525	23630.164158
569.850013	23374.920456
570.205445	23476.605571
570.560823	23298.481441
570.916145	23062.739443
571.271412	23241.075301
571.626625	22992.337209
571.981782	23099.890226
572.336884	22917.002206
572.691931	23059.664339
573.046923	22781.871556
573.401860	22663.427126
573.756743	22691.531559
574.111570	22577.982089
574.466342	22505.036593
574.821059	22579.070978
575.175722	22282.749434
575.530330	22268.404831
575.884882	22272.800717
576.239380	22188.754600
576.593823	22067.474521
576.948211	22051.448693
577.302544	21911.783526
577.656823	21768.198861
578.011047	21875.784646
578.365216	21751.197570
578.719330	21622.333075
579.073389	21510.656394
579.427394	21671.794356
579.781344	21412.933626
580.135239	21305.652831
580.489080	21254.611149
580.842866	21034.615195
581.196597	21236.158005
581.550273	21206.831093
581.903895	21085.286353
582.257463	21397.527860
582.610975	20927.218453
582.964434	21258.054257
583.317837	20931.137950
583.671186	21031.754340
584.024481	21012.918069
584.377721	20766.932446
584.730906	20857.905108
585.084037	20840.306440
585.437113	20764.510172
585.790135	20973.755865
586.143103	20425.167421
586.496016	20446.234403
586.848874	20684.829694
587.201679	20589.841753
587.554428	20292.842174
587.907124	20626.294336
588.259765	20389.498737
588.612352	20471.299020
588.964884	20025.779487
589.317362	20205.352949
589.669786	20259.875548
590.022155	20270.981210
590.374470	20515.096565
590.726731	20266.766806
591.078937	20070.640715
591.431090	20145.834566
591.783188	19908.428987
592.135232	19865.039776
592.487222	19971.347628
592.839157	19983.781634
593.191038	19852.625935
593.542866	19746.749101
593.894639	19451.932342
594.246358	19666.698099
594.598022	19563.248581
594.949633	19315.911929
595.301190	19294.880235
595.652692	19456.628177
596.004141	19682.492034
596.355535	19014.839098
596.706876	19038.116626
597.058162	18929.126879
597.409395	19179.213481
597.760573	19213.188337
598.111698	18984.148553
598.462768	18943.597512
598.813785	18916.793697
599.164748	18713.466318
599.515657	18769.039998
599.866511	18558.733142
600.217312	18919.659592
600.568060	18430.108101
600.918753	18740.229804
601.269392	18637.518815
601.619978	18434.851827
601.970510	18620.399056
602.320988	18571.371314
602.671412	18769.662580
603.021783	18702.340491
603.372100	18410.898785
603.722363	18567.030881
604.072572	18504.870933
604.422728	18657.920364
604.772830	18408.978105
605.122878	18372.230614
605.472872	18354.460547
605.822813	18337.325665
606.172701	18315.794897
606.522534	18489.192945
606.872314	18532.095685
607.222041	18363.953039
607.571714	18578.791893
607.921333	18403.674811
608.270899	18480.960741
608.620411	18634.872209
608.969870	18424.003264
609.319276	18425.951670
609.668627	18455.797821
610.017926	18581.246935
610.367171	18698.710861
610.716362	18753.326721
611.065500	18557.099808
611.414585	18718.648624
611.763616	18697.248926
612.112594	18631.121590
612.461518	18608.443960
612.810389	18796.211817
613.159207	18650.169590
613.507971	18563.118946
613.856682	18814.352409
614.205340	18743.269619
614.553945	18898.408608
614.902496	18645.246903
615.250994	18856.710704
615.599439	18807.342685
615.947830	18792.345252
616.296169	18865.240337
616.644454	18815.479107
616.992686	18788.299726
617.340864	19017.725158
617.688990	18759.872660
618.037063	18927.518751
618.385082	18798.810532
618.733048	19060.648063
619.080961	18957.763154
619.428821	18971.510380
619.776628	18852.158543
620.124382	18792.937588
620.472083	18848.294498
620.819731	18844.117902
621.167326	18548.345844
621.514868	18579.986646
621.862357	18364.943626
622.209793	18361.583697
622.557176	18196.463223
622.904506	18026.107512
623.251783	17957.197459
623.599007	17702.614149
623.946179	17640.474366
624.293297	17576.829798
624.640363	17318.846230
624.987376	17336.971698
625.334336	17146.796690
625.681243	16983.417935
626.028097	17002.937283
626.374899	16921.137000
626.721647	16786.157585
627.068343	16622.211700
627.414987	16560.833132
627.761577	16522.664035
628.108115	16555.910445
628.454600	16282.503466
628.801032	16379.026439
629.147412	16320.571739
629.493739	16330.301166
629.840014	16138.742361
630.186236	16235.673668
630.532405	15999.498130
630.878521	16202.248297
631.224585	16102.632576
631.570597	15923.472489
631.916556	15942.344049
632.262462	15926.905515
632.608316	15837.808162
632.954117	15784.248423
633.299866	15785.783454
633.645562	15685.164544
633.991206	15453.962105
634.336797	15325.783207
634.682336	15290.815243
635.027823	15167.433003
635.373257	15033.353434
635.718639	14957.955417
636.063968	14894.968720
