Dividing Wavelength (nm)	Counts (n)	Blue Motor Position (mm): 13.000000	Red Motor Position (mm): 0.000000	
326.493990	2159.925215
326.888308	2159.925215
327.282561	2159.925215
327.676750	2133.686009
328.070874	2134.754734
328.464933	2137.844961
328.858929	2148.207053
329.252859	2161.956800
329.646726	2175.983811
330.040528	2191.019052
330.434265	2208.942875
330.827938	2225.140102
331.221547	2245.276991
331.615091	2264.957656
332.008571	2286.420368
332.401986	2307.936013
332.795338	2324.382777
333.188625	2348.613083
333.581847	2367.282996
333.975006	2388.191182
334.368100	2405.242885
334.761129	2422.080339
335.154095	2440.515838
335.546996	2460.549384
335.939833	2485.137612
336.332606	2496.510455
336.725315	2511.971673
337.117960	2517.337982
337.510540	2524.773684
337.903056	2533.441948
338.295508	2541.943854
338.687896	2549.929041
339.080220	2559.149312
339.472480	2559.913047
339.864676	2566.612740
340.256807	2564.064437
340.648875	2571.356466
341.040879	2575.487691
341.432818	2573.917372
341.824694	2573.231775
342.216506	2574.781930
342.608253	2577.060531
342.999937	2574.071127
343.391557	2575.162537
343.783113	2572.251271
344.174605	2573.957701
344.566033	2568.006619
344.957397	2567.578121
345.348697	2562.426062
345.739934	2566.332956
346.131106	2562.415979
346.522215	2557.669733
346.913260	2557.634445
347.304241	2556.480021
347.695159	2557.011863
348.086012	2553.029351
348.476802	2550.438198
348.867528	2551.393497
349.258191	2550.773435
349.648789	2550.276881
350.039324	2547.756304
350.429796	2546.034750
350.820203	2547.395862
351.210548	2545.487785
351.600828	2542.014430
351.991045	2544.933258
352.381198	2540.565098
352.771288	2541.717002
353.161314	2542.342105
353.551276	2544.058618
353.941175	2542.861344
354.331010	2542.067362
354.720782	2543.277239
355.110490	2542.861344
355.500135	2544.272867
355.889717	2545.840666
356.279235	2543.829245
356.668689	2546.858979
357.058080	2545.195398
357.447408	2542.821014
357.836672	2540.275232
358.225873	2541.124666
358.615010	2541.863195
359.004084	2546.841335
359.393095	2547.625234
359.782043	2547.804195
360.170927	2550.947354
360.559748	2550.977601
360.948505	2547.438711
361.337199	2547.108516
361.725830	2550.294525
362.114398	2551.106151
362.502903	2547.809236
362.891344	2549.455173
363.279722	2552.558003
363.668037	2553.228477
364.056289	2552.822664
364.444478	2553.735112
364.832603	2551.237221
365.220665	2553.157900
365.608665	2549.987015
365.996601	2553.808209
366.384474	2555.008004
366.772284	2552.253013
367.160031	2555.612942
367.547715	2555.312994
367.935336	2555.570092
368.322893	2557.566389
368.710388	2555.544887
369.097820	2558.113355
369.485189	2558.312480
369.872495	2556.664023
370.259738	2558.594785
370.646918	2555.207129
371.034035	2560.402038
371.421090	2558.922460
371.808081	2557.518498
372.195010	2557.846173
372.581875	2556.641338
372.968678	2558.509085
373.355418	2559.686195
373.742096	2562.668037
374.128710	2559.769374
374.515262	2559.212326
374.901751	2560.578479
375.288177	2561.291802
375.674540	2560.583520
376.060841	2562.335321
376.447079	2559.424055
376.833254	2560.212995
377.219367	2559.842470
377.605417	2557.208467
377.991404	2555.759136
378.377329	2559.177038
378.763191	2557.526060
379.148991	2560.588561
379.534727	2561.342214
379.920402	2563.043603
380.306013	2562.446226
380.691563	2564.162739
381.077049	2561.604354
381.462474	2564.195507
381.847835	2563.114179
382.233134	2565.168449
382.618371	2564.414797
383.003545	2563.951011
383.388657	2566.181721
383.773706	2563.774570
384.158693	2564.001422
384.543618	2565.909499
384.928480	2565.949828
385.313280	2569.443348
385.698017	2567.169787
386.082692	2567.845302
386.467305	2565.939746
386.851856	2567.081567
387.236344	2566.542164
387.620770	2565.775908
388.005133	2567.709191
388.389435	2567.366392
388.773674	2567.915878
389.157851	2566.458985
389.541965	2568.344376
389.926018	2567.883111
390.310008	2569.123235
390.693936	2569.425704
391.077802	2570.844789
391.461606	2568.528378
391.845348	2569.466033
392.229027	2570.186918
392.612645	2570.973338
392.996200	2569.239181
393.379694	2569.004767
393.763125	2572.034501
394.146494	2570.565005
394.529801	2571.936198
394.913047	2573.282187
395.296230	2572.195818
395.679351	2572.982238
396.062410	2572.513411
396.445408	2573.461147
396.828343	2571.182546
397.211217	2567.734397
397.594028	2569.269428
397.976778	2570.292782
398.359466	2570.663307
398.742092	2570.149109
399.124656	2575.780078
399.507158	2575.225551
399.889598	2573.554409
400.271977	2571.931157
400.654294	2575.008782
401.036549	2573.599779
401.418742	2571.225396
401.800874	2571.600962
402.182944	2574.585325
402.564952	2574.144224
402.946898	2576.924420
403.328783	2573.728329
403.710606	2577.236972
404.092367	2572.034501
404.474067	2574.182033
404.855705	2576.100192
405.237282	2577.007599
405.618797	2573.761096
406.000250	2574.958370
406.381642	2577.352918
406.762972	2577.330233
407.144240	2577.831828
407.525447	2578.028433
407.906593	2576.886612
408.287677	2577.226889
408.668700	2577.983062
409.049661	2578.963567
409.430560	2578.222517
409.811399	2578.449369
410.192176	2577.289904
410.572891	2577.776375
410.953545	2578.101530
411.334138	2580.929617
411.714669	2578.000707
412.095139	2577.675552
412.475547	2579.165213
412.855894	2576.367373
413.236180	2583.074628
413.616405	2581.184195
413.996568	2578.784606
414.376670	2580.735532
414.756711	2578.774524
415.136691	2578.081365
415.516609	2581.680749
415.896466	2581.211922
416.276262	2583.455235
416.655997	2579.160172
417.035670	2573.826631
417.415283	2578.640933
417.794834	2577.685634
418.174324	2577.478947
418.553753	2581.857189
418.933121	2582.227714
419.312428	2580.430543
419.691674	2581.368197
420.070859	2581.295101
420.449983	2580.513722
420.829045	2579.402147
421.208047	2581.443815
421.586988	2583.631675
421.965867	2583.861048
422.344686	2580.281829
422.723444	2583.611511
423.102141	2582.457087
423.480777	2581.567323
423.859352	2580.806109
424.237866	2582.736871
424.616319	2581.000193
424.994712	2582.280646
425.373044	2584.972622
425.751314	2582.769638
426.129524	2584.687797
426.507673	2583.341809
426.885762	2582.411716
427.263789	2584.034968
427.641756	2585.277612
428.019662	2585.597725
428.397508	2580.869123
428.775292	2585.958168
429.153016	2583.142683
429.530679	2583.281315
429.908282	2586.326172
430.285824	2582.656212
430.663305	2585.045719
431.040726	2583.682087
431.418086	2584.118147
431.795385	2585.174268
432.172624	2580.715368
432.549802	2586.951275
432.926920	2586.709300
433.303977	2588.045206
433.680974	2585.867427
434.057910	2587.442788
434.434786	2584.934814
434.811601	2585.494382
435.188355	2582.739391
435.565050	2584.148394
435.941683	2589.000504
436.318257	2582.386510
436.694770	2581.504308
437.071222	2581.494226
437.447614	2583.606470
437.823946	2584.002200
438.200218	2585.184351
438.576429	2586.608477
438.952580	2585.320462
439.328670	2587.026893
439.704700	2584.962540
440.080670	2586.840370
440.456580	2586.603436
440.832429	2588.788776
441.208218	2585.791810
441.583947	2587.730133
441.959616	2586.096800
442.335224	2585.554876
442.710773	2588.118302
443.086261	2590.175093
443.461689	2587.296594
443.837057	2588.168714
444.212365	2587.788107
444.587612	2588.188878
444.962800	2586.109402
445.337927	2588.264496
445.712995	2587.543611
446.088002	2590.238107
446.462949	2587.009248
446.837837	2590.938828
447.212664	2589.164342
447.587431	2585.897674
447.962139	2590.066708
448.336786	2592.264651
448.711374	2589.398755
449.085901	2590.724579
449.460369	2588.531677
449.834776	2587.929259
450.209124	2589.423961
450.583412	2590.543097
450.957640	2587.568817
451.331808	2590.487645
451.705917	2590.268354
452.079965	2588.904722
452.453954	2590.404466
452.827883	2591.879003
453.201752	2590.590988
453.575562	2593.202306
453.949311	2591.430340
454.323001	2591.621904
454.696632	2591.672316
455.070202	2593.071236
455.443713	2592.015114
455.817164	2586.578230
456.190556	2588.445977
456.563888	2587.851121
456.937160	2587.278950
457.310373	2592.385639
457.683526	2592.002511
458.056619	2589.854980
458.429653	2590.381780
458.802628	2590.003694
459.175542	2593.656010
459.548398	2590.275916
459.921194	2593.222471
460.293930	2590.956472
460.666607	2593.378746
461.039224	2593.585434
461.411782	2593.197265
461.784280	2590.961513
462.156719	2592.851946
462.529099	2591.059816
462.901419	2593.015783
463.273680	2592.395721
463.645882	2593.547625
464.018024	2589.834815
464.390106	2594.013932
464.762130	2591.873962
465.134094	2592.897316
465.505999	2593.666092
465.877845	2592.441092
466.249631	2597.061309
466.621358	2594.628952
466.993026	2597.144488
467.364634	2598.901330
467.736184	2595.790938
468.107674	2594.830599
468.479105	2592.708273
468.850477	2592.340269
469.221790	2596.658017
469.593043	2593.595516
469.964238	2596.635332
470.335373	2594.659199
470.706449	2594.026535
471.077467	2592.980495
471.448425	2595.269179
471.819324	2597.673809
472.190164	2595.886720
472.560945	2595.095259
472.931667	2594.283633
473.302330	2595.632142
473.672934	2595.604416
474.043479	2595.853953
474.413965	2594.994436
474.784393	2591.642069
475.154761	2591.359764
475.525070	2591.238777
475.895321	2589.643251
476.265513	2592.504106
476.635645	2597.099118
477.005719	2594.906216
477.375734	2597.371340
477.745691	2596.400918
478.115588	2595.932091
478.485427	2595.697677
478.855207	2597.341093
479.224928	2595.735486
479.594591	2598.613985
479.964194	2597.315888
480.333739	2597.552822
480.703226	2597.840167
481.072653	2599.851588
481.442022	2596.751278
481.811333	2600.277565
482.180584	2600.753954
482.549777	2598.596341
482.918912	2598.901330
483.287988	2599.055086
483.657005	2601.437031
484.025964	2598.737493
484.394864	2595.987543
484.763706	2596.302616
485.132489	2599.234047
485.501213	2602.150354
485.869879	2598.596341
486.238487	2596.539550
486.607036	2598.578697
486.975527	2598.253542
487.343959	2599.072730
487.712333	2599.559201
488.080648	2597.883017
488.448905	2598.087184
488.817104	2597.477204
489.185244	2600.237236
489.553326	2601.502566
489.921350	2600.683378
490.289315	2601.633636
490.657222	2602.077257
491.025070	2603.196393
491.392861	2602.102463
491.760593	2603.587083
492.128267	2602.019284
492.495883	2600.138934
492.863440	2603.329984
493.230939	2600.814448
493.598380	2601.636156
493.965763	2597.656165
494.333088	2600.073399
494.700354	2598.082143
495.067563	2600.025508
495.434713	2597.870414
495.801805	2601.989037
496.168839	2603.450972
496.535815	2602.251177
496.902733	2604.088678
497.269593	2604.108842
497.636395	2603.909717
498.003139	2602.752772
498.369825	2603.761003
498.736453	2603.861826
499.103023	2603.703029
499.469535	2604.451641
499.835989	2604.504573
500.202385	2606.889039
500.568723	2606.102619
500.935003	2604.718822
501.301226	2604.048348
501.667390	2605.021291
502.033497	2605.779985
502.399546	2608.534975
502.765537	2606.795777
503.131470	2603.680344
503.497345	2608.030860
503.863163	2607.516662
504.228923	2609.641509
504.594625	2608.580346
504.960269	2606.470623
505.325856	2609.712085
505.691385	2606.871395
506.056856	2609.971704
506.422270	2609.633947
506.787625	2611.315172
507.152924	2609.727208
507.518164	2611.549585
507.883347	2608.008175
508.248472	2611.710902
508.613540	2610.533793
508.978550	2612.898094
509.343503	2612.857765
509.708398	2614.118053
510.073236	2614.037395
510.438016	2614.639813
510.802738	2612.255347
511.167403	2614.294494
511.532010	2615.900101
511.896561	2616.278188
512.261053	2616.623507
512.625488	2613.394648
512.989866	2613.755090
513.354186	2612.260388
513.718449	2613.944133
514.082655	2617.934207
514.446803	2618.927314
514.810894	2618.629886
515.174927	2618.040071
515.538904	2619.882613
515.902822	2619.499485
516.266684	2618.937396
516.630488	2618.634927
516.994235	2621.757922
517.357925	2623.086266
517.721558	2620.452263
518.085133	2622.125926
518.448651	2624.896040
518.812112	2621.261368
519.175516	2624.021400
519.538863	2622.952675
519.902152	2622.393107
520.265385	2626.431072
520.628560	2626.042903
520.991678	2626.040382
521.354739	2625.833695
521.717743	2624.964096
522.080690	2625.856380
522.443580	2628.979375
522.806413	2629.221350
523.169189	2626.602471
523.531908	2628.717235
523.894569	2626.746144
524.257174	2627.827471
524.619722	2631.182359
524.982213	2632.455250
525.344647	2629.238994
525.707025	2629.080198
526.069345	2628.729838
526.431608	2626.723458
526.793815	2633.415590
527.155964	2630.700929
527.518057	2629.866618
527.880093	2632.145219
528.242072	2631.820065
528.603995	2630.479118
528.965860	2628.843264
529.327669	2632.356948
529.689421	2629.138171
530.051117	2634.670837
530.412755	2632.722432
530.774337	2634.055817
531.135862	2634.002885
531.497331	2629.733027
531.858743	2633.584469
532.220098	2631.441978
532.581396	2631.371402
532.942638	2630.390898
533.303824	2631.865435
533.664953	2637.713174
534.026025	2635.505148
534.387040	2633.891979
534.747999	2634.123872
535.108902	2635.358955
535.469748	2633.702936
535.830537	2635.101856
536.191270	2635.459778
536.551947	2636.722587
536.912567	2634.910292
537.273131	2634.459109
537.633638	2634.880045
537.994089	2636.397433
538.354483	2638.749131
538.714821	2637.347690
539.075103	2638.673514
539.435328	2636.901548
539.795497	2640.261477
540.155609	2639.981693
540.515665	2637.773668
540.875665	2637.670324
541.235609	2638.600417
541.595496	2641.181488
541.955328	2639.172588
542.315102	2639.719553
542.674821	2640.783237
543.034483	2642.542599
543.394090	2639.480098
543.753640	2644.685090
544.113134	2643.429842
544.472571	2642.351035
544.831953	2642.270377
545.191278	2644.707775
545.550548	2644.102836
545.909761	2646.404123
546.268918	2645.516880
546.628019	2647.601397
546.987064	2647.389669
547.346053	2647.918990
547.704986	2646.847745
548.063863	2646.310862
548.422684	2646.978815
548.781449	2649.943013
549.140158	2649.151552
549.498811	2651.556182
549.857408	2648.435708
550.215949	2652.080462
550.574434	2651.233548
550.932864	2651.800678
551.291237	2650.883188
551.649555	2655.962151
552.007817	2658.835608
552.366022	2660.410969
552.724173	2658.830567
553.082267	2659.680002
553.440305	2663.259221
553.798288	2662.591268
554.156215	2661.298212
554.514086	2665.252997
554.871902	2667.040086
555.229661	2667.786177
555.587365	2667.750889
555.945014	2672.537465
556.302606	2672.529903
556.660143	2674.407733
557.017625	2676.542661
557.375050	2678.733043
557.732421	2678.980059
558.089735	2680.230265
558.446994	2683.224711
558.804197	2685.525997
559.161345	2689.962213
559.518437	2687.479445
559.875474	2686.680422
560.232455	2691.557738
560.589381	2694.542101
560.946251	2697.781042
561.303065	2698.862370
561.659825	2699.850436
562.016528	2699.190045
562.373177	2701.002340
562.729770	2704.712629
563.086307	2708.163299
563.442789	2711.997096
563.799216	2714.326109
564.155587	2716.657643
564.511904	2718.364074
564.868164	2717.396172
565.224370	2724.216853
565.580520	2725.913202
565.936615	2732.933008
566.292654	2731.670199
566.648638	2735.433421
567.004567	2741.951632
567.360441	2741.576067
567.716260	2745.230903
568.072023	2750.577047
568.427732	2751.764238
568.783385	2754.950248
569.138982	2763.842843
569.494525	2760.097266
569.850013	2766.991044
570.205445	2775.742487
570.560823	2780.319854
570.916145	2783.599125
571.271412	2785.000566
571.626625	2792.748819
571.981782	2796.186886
572.336884	2801.439768
572.691931	2807.353042
573.046923	2808.958649
573.401860	2817.528611
573.756743	2822.068170
574.111570	2826.925322
574.466342	2832.158039
574.821059	2839.939060
575.175722	2843.881243
575.530330	2849.358456
575.884882	2853.590505
576.239380	2860.159128
576.593823	2864.897813
576.948211	2871.973073
577.302544	2877.067158
577.656823	2883.466903
578.011047	2894.839746
578.365216	2898.575241
578.719330	2902.981210
579.073389	2914.802716
579.427394	2918.790268
579.781344	2927.377874
580.135239	2935.902465
580.489080	2944.850513
580.842866	2949.077521
581.196597	2961.332566
581.550273	2967.082002
581.903895	2978.157417
582.257463	2994.773060
582.610975	2998.281703
582.964434	3010.806449
583.317837	3019.525125
583.671186	3027.873276
584.024481	3040.420708
584.377721	3048.705844
584.730906	3058.646999
585.084037	3076.490163
585.437113	3078.826738
585.790135	3092.037082
586.143103	3101.355655
586.496016	3114.802933
586.848874	3123.529170
587.201679	3134.685243
587.554428	3141.236223
587.907124	3162.393946
588.259765	3171.341994
588.612352	3192.096424
588.964884	3195.983154
589.317362	3213.806153
589.669786	3224.107751
590.022155	3239.649628
590.374470	3258.727875
590.726731	3264.376488
591.078937	3272.671707
591.431090	3289.100827
591.783188	3295.908905
592.135232	3305.255204
592.487222	3323.297494
592.839157	3341.150740
593.191038	3348.394878
593.542866	3361.136395
593.894639	3366.001108
594.246358	3387.622617
594.598022	3403.338414
594.949633	3412.329312
595.301190	3427.543514
595.652692	3439.657407
596.004141	3462.261941
596.355535	3463.081128
596.706876	3474.453972
597.058162	3482.618120
597.409395	3512.313037
597.760573	3535.225081
598.111698	3540.649363
598.462768	3556.791137
598.813785	3578.228644
599.164748	3579.345260
599.515657	3609.698047
599.866511	3614.958491
600.217312	3647.494098
600.568060	3638.979589
600.918753	3679.792771
601.269392	3693.456818
601.619978	3705.457285
601.970510	3729.387642
602.320988	3755.147938
602.671412	3784.273205
603.021783	3796.709731
603.372100	3807.601144
603.722363	3830.056964
604.072572	3856.707024
604.422728	3879.230899
604.772830	3890.964185
605.122878	3909.934047
605.472872	3928.551028
605.822813	3956.768886
606.172701	3979.718739
606.522534	4011.193183
606.872314	4040.751989
607.222041	4053.853948
607.571714	4092.897684
607.921333	4094.674691
608.270899	4125.753404
608.620411	4164.618180
608.969870	4182.683155
609.319276	4203.051937
609.668627	4229.754929
610.017926	4272.082977
610.367171	4303.146567
610.716362	4332.581864
611.065500	4351.145913
611.414585	4386.267632
611.763616	4422.742901
612.112594	4444.724852
612.461518	4480.123835
612.810389	4517.294783
613.159207	4531.147873
613.507971	4563.320517
613.856682	4611.521510
614.205340	4631.577740
614.553945	4692.232903
614.902496	4697.059808
615.250994	4739.897013
615.599439	4769.170993
615.947830	4806.213392
616.296169	4825.805836
616.644454	4861.255230
616.992686	4896.263523
617.340864	4956.003717
617.688990	4958.231907
618.037063	5025.821177
618.385082	5050.270773
618.733048	5092.087144
619.080961	5123.362463
619.428821	5150.093181
619.776628	5184.050393
620.124382	5200.242579
620.472083	5236.821192
620.819731	5270.417961
621.167326	5280.293582
621.514868	5300.362415
621.862357	5304.065143
622.209793	5330.647147
622.557176	5334.967416
622.904506	5346.577193
623.251783	5345.710115
623.599007	5355.956260
623.946179	5371.896388
624.293297	5390.609151
624.640363	5374.807655
624.987376	5399.660543
625.334336	5412.490280
625.681243	5413.170835
626.028097	5426.108957
626.374899	5443.974806
626.721647	5457.795129
627.068343	5475.819775
627.414987	5483.583152
627.761577	5490.444162
628.108115	5539.829826
628.454600	5518.392319
628.801032	5557.975459
629.147412	5574.243262
629.493739	5591.660449
629.840014	5594.780923
630.186236	5638.366739
630.532405	5633.635617
630.878521	5676.440054
631.224585	5689.524369
631.570597	5689.136200
631.916556	5713.434561
632.262462	5741.508747
632.608316	5760.569350
632.954117	5775.395383
633.299866	5798.370442
633.645562	5813.289737
633.991206	5798.468744
634.336797	5783.967865
634.682336	5806.743798
635.027823	5809.193799
635.373257	5818.149409
635.718639	5812.730169
636.063968	5826.217776
636.409245	5794.997910
636.754470	5820.180994
637.099642	5819.850798
637.444762	5796.963960
637.789829	5825.355738
638.134845	5815.386857
638.479808	5830.762376
638.824719	5840.811916
639.169577	5821.204348
639.514383	5847.499007
639.859137	5842.979612
640.203839	5886.439400
640.548489	5869.188571
640.893086	5895.455503
641.237632	5885.799173
641.582125	5909.981588
641.926566	5926.566984
642.270955	5941.884530
642.615292	5966.344209
642.959576	5970.039374
643.303809	5992.694320
643.647990	6025.534917
643.992118	6031.974991
644.336195	6046.183483
