Dividing Wavelength (nm)	Counts (n)	Blue Motor Position (mm): 37.500000	Red Motor Position (mm): 0.000000	
326.493990	2131.457819
326.888308	2131.457819
327.282561	2131.457819
327.676750	2096.961204
328.070874	2097.324167
328.464933	2097.455237
328.858929	2106.085692
329.252859	2116.568772
329.646726	2126.900616
330.040528	2138.351597
330.434265	2157.071922
330.827938	2176.084634
331.221547	2192.115503
331.615091	2213.046374
332.008571	2230.811400
332.401986	2249.352764
332.795338	2268.700712
333.188625	2287.962961
333.581847	2306.895014
333.975006	2324.531491
334.368100	2345.379183
334.761129	2363.426514
335.154095	2378.000489
335.546996	2399.165774
335.939833	2425.299115
336.332606	2439.368976
336.725315	2451.896243
337.117960	2462.722121
337.510540	2471.521455
337.903056	2480.507312
338.295508	2486.463435
338.687896	2499.819972
339.080220	2506.449089
339.472480	2513.214318
339.864676	2517.400996
340.256807	2522.676564
340.648875	2523.359640
341.040879	2526.742254
341.432818	2528.390712
341.824694	2528.703263
342.216506	2532.738707
342.608253	2528.622605
342.999937	2532.093439
343.391557	2531.370033
343.783113	2528.806607
344.174605	2526.643952
344.566033	2522.913498
344.957397	2524.289733
345.348697	2523.460463
345.739934	2523.180679
346.131106	2519.372087
346.522215	2518.593229
346.913260	2515.906294
347.304241	2515.462673
347.695159	2510.933196
348.086012	2509.453617
348.476802	2508.440345
348.867528	2507.157372
349.258191	2504.528410
349.648789	2507.545540
350.039324	2504.372134
350.429796	2506.285252
350.820203	2499.789725
351.210548	2502.978255
351.600828	2496.654128
351.991045	2498.373161
352.381198	2496.770074
352.771288	2498.879797
353.161314	2498.489108
353.551276	2497.216216
353.941175	2498.922647
354.331010	2497.559015
354.720782	2498.408449
355.110490	2497.682523
355.500135	2495.910557
355.889717	2497.727893
356.279235	2496.054230
356.668689	2499.096567
357.058080	2495.971051
357.447408	2495.598006
357.836672	2494.473828
358.225873	2495.318222
358.615010	2496.825527
359.004084	2499.860301
359.393095	2500.228306
359.782043	2499.870384
360.170927	2499.013388
360.559748	2501.042452
360.948505	2501.715446
361.337199	2502.340549
361.725830	2502.529592
362.114398	2503.419356
362.502903	2504.725015
362.891344	2504.951867
363.279722	2505.158554
363.668037	2506.335663
364.056289	2508.538648
364.444478	2509.284738
364.832603	2507.883298
365.220665	2508.866323
365.608665	2506.348266
365.996601	2507.109481
366.384474	2508.982269
366.772284	2508.793226
367.160031	2511.202897
367.547715	2508.808349
367.935336	2508.034532
368.322893	2510.313134
368.710388	2510.509739
369.097820	2512.251458
369.485189	2513.468896
369.872495	2511.805315
370.259738	2512.153155
370.646918	2509.889677
371.034035	2511.628875
371.421090	2515.835718
371.808081	2510.897908
372.195010	2514.827487
372.581875	2511.817918
372.968678	2514.903104
373.355418	2513.282373
373.742096	2515.107271
374.128710	2515.780265
374.515262	2515.664319
374.901751	2515.712210
375.288177	2518.968795
375.674540	2518.288239
376.060841	2519.283867
376.447079	2517.050636
376.833254	2518.809999
377.219367	2513.899915
377.605417	2515.613907
377.991404	2514.376304
378.377329	2515.051818
378.763191	2513.375635
379.148991	2518.323527
379.534727	2519.160359
379.920402	2521.880061
380.306013	2521.343178
380.691563	2520.357633
381.077049	2521.464166
381.462474	2522.207736
381.847835	2525.106400
382.233134	2522.752181
382.618371	2522.129598
383.003545	2522.611029
383.388657	2520.839063
383.773706	2523.830988
384.158693	2523.583971
384.543618	2529.109076
384.928480	2525.257634
385.313280	2525.272758
385.698017	2526.011287
386.082692	2527.140505
386.467305	2525.101359
386.851856	2526.386853
387.236344	2524.892151
387.620770	2527.901720
388.005133	2528.007584
388.389435	2528.834333
388.773674	2529.051103
389.157851	2528.362985
389.541965	2529.295599
389.926018	2532.118645
390.310008	2529.862728
390.693936	2533.116793
391.077802	2534.437576
391.461606	2533.477236
391.845348	2534.825744
392.229027	2531.352389
392.612645	2531.551515
392.996200	2534.543440
393.379694	2533.542771
393.763125	2536.113759
394.146494	2539.695499
394.529801	2542.468134
394.913047	2543.988042
395.296230	2546.324616
395.679351	2551.257385
396.062410	2554.899619
396.445408	2560.913716
396.828343	2569.823955
397.211217	2569.380333
397.594028	2579.465162
397.976778	2589.799527
398.359466	2602.402412
398.742092	2614.753239
399.124656	2623.920577
399.507158	2642.058648
399.889598	2658.507933
400.271977	2682.564320
400.654294	2693.790969
401.036549	2716.975236
401.418742	2730.293964
401.800874	2760.921494
402.182944	2783.972170
402.564952	2822.295022
402.946898	2840.617096
403.328783	2866.097608
403.710606	2879.345760
404.092367	2944.767334
404.474067	2967.704584
404.855705	2998.669872
405.237282	3012.669156
405.618797	3072.096798
406.000250	3115.070114
406.381642	3174.316274
406.762972	3200.303422
407.144240	3241.643405
407.525447	3274.872170
407.906593	3333.994823
408.287677	3389.472721
408.668700	3399.683578
409.049661	3467.149340
409.430560	3523.156559
409.811399	3534.806665
410.192176	3649.747494
410.572891	3658.975326
410.953545	3758.835542
411.334138	3734.895103
411.714669	3813.577432
412.095139	3796.593785
412.475547	3920.318823
412.855894	3949.383596
413.236180	3996.727592
413.616405	4009.680837
413.996568	4103.085856
414.376670	4102.042337
414.756711	4107.514510
415.136691	4166.059950
415.516609	4260.803395
415.896466	4318.010409
416.276262	4384.750245
416.655997	4400.894540
417.035670	4577.733176
417.415283	4679.221685
417.794834	4666.114685
418.174324	4664.241897
418.553753	4610.430100
418.933121	4796.390703
419.312428	4885.407398
419.691674	4867.665057
420.070859	5001.147249
420.449983	4947.917706
420.829045	5071.909926
421.208047	5011.700905
421.586988	5094.711065
421.965867	5125.852793
422.344686	5267.478969
422.723444	5148.076719
423.102141	4991.342205
423.480777	5291.104336
423.859352	5084.684210
424.237866	5346.166339
424.616319	5348.538202
424.994712	5468.157221
425.373044	5353.395354
425.751314	5503.989742
426.129524	5322.041897
426.507673	5513.265466
426.885762	5602.960195
427.263789	5544.429879
427.641756	5434.913332
428.019662	5560.367487
428.397508	5567.152880
428.775292	5518.757803
429.153016	5625.410974
429.530679	5553.352721
429.908282	5639.513602
430.285824	5512.226988
430.663305	5786.301920
431.040726	5526.259040
431.418086	5529.346746
431.795385	5631.949351
432.172624	5648.688502
432.549802	5641.038551
432.926920	5653.049100
433.303977	5665.805740
433.680974	5703.178334
434.057910	5725.603907
434.434786	5729.057097
434.811601	5695.949319
435.188355	5933.007058
435.565050	5805.672553
435.941683	5784.545077
436.318257	5999.819991
436.694770	5984.714173
437.071222	6016.183576
437.447614	5953.806859
437.823946	5871.479776
438.200218	6018.910840
438.576429	5890.331170
438.952580	5984.739379
439.328670	6034.548500
439.704700	5938.489313
440.080670	5922.390388
440.456580	6199.868099
440.832429	6076.596764
441.208218	5927.739053
441.583947	6078.857721
441.959616	6084.034986
442.335224	6016.508731
442.710773	6147.893803
443.086261	6171.093193
443.461689	5970.107430
443.837057	6121.957066
444.212365	6274.676301
444.587612	6164.113715
444.962800	6320.770092
445.337927	6301.268388
445.712995	5915.191621
446.088002	6489.754610
446.462949	6318.627601
446.837837	6249.026911
447.212664	6421.371358
447.587431	6568.371404
447.962139	7108.687314
448.336786	8032.100670
448.711374	7771.956967
449.085901	6847.207705
449.460369	6770.995542
449.834776	6703.199584
450.209124	7098.824297
450.583412	7242.655978
450.957640	7393.837661
451.331808	7152.895713
451.705917	6708.018927
452.079965	6626.420290
452.453954	6838.569688
452.827883	6718.675926
453.201752	6810.770245
453.575562	6614.765143
453.949311	6814.455329
454.323001	6703.741508
454.696632	6780.339320
455.070202	6915.631287
455.443713	7081.505413
455.817164	7176.097623
456.190556	7253.179386
456.563888	7330.084709
456.937160	7377.733695
457.310373	7029.495828
457.683526	7057.196969
458.056619	6944.176820
458.429653	6932.093174
458.802628	6869.615634
459.175542	6977.274516
459.548398	7329.494894
459.921194	7494.131417
460.293930	7490.733679
460.666607	8020.843773
461.039224	8330.834406
461.411782	8455.295453
461.784280	8476.853948
462.156719	8365.787246
462.529099	8239.690344
462.901419	7837.020619
463.273680	7727.095739
463.645882	7736.633602
464.018024	7605.077131
464.390106	7772.287162
464.762130	8159.384763
465.134094	8626.997153
465.505999	9647.248554
465.877845	10867.558145
466.249631	11512.808193
466.621358	11130.088834
466.993026	10506.929122
467.364634	10244.216951
467.736184	9880.507783
468.107674	9550.110560
468.479105	9582.948636
468.850477	9345.648922
469.221790	9120.377401
469.593043	8797.476373
469.964238	8653.374991
470.335373	8668.679934
470.706449	8724.724962
471.077467	8706.249133
471.448425	10017.359987
471.819324	11086.258522
472.190164	11109.009249
472.560945	9861.220329
472.931667	9078.674455
473.302330	8940.509031
473.672934	8585.805885
474.043479	8939.120193
474.413965	8878.281028
474.784393	8768.381354
475.154761	8923.437164
475.525070	9008.889763
475.895321	8835.423659
476.265513	9008.226851
476.635645	9179.371503
477.005719	9185.307462
477.375734	9296.411972
477.745691	9533.835195
478.115588	9666.208333
478.485427	9907.006608
478.855207	10445.797570
479.224928	11259.076837
479.594591	11884.444575
479.964194	11694.035153
480.333739	11636.460135
480.703226	11546.223481
481.072653	11639.792338
481.442022	11881.382074
481.811333	12067.783779
482.180584	11874.155580
482.549777	11584.747979
482.918912	11407.228787
483.287988	11425.356777
483.657005	11438.879672
484.025964	11127.873247
484.394864	11257.761096
484.763706	11228.630789
485.132489	10981.576442
485.501213	10948.188880
485.869879	11025.200067
486.238487	10870.229956
486.607036	10978.856739
486.975527	10754.971535
487.343959	10946.996647
487.712333	10993.002217
488.080648	10919.822307
488.448905	10968.766870
488.817104	10910.150853
489.185244	11177.664723
489.553326	11331.281284
489.921350	11871.249355
490.289315	12935.832662
490.657222	13271.369342
491.025070	13172.366121
491.392861	13048.169735
491.760593	12663.512052
492.128267	12323.655104
492.495883	11991.551450
492.863440	11660.922334
493.230939	11320.679737
493.598380	11256.357135
493.965763	11126.421395
494.333088	11019.601865
494.700354	10945.678385
495.067563	10995.732002
495.434713	10836.151756
495.801805	10959.881836
496.168839	10882.293437
496.535815	10822.265898
496.902733	10820.246916
497.269593	10760.562175
497.636395	10859.315858
498.003139	10842.783394
498.369825	10709.880935
498.736453	10865.788700
499.103023	10794.254727
499.469535	10826.679428
499.835989	10816.113170
500.202385	10770.977199
500.568723	10629.114088
500.935003	10854.698161
501.301226	10658.730867
501.667390	10917.024467
502.033497	11012.236739
502.399546	10874.005780
502.765537	10779.063209
503.131470	10859.872906
503.497345	11027.541682
503.863163	10642.639504
504.228923	10949.998654
504.594625	11008.314722
504.960269	10763.236507
505.325856	10977.704836
505.691385	10776.078846
506.056856	10927.883112
506.422270	10950.038983
506.787625	10838.707621
507.152924	10955.609458
507.518164	10938.058681
507.883347	10860.132525
508.248472	10779.315267
508.613540	11014.979127
508.978550	10896.857331
509.343503	10873.859587
509.708398	10988.535755
510.073236	11102.775862
510.438016	11109.667120
510.802738	11056.369521
511.167403	11112.890938
511.532010	11006.827581
511.896561	11239.943138
512.261053	11307.212295
512.625488	11175.658344
512.989866	11165.215594
513.354186	11149.842595
513.718449	11056.687113
514.082655	11253.118194
514.446803	11140.955041
514.810894	11265.539597
515.174927	11126.623041
515.538904	11153.031125
515.902822	11303.139043
516.266684	11191.386744
516.630488	11131.702003
516.994235	11186.643018
517.357925	11250.159036
517.721558	11340.375526
518.085133	11352.257525
518.448651	11357.127280
518.812112	11242.993036
519.175516	11256.344532
519.538863	11381.377750
519.902152	11297.210646
520.265385	11457.221910
520.628560	11369.311749
520.991678	11344.660506
521.354739	11413.671382
521.717743	11345.721669
522.080690	11330.104175
522.443580	11462.893208
522.806413	11419.078019
523.169189	11445.796135
523.531908	11499.413847
523.894569	11322.353401
524.257174	11327.381952
524.619722	11451.172525
524.982213	11395.649257
525.344647	11444.283789
525.707025	11397.333002
526.069345	11488.565284
526.431608	11407.763150
526.793815	11517.345231
527.155964	11301.798096
527.518057	11360.525017
527.880093	11311.144395
528.242072	11376.122347
528.603995	11279.266659
528.965860	11204.612211
529.327669	11256.704975
529.689421	11200.024761
530.051117	11172.610967
530.412755	11279.879159
530.774337	11165.951602
531.135862	11152.174129
531.497331	11171.995946
531.858743	11021.993893
532.220098	11192.664677
532.581396	11061.957640
532.942638	11045.674713
533.303824	11012.035093
533.664953	11023.702844
534.026025	10939.119844
534.387040	11039.590040
534.747999	11039.761439
535.108902	11095.476272
535.469748	10851.716319
535.830537	10957.257916
536.191270	10940.228898
536.551947	10959.246651
536.912567	10954.490322
537.273131	10888.244519
537.633638	10861.851558
537.994089	10851.083654
538.354483	10797.334872
538.714821	10952.173912
539.075103	10955.813625
539.435328	10931.754718
539.795497	10746.835113
540.155609	10900.905377
540.515665	10994.267547
540.875665	10728.944058
541.235609	10794.042998
541.595496	10789.044694
541.955328	10943.941708
542.315102	10828.544655
542.674821	10780.293251
543.034483	10780.300813
543.394090	10785.190732
543.753640	10710.324556
544.113134	10937.226891
544.472571	10791.056114
544.831953	10929.700448
545.191278	10740.480738
545.550548	10766.538463
545.909761	10902.803372
546.268918	10885.678572
546.628019	10958.198091
546.987064	10827.778400
547.346053	10747.596327
547.704986	10850.128355
548.063863	10832.673360
548.422684	10824.564664
548.781449	10750.719322
549.140158	10848.048879
549.498811	10725.258974
549.857408	10580.224978
550.215949	10806.202261
550.574434	10656.923613
550.932864	10762.102247
551.291237	10818.295989
551.649555	10767.695408
552.007817	10780.976327
552.366022	10731.353729
552.724173	10731.220139
553.082267	10717.553571
553.440305	10858.617658
553.798288	10657.263891
554.156215	10807.364247
554.514086	10786.360280
554.871902	10630.994439
555.229661	10673.846767
555.587365	10645.099587
555.945014	10543.361541
556.302606	10667.338637
556.660143	10562.691845
557.017625	10712.240195
557.375050	10612.581624
557.732421	10747.530792
558.089735	10662.972998
558.446994	10663.792186
558.804197	10692.834273
559.161345	10696.027844
559.518437	10549.055524
559.875474	10635.165993
560.232455	10665.531384
560.589381	10620.735691
560.946251	10614.169588
561.303065	10716.147089
561.659825	10654.939919
562.016528	10586.027346
562.373177	10469.516199
562.729770	10581.069372
563.086307	10499.460652
563.442789	10588.588253
563.799216	10466.345313
564.155587	10521.896308
564.511904	10469.029727
564.868164	10459.441453
565.224370	10480.699998
565.580520	10402.284850
565.936615	10405.274255
566.292654	10277.332291
566.648638	10406.766436
567.004567	10361.859838
567.360441	10348.329381
567.716260	10258.831256
568.072023	10353.494043
568.427732	10300.619901
568.783385	10214.930368
569.138982	10288.362335
569.494525	10299.445312
569.850013	10172.859418
570.205445	10256.663560
570.560823	10156.223611
570.916145	10068.560466
571.271412	10143.361107
571.626625	10087.013609
571.981782	10064.540146
572.336884	10033.022852
572.691931	10044.365448
573.046923	9983.516200
573.401860	9941.104973
573.756743	9878.675324
574.111570	9920.060676
574.466342	9909.244881
574.821059	9936.366288
575.175722	9830.776801
575.530330	9839.402215
575.884882	9831.714455
576.239380	9752.253268
576.593823	9730.321728
576.948211	9754.078165
577.302544	9631.305905
577.656823	9647.445159
578.011047	9649.474223
578.365216	9619.491961
578.719330	9547.751300
579.073389	9556.669101
579.427394	9507.419549
579.781344	9483.874840
580.135239	9430.700749
580.489080	9442.071072
580.842866	9342.591462
581.196597	9349.931382
581.550273	9389.514522
581.903895	9359.191982
582.257463	9420.746991
582.610975	9298.700656
582.964434	9329.023197
583.317837	9248.896577
583.671186	9229.624246
584.024481	9218.246361
584.377721	9146.946802
584.730906	9123.291188
585.084037	9149.689190
585.437113	9083.569416
585.790135	9103.754196
586.143103	9002.046396
586.496016	8981.748190
586.848874	9037.924288
587.201679	9027.836939
587.554428	8912.427284
587.907124	8959.678019
588.259765	8932.692722
588.612352	8935.470398
588.964884	8808.539185
589.317362	8824.184406
589.669786	8825.658944
590.022155	8872.377837
590.374470	8885.121874
590.726731	8827.199016
591.078937	8679.407509
591.431090	8787.767111
591.783188	8666.799583
592.135232	8652.608735
592.487222	8651.668560
592.839157	8708.469761
593.191038	8640.169688
593.542866	8584.381759
593.894639	8483.346954
594.246358	8540.067496
594.598022	8553.953354
594.949633	8450.617262
595.301190	8432.267462
595.652692	8456.946431
596.004141	8564.736382
596.355535	8349.627827
596.706876	8326.957758
597.058162	8258.773632
597.409395	8334.116197
597.760573	8393.831185
598.111698	8304.257443
598.462768	8288.450905
598.813785	8255.801872
599.164748	8225.186945
599.515657	8214.797127
599.866511	8125.311605
600.217312	8252.648630
600.568060	8112.784337
600.918753	8212.662198
601.269392	8186.286881
601.619978	8089.867252
601.970510	8161.572624
602.320988	8154.696490
602.671412	8212.919297
603.021783	8143.711816
603.372100	8121.445040
603.722363	8125.682129
604.072572	8105.373841
604.422728	8107.468441
604.772830	8041.749438
605.122878	8044.607773
605.472872	8043.637351
605.822813	8075.825118
606.172701	8014.791868
606.522534	8089.148888
606.872314	8094.742048
607.222041	8062.834064
607.571714	8113.848021
607.921333	8069.387564
608.270899	8076.987104
608.620411	8170.079571
608.969870	8078.333092
609.319276	8065.659631
609.668627	8081.637568
610.017926	8122.617108
610.367171	8164.045310
610.716362	8139.104202
611.065500	8131.673541
611.414585	8157.595154
611.763616	8149.539390
612.112594	8132.225547
612.461518	8144.324316
612.810389	8205.965025
613.159207	8149.095768
613.507971	8094.739527
613.856682	8211.800161
614.205340	8170.863471
614.553945	8243.866940
614.902496	8144.609142
615.250994	8200.870939
615.599439	8179.506529
615.947830	8195.512192
616.296169	8164.337697
616.644454	8183.665481
616.992686	8178.687342
617.340864	8236.731187
617.688990	8139.207545
618.037063	8236.330415
618.385082	8179.597270
618.733048	8267.479705
619.080961	8204.233389
619.428821	8222.540339
619.776628	8219.618990
620.124382	8176.562495
620.472083	8162.641349
620.819731	8188.429371
621.167326	8079.921055
621.514868	8092.128209
621.862357	7980.620407
622.209793	7989.124833
622.557176	7932.172398
622.904506	7900.524034
623.251783	7832.022315
623.599007	7783.917104
623.946179	7791.592261
624.293297	7746.433605
624.640363	7665.525606
624.987376	7648.582288
625.334336	7596.358455
625.681243	7539.022892
626.028097	7527.458485
626.374899	7512.932400
626.721647	7502.537541
627.068343	7434.010616
627.414987	7405.112202
627.761577	7365.745831
628.108115	7400.186994
628.454600	7294.040459
628.801032	7342.478386
629.147412	7304.745349
629.493739	7293.443082
629.840014	7231.777168
630.186236	7288.727083
630.532405	7172.944382
630.878521	7222.914819
631.224585	7175.175092
631.570597	7098.738597
631.916556	7132.829400
632.262462	7129.023329
632.608316	7091.993533
632.954117	7069.043680
633.299866	7057.751496
633.645562	7051.949128
633.991206	6972.772765
634.336797	6909.791110
634.682336	6867.493308
635.027823	6836.717064
635.373257	6828.494942
635.718639	6759.373161
636.063968	6774.136180
636.409245	6673.809657
636.754470	6662.870353
637.099642	6624.633201
637.444762	6564.638429
637.789829	6576.459935
638.134845	6522.219640
638.479808	6504.656260
638.824719	6507.343195
639.169577	6437.382062
639.514383	6456.866122
639.859137	6378.350151
640.203839	6395.651391
640.548489	6381.455502
