Dividing Wavelength (nm)	Counts (n)	Blue Motor Position (mm): 21.100000	Red Motor Position (mm): 0.000000	
326.493990	2135.589045
326.888308	2135.589045
327.282561	2135.589045
327.676750	2100.157295
328.070874	2100.845413
328.464933	2102.718201
328.858929	2109.498553
329.252859	2118.214708
329.646726	2130.371451
330.040528	2144.718575
330.434265	2159.277427
330.827938	2178.471620
331.221547	2194.673889
331.615091	2212.990921
332.008571	2232.648901
332.401986	2252.248907
332.795338	2269.867739
333.188625	2295.507048
333.581847	2311.066569
333.975006	2328.133396
334.368100	2347.599811
334.761129	2367.020856
335.154095	2380.508463
335.546996	2402.475291
335.939833	2426.176276
336.332606	2439.326126
336.725315	2452.405400
337.117960	2461.729014
337.510540	2470.513224
337.903056	2483.567292
338.295508	2485.830770
338.687896	2496.512975
339.080220	2506.675941
339.472480	2509.740963
339.864676	2515.881088
340.256807	2522.013652
340.648875	2522.971471
341.040879	2524.357788
341.432818	2526.643952
341.824694	2530.301309
342.216506	2528.604961
342.608253	2528.189065
342.999937	2527.526154
343.391557	2530.203006
343.783113	2527.238808
344.174605	2526.613705
344.566033	2524.209074
344.957397	2521.633045
345.348697	2522.732016
345.739934	2519.707324
346.131106	2519.425019
346.522215	2515.412261
346.913260	2513.846983
347.304241	2512.085099
347.695159	2508.886487
348.086012	2509.682990
348.476802	2508.599142
348.867528	2507.558143
349.258191	2503.247957
349.648789	2505.390447
350.039324	2502.900117
350.429796	2503.411794
350.820203	2499.572956
351.210548	2498.342914
351.600828	2498.968017
351.991045	2497.538850
352.381198	2495.862666
352.771288	2494.872080
353.161314	2493.208499
353.551276	2494.332676
353.941175	2493.137923
354.331010	2494.473828
354.720782	2496.021463
355.110490	2494.887203
355.500135	2497.601864
355.889717	2495.421565
356.279235	2495.338386
356.668689	2499.348624
357.058080	2497.057420
357.447408	2494.778818
357.836672	2491.880155
358.225873	2494.592296
358.615010	2492.280927
359.004084	2499.996412
359.393095	2499.041114
359.782043	2497.765702
360.170927	2502.154026
360.559748	2500.802997
360.948505	2500.714777
361.337199	2500.636639
361.725830	2499.580517
362.114398	2503.333656
362.502903	2500.936588
362.891344	2502.378358
363.279722	2504.793070
363.668037	2502.262411
364.056289	2504.175529
364.444478	2502.927843
364.832603	2505.435818
365.220665	2506.817094
365.608665	2506.590242
365.996601	2506.088647
366.384474	2506.509583
366.772284	2507.227948
367.160031	2508.314316
367.547715	2505.448420
367.935336	2508.193329
368.322893	2510.242558
368.710388	2505.987824
369.097820	2511.500326
369.485189	2506.900273
369.872495	2508.079903
370.259738	2510.114008
370.646918	2506.539830
371.034035	2510.295490
371.421090	2512.490912
371.808081	2507.129645
372.195010	2513.489061
372.581875	2512.034688
372.968678	2510.398833
373.355418	2512.221211
373.742096	2513.554596
374.128710	2510.068638
374.515262	2512.785820
374.901751	2513.685666
375.288177	2514.096520
375.674540	2511.223062
376.060841	2512.710203
376.447079	2512.674914
376.833254	2512.821108
377.219367	2510.262722
377.605417	2510.071158
377.991404	2507.837927
378.377329	2513.075686
378.763191	2507.505211
379.148991	2514.398989
379.534727	2514.509894
379.920402	2516.733043
380.306013	2517.461490
380.691563	2516.677591
381.077049	2518.200019
381.462474	2515.780265
381.847835	2518.542818
382.233134	2517.615245
382.618371	2516.455780
383.003545	2518.066428
383.388657	2515.203053
383.773706	2517.602642
384.158693	2518.499968
384.543618	2519.198168
384.928480	2517.280008
385.313280	2519.856038
385.698017	2518.744464
386.082692	2518.961233
386.467305	2520.337468
386.851856	2518.419309
387.236344	2520.314783
387.620770	2521.451563
388.005133	2519.485513
388.389435	2521.401152
388.773674	2520.357633
389.157851	2520.707993
389.541965	2518.958713
389.926018	2522.837881
390.310008	2520.667664
390.693936	2521.827129
391.077802	2519.074659
391.461606	2521.738909
391.845348	2519.692201
392.229027	2523.246214
392.612645	2518.651202
392.996200	2521.259999
393.379694	2522.936183
393.763125	2522.351409
394.146494	2520.430730
394.529801	2522.026255
394.913047	2521.754033
395.296230	2525.292923
395.679351	2520.886954
396.062410	2526.117151
396.445408	2524.330062
396.828343	2524.017511
397.211217	2518.570544
397.594028	2522.298477
397.976778	2519.692201
398.359466	2523.934332
398.742092	2523.460463
399.124656	2521.998528
399.507158	2525.192099
399.889598	2526.775022
400.271977	2525.817203
400.654294	2524.546832
401.036549	2526.996832
401.418742	2525.955834
401.800874	2524.325021
402.182944	2525.910464
402.564952	2525.570186
402.946898	2528.756195
403.328783	2528.085722
403.710606	2528.151257
404.092367	2527.397604
404.474067	2528.705784
404.855705	2529.015815
405.237282	2529.973634
405.618797	2526.580937
406.000250	2529.136802
406.381642	2528.970444
406.762972	2530.528161
407.144240	2527.828623
407.525447	2530.601257
407.906593	2528.554549
408.287677	2526.643952
408.668700	2530.263500
409.049661	2528.511699
409.430560	2530.013963
409.811399	2529.865249
410.192176	2530.160157
410.572891	2531.196114
410.953545	2525.993643
411.334138	2533.270548
411.714669	2529.855167
412.095139	2533.245343
412.475547	2532.194262
412.855894	2529.524971
413.236180	2527.238808
413.616405	2533.830117
413.996568	2532.325332
414.376670	2530.664272
414.756711	2527.821061
415.136691	2532.867256
415.516609	2533.565456
415.896466	2533.026053
416.276262	2536.685930
416.655997	2529.817358
417.035670	2529.091432
417.415283	2529.305681
417.794834	2528.332738
418.174324	2532.080836
418.553753	2534.919006
418.933121	2535.128214
419.312428	2531.359951
419.691674	2532.635363
420.070859	2535.292051
420.449983	2530.702081
420.829045	2532.728624
421.208047	2534.190559
421.586988	2536.317926
421.965867	2532.340456
422.344686	2533.822555
422.723444	2534.876156
423.102141	2534.283820
423.480777	2532.471526
423.859352	2535.193749
424.237866	2536.685930
424.616319	2536.827082
424.994712	2537.764737
425.373044	2536.126362
425.751314	2537.616023
426.129524	2536.413708
426.507673	2534.838347
426.885762	2538.001671
427.263789	2536.975797
427.641756	2540.343287
428.019662	2536.980838
428.397508	2537.694161
428.775292	2536.832124
429.153016	2535.954963
429.530679	2536.716177
429.908282	2537.273225
430.285824	2539.012423
430.663305	2536.446475
431.040726	2539.163657
431.418086	2537.910931
431.795385	2537.631147
432.172624	2537.621064
432.549802	2538.036959
432.926920	2539.597197
433.303977	2539.506456
433.680974	2539.985365
434.057910	2539.463606
434.434786	2539.405633
434.811601	2540.219779
435.188355	2541.711961
435.565050	2539.735828
435.941683	2542.163144
436.318257	2539.387989
436.694770	2534.593851
437.071222	2535.768440
437.447614	2535.198790
437.823946	2538.286497
438.200218	2537.850437
438.576429	2538.359593
438.952580	2542.800850
439.328670	2542.384955
439.704700	2539.917310
440.080670	2540.867567
440.456580	2541.008720
440.832429	2541.780016
441.208218	2538.795653
441.583947	2539.819007
441.959616	2541.157434
442.335224	2541.812784
442.710773	2542.637012
443.086261	2541.636343
443.461689	2542.435366
443.837057	2541.293545
444.212365	2543.052907
444.587612	2544.960984
444.962800	2539.526620
445.337927	2544.323278
445.712995	2543.352856
446.088002	2544.701365
446.462949	2544.310675
446.837837	2544.446787
447.212664	2542.891591
447.587431	2543.436035
447.962139	2545.938968
448.336786	2545.240768
448.711374	2546.448125
449.085901	2546.082641
449.460369	2543.161292
449.834776	2543.836807
450.209124	2544.958464
450.583412	2545.069369
450.957640	2547.577343
451.331808	2547.148845
451.705917	2543.501570
452.079965	2545.271015
452.453954	2543.856972
452.827883	2545.046684
453.201752	2544.293031
453.575562	2545.636499
453.949311	2546.352343
454.323001	2547.151366
454.696632	2546.929555
455.070202	2546.775800
455.443713	2545.449976
455.817164	2546.274205
456.190556	2543.126004
456.563888	2547.400903
456.937160	2541.661549
457.310373	2548.416695
457.683526	2546.480892
458.056619	2549.261088
458.429653	2547.809236
458.802628	2550.145811
459.175542	2549.266130
459.548398	2551.209494
459.921194	2547.975594
460.293930	2548.063814
460.666607	2549.377035
461.039224	2550.075235
461.411782	2550.022303
461.784280	2549.316541
462.156719	2549.553475
462.529099	2551.242262
462.901419	2550.493651
463.273680	2549.351829
463.645882	2551.290153
464.018024	2550.677653
464.390106	2549.588763
464.762130	2553.011707
465.134094	2550.430636
465.505999	2552.691594
465.877845	2555.318035
466.249631	2556.084290
466.621358	2553.760318
466.993026	2558.027655
467.364634	2557.180741
467.736184	2554.158569
468.107674	2554.158569
468.479105	2555.312994
468.850477	2553.306614
469.221790	2556.921122
469.593043	2555.691080
469.964238	2554.085473
470.335373	2555.812068
470.706449	2556.041440
471.077467	2559.502193
471.448425	2559.393808
471.819324	2560.918757
472.190164	2559.229970
472.560945	2560.013870
472.931667	2557.798283
473.302330	2557.886503
473.672934	2559.431616
474.043479	2559.613098
474.413965	2561.639642
474.784393	2557.528581
475.154761	2559.824826
475.525070	2560.828016
475.895321	2562.715928
476.265513	2560.359189
476.635645	2567.568039
477.005719	2568.699778
477.375734	2570.751527
477.745691	2571.452248
478.115588	2576.435428
478.485427	2577.229410
478.855207	2585.171748
479.224928	2592.405804
479.594591	2598.162801
479.964194	2602.846033
480.333739	2602.354521
480.703226	2609.321395
481.072653	2613.475306
481.442022	2622.325052
481.811333	2628.928963
482.180584	2630.610188
482.549777	2639.666621
482.918912	2643.649132
483.287988	2648.506284
483.657005	2657.398880
484.025964	2661.104128
484.394864	2666.034376
484.763706	2675.627692
485.132489	2678.133145
485.501213	2688.777542
485.869879	2700.200796
486.238487	2706.194728
486.607036	2717.333158
486.975527	2724.912532
487.343959	2737.149933
487.712333	2749.175606
488.080648	2758.347985
488.448905	2776.186108
488.817104	2787.548869
489.185244	2807.214410
489.553326	2829.551763
489.921350	2867.965355
490.289315	2930.654624
490.657222	2955.134467
491.025070	2975.263794
491.392861	2991.970178
491.760593	2998.455622
492.128267	2997.835561
492.495883	3001.271107
492.863440	3007.476767
493.230939	3017.977491
493.598380	3035.397198
493.965763	3051.372614
494.333088	3068.331056
494.700354	3092.644541
495.067563	3115.664970
495.434713	3133.316570
495.801805	3171.251253
496.168839	3196.094059
496.535815	3225.615056
496.902733	3245.298241
497.269593	3275.502314
497.636395	3307.995072
498.003139	3351.147348
498.369825	3366.772405
498.736453	3417.269643
499.103023	3440.932819
499.469535	3483.109633
499.835989	3512.003006
500.202385	3549.448697
500.568723	3574.883838
500.935003	3635.163436
501.301226	3669.836492
501.667390	3731.081470
502.033497	3795.673774
502.399546	3811.729849
502.765537	3840.648428
503.131470	3902.016914
503.497345	3976.421825
503.863163	3959.281902
504.228923	4059.326120
504.594625	4113.773102
504.960269	4123.076552
505.325856	4212.332701
505.691385	4231.647882
506.056856	4311.618226
506.422270	4372.071743
506.787625	4398.656268
507.152924	4484.088702
507.518164	4524.740567
507.883347	4565.969643
508.248472	4607.614615
508.613540	4719.810535
508.978550	4756.222790
509.343503	4806.639369
509.708398	4897.730499
510.073236	4987.707533
510.438016	5048.342532
510.802738	5101.277168
511.167403	5180.566956
511.532010	5218.231937
511.896561	5335.269885
512.261053	5430.961067
512.625488	5457.240602
512.989866	5518.362072
513.354186	5581.154684
513.718449	5613.211382
514.082655	5742.103603
514.446803	5779.824037
514.810894	5886.968721
515.174927	5917.792856
515.538904	5978.982381
515.902822	6116.923474
516.266684	6138.872658
516.630488	6190.645308
516.994235	6267.853100
517.357925	6373.545931
517.721558	6477.179451
518.085133	6563.466361
518.448651	6627.337780
518.812112	6648.258569
519.175516	6733.610345
519.538863	6857.796649
519.902152	6872.819288
520.265385	7040.777931
520.628560	7051.513068
520.991678	7127.896631
521.354739	7218.526495
521.717743	7249.509426
522.080690	7308.690052
522.443580	7463.587066
522.806413	7502.756831
523.169189	7588.564831
523.531908	7685.453287
523.894569	7654.132599
524.257174	7730.947180
524.619722	7874.615024
524.982213	7891.999443
525.344647	8001.785691
525.707025	8034.217955
526.069345	8156.027355
526.431608	8188.048764
526.793815	8311.307496
527.155964	8244.731498
527.518057	8334.859767
527.880093	8369.552988
528.242072	8478.681366
528.603995	8478.943506
528.965860	8480.818815
529.327669	8583.625586
529.689421	8598.328111
530.051117	8638.508628
530.412755	8777.611707
530.774337	8736.990089
531.135862	8792.246176
531.497331	8849.306997
531.858743	8808.745873
532.220098	8975.552612
532.581396	8931.747506
532.942638	8970.435841
533.303824	8996.012135
533.664953	9062.310870
534.026025	9042.874701
534.387040	9166.745934
534.747999	9211.707985
535.108902	9300.767529
535.469748	9158.337289
535.830537	9286.264130
536.191270	9316.586670
536.551947	9382.356084
536.912567	9416.686341
537.273131	9394.969051
537.633638	9415.660467
537.994089	9454.610942
538.354483	9449.106002
538.714821	9603.514023
539.075103	9646.119335
539.435328	9660.922683
539.795497	9541.598572
540.155609	9715.987207
540.515665	9830.726389
540.875665	9634.018045
541.235609	9732.433971
541.595496	9760.765256
541.955328	9927.546790
542.315102	9845.892700
542.674821	9844.650056
543.034483	9867.017656
543.394090	9902.595599
543.753640	9865.555721
544.113134	10095.359240
544.472571	9986.394699
544.831953	10150.759000
545.191278	9991.614814
545.550548	10045.172032
545.909761	10189.855668
546.268918	10183.720584
546.628019	10289.131111
546.987064	10187.178816
547.346053	10134.995312
547.704986	10248.328012
548.063863	10259.905022
548.422684	10271.721486
548.781449	10207.373678
549.140158	10324.119239
549.498811	10224.669877
549.857408	10104.168656
550.215949	10338.864614
550.574434	10221.035205
550.932864	10327.403551
551.291237	10389.898735
551.649555	10367.556342
552.007817	10387.471420
552.366022	10367.531136
552.724173	10375.783505
553.082267	10373.542712
553.440305	10521.228355
553.798288	10339.318318
554.156215	10497.988636
554.514086	10487.074538
554.871902	10346.423825
555.229661	10385.399506
555.587365	10382.170647
555.945014	10281.395461
556.302606	10408.626622
556.660143	10322.720319
557.017625	10479.515327
557.375050	10388.020906
557.732421	10524.318582
558.089735	10457.268715
558.446994	10452.877870
558.804197	10503.181024
559.161345	10506.871149
559.518437	10359.460248
559.875474	10454.251585
560.232455	10496.236835
560.589381	10444.635584
560.946251	10446.273959
561.303065	10560.377956
561.659825	10505.757054
562.016528	10435.364902
562.373177	10319.181429
562.729770	10434.666702
563.086307	10358.512512
563.442789	10453.636564
563.799216	10337.332104
564.155587	10396.701772
564.511904	10345.975162
564.868164	10341.112969
565.224370	10354.300627
565.580520	10287.737232
565.936615	10290.915680
566.292654	10170.006125
566.648638	10299.309201
567.004567	10257.071893
567.360441	10248.222148
567.716260	10157.340226
568.072023	10252.902859
568.427732	10206.834275
568.783385	10117.759607
569.138982	10191.970433
569.494525	10208.460047
569.850013	10084.974463
570.205445	10169.955714
570.560823	10065.984436
570.916145	9990.588939
571.271412	10056.333147
571.626625	10003.761474
571.981782	9983.584256
572.336884	9956.659453
572.691931	9964.616915
573.046923	9910.479963
573.401860	9867.562100
573.756743	9806.140682
574.111570	9848.609882
574.466342	9831.890896
574.821059	9870.158294
575.175722	9753.969781
575.530330	9763.021172
575.884882	9761.649978
576.239380	9685.024440
576.593823	9661.877982
576.948211	9684.434625
577.302544	9567.810051
577.656823	9581.874871
578.011047	9587.195808
578.365216	9557.999966
578.719330	9482.647319
579.073389	9495.159463
579.427394	9442.933109
579.781344	9425.190768
580.135239	9372.220844
580.489080	9377.085557
580.842866	9287.688256
581.196597	9289.959295
581.550273	9328.108227
581.903895	9297.889030
582.257463	9362.602322
582.610975	9241.312161
582.964434	9269.030945
583.317837	9193.186786
583.671186	9172.966718
584.024481	9174.705916
584.377721	9092.227598
584.730906	9066.036283
585.084037	9099.985933
585.437113	9030.118062
585.790135	9056.805930
586.143103	8953.810116
586.496016	8931.888658
586.848874	8988.427719
587.201679	8977.374989
587.554428	8862.517340
587.907124	8907.365965
588.259765	8884.010300
588.612352	8882.775217
588.964884	8761.384232
589.317362	8779.550030
589.669786	8778.929968
590.022155	8824.610384
590.374470	8836.242846
590.726731	8779.247561
591.078937	8628.814489
591.431090	8742.618537
591.783188	8612.050132
592.135232	8611.384700
592.487222	8601.783822
592.839157	8664.241198
593.191038	8589.180937
593.542866	8538.232516
593.894639	8440.164430
594.246358	8495.773398
594.598022	8512.835183
594.949633	8407.260819
595.301190	8381.901294
595.652692	8407.076817
596.004141	8516.860544
596.355535	8307.330026
596.706876	8278.189636
597.058162	8213.564564
597.409395	8292.468704
597.760573	8348.826284
598.111698	8261.407635
598.462768	8248.179647
598.813785	8215.182775
599.164748	8178.147938
599.515657	8171.652411
599.866511	8083.240655
600.217312	8206.751445
600.568060	8070.080723
600.918753	8169.278028
601.269392	8144.914131
601.619978	8051.491468
601.970510	8115.778783
602.320988	8112.738967
602.671412	8172.133842
603.021783	8105.683872
603.372100	8079.033812
603.722363	8087.215605
604.072572	8054.566572
604.422728	8069.581649
604.772830	7999.439034
605.122878	8004.510435
605.472872	8001.606730
605.822813	8034.240640
606.172701	7973.388872
606.522534	8052.277888
606.872314	8051.776293
607.222041	8020.145574
607.571714	8072.676917
607.921333	8037.434211
608.270899	8037.945888
608.620411	8131.023232
608.969870	8037.235085
609.319276	8026.804938
609.668627	8040.103502
610.017926	8077.856703
610.367171	8123.978219
610.716362	8103.248995
611.065500	8091.102335
611.414585	8118.163248
611.763616	8107.808718
612.112594	8088.022190
612.461518	8109.437011
612.810389	8164.730907
613.159207	8106.054397
613.507971	8051.446098
613.856682	8171.788522
614.205340	8125.914022
614.553945	8204.863533
614.902496	8107.662525
615.250994	8161.393663
615.599439	8138.579922
615.947830	8153.078280
616.296169	8124.610884
616.644454	8137.589335
616.992686	8138.292576
617.340864	8195.658386
617.688990	8097.313036
618.037063	8198.292389
618.385082	8141.292062
618.733048	8223.394814
619.080961	8163.173191
619.428821	8184.184720
619.776628	8183.153804
620.124382	8133.211093
620.472083	8124.991491
620.819731	8142.900190
621.167326	8041.424284
621.514868	8046.881333
621.862357	7940.308820
622.209793	7957.683157
622.557176	7892.725369
622.904506	7858.720266
623.251783	7800.794887
623.599007	7751.308401
623.946179	7755.006087
624.293297	7708.783747
624.640363	7626.907847
624.987376	7616.046681
625.334336	7561.254380
625.681243	7509.040629
626.028097	7499.832962
626.374899	7479.718758
626.721647	7470.503529
627.068343	7398.808239
627.414987	7370.734053
627.761577	7325.434244
628.108115	7361.617126
628.454600	7260.547033
628.801032	7315.659447
629.147412	7275.763756
629.493739	7261.204903
629.840014	7198.155192
630.186236	7249.242245
630.532405	7137.268136
630.878521	7184.967534
631.224585	7141.895915
631.570597	7068.431180
631.916556	7101.770851
632.262462	7091.093687
632.608316	7058.421969
632.954117	7039.915893
633.299866	7027.207145
633.645562	7014.175762
633.991206	6933.744152
634.336797	6881.858076
634.682336	6835.602969
635.027823	6805.592980
635.373257	6793.968080
635.718639	6728.390230
636.063968	6740.262147
636.409245	6638.231714
636.754470	6633.016640
637.099642	6591.432162
637.444762	6538.028699
637.789829	6551.544032
638.134845	6492.950701
638.479808	6469.433718
638.824719	6480.443598
639.169577	6408.440798
639.514383	6430.100116
639.859137	6359.660073
640.203839	6361.878181
640.548489	6351.203537
640.893086	6324.445093
641.237632	6301.396937
641.582125	6322.952911
641.926566	6290.611389
642.270955	6302.032123
642.615292	6304.396424
642.959576	6314.929915
643.303809	6303.168903
