Dividing Wavelength (nm)	Counts (n)	Blue Motor Position (mm): 37.000000	Red Motor Position (mm): 0.000000	
326.493990	2095.741244
326.888308	2095.741244
327.282561	2095.741244
327.676750	2073.192163
328.070874	2076.910014
328.464933	2082.941755
328.858929	2091.115986
329.252859	2105.034612
329.646726	2120.969699
330.040528	2134.361524
330.434265	2154.687456
330.827938	2174.988183
331.221547	2191.790349
331.615091	2214.271374
332.008571	2234.990517
332.401986	2256.675040
332.795338	2277.973915
333.188625	2295.950669
333.581847	2314.416416
333.975006	2332.705722
334.368100	2352.900584
334.761129	2368.893645
335.154095	2384.889226
335.546996	2429.815989
335.939833	2514.686335
336.332606	2526.550690
336.725315	2536.544778
337.117960	2545.886036
337.510540	2554.203940
337.903056	2567.363872
338.295508	2567.487380
338.687896	2578.603124
339.080220	2584.042529
339.472480	2591.352203
339.864676	2591.062336
340.256807	2596.726073
340.648875	2595.420414
341.040879	2597.696495
341.432818	2600.390991
341.824694	2598.591299
342.216506	2601.195055
342.608253	2601.326125
342.999937	2597.671289
343.391557	2599.307143
343.783113	2598.218254
344.174605	2595.128027
344.566033	2591.160639
344.957397	2593.603078
345.348697	2591.140474
345.739934	2589.494537
346.131106	2587.767942
346.522215	2584.844073
346.913260	2584.155955
347.304241	2581.978177
347.695159	2581.038002
348.086012	2580.309555
348.476802	2579.112281
348.867528	2576.962229
349.258191	2577.189081
349.648789	2577.178998
350.039324	2571.885787
350.429796	2573.690520
350.820203	2572.031980
351.210548	2571.721949
351.600828	2573.808987
351.991045	2571.016188
352.381198	2569.463513
352.771288	2570.572566
353.161314	2568.583831
353.551276	2574.056004
353.941175	2566.900086
354.331010	2570.789336
354.720782	2573.990469
355.110490	2572.964594
355.500135	2571.694223
355.889717	2570.275138
356.279235	2571.669017
356.668689	2572.480643
357.058080	2573.158678
357.447408	2569.206414
357.836672	2572.737742
358.225873	2569.226578
358.615010	2571.669017
359.004084	2573.866960
359.393095	2577.965418
359.782043	2577.625141
360.170927	2577.635223
360.559748	2577.302507
360.948505	2578.489698
361.337199	2578.313258
361.725830	2579.858372
362.114398	2581.579926
362.502903	2580.977508
362.891344	2583.145204
363.279722	2578.777044
363.668037	2583.651840
364.056289	2583.064546
364.444478	2584.423137
364.832603	2582.371387
365.220665	2584.529001
365.608665	2582.658733
365.996601	2585.998497
366.384474	2584.281984
366.772284	2587.815833
367.160031	2586.638724
367.547715	2589.721389
367.935336	2586.114444
368.322893	2589.003025
368.710388	2588.846749
369.097820	2590.041503
369.485189	2589.381111
369.872495	2590.001173
370.259738	2586.762232
370.646918	2590.069229
371.034035	2593.373705
371.421090	2593.340938
371.808081	2594.334045
372.195010	2591.785742
372.581875	2593.023345
372.968678	2594.323963
373.355418	2593.850094
373.742096	2597.699015
374.128710	2597.585589
374.515262	2597.764550
374.901751	2599.067688
375.288177	2598.810590
375.674540	2598.049375
376.060841	2602.021805
376.447079	2597.230188
376.833254	2601.305961
377.219367	2594.094590
377.605417	2598.987030
377.991404	2598.563573
378.377329	2601.391660
378.763191	2600.688419
379.148991	2606.808380
379.534727	2603.287134
379.920402	2606.130345
380.306013	2606.684872
380.691563	2609.064297
381.077049	2608.172012
381.462474	2608.035901
381.847835	2608.471961
382.233134	2611.547065
382.618371	2611.368104
383.003545	2612.847682
383.388657	2613.452621
383.773706	2614.846500
384.158693	2613.946654
384.543618	2616.464710
384.928480	2616.416819
385.313280	2616.706686
385.698017	2619.068466
386.082692	2621.699949
386.467305	2620.900926
386.851856	2620.616101
387.236344	2620.293467
387.620770	2622.299846
388.005133	2623.361009
388.389435	2623.368571
388.773674	2623.696246
389.157851	2624.903602
389.541965	2626.829323
389.926018	2629.077677
390.310008	2628.369395
390.693936	2630.506844
391.077802	2629.954838
391.461606	2633.307205
391.845348	2634.350724
392.229027	2633.750827
392.612645	2637.254429
392.996200	2638.492032
393.379694	2637.362814
393.763125	2640.594193
394.146494	2640.236271
394.529801	2644.402785
394.913047	2646.273053
395.296230	2645.461427
395.679351	2643.938999
396.062410	2647.908907
396.445408	2649.486789
396.828343	2652.589619
397.211217	2651.294042
397.594028	2651.999804
397.976778	2655.581544
398.359466	2661.938439
398.742092	2661.953562
399.124656	2667.392967
399.507158	2672.844975
399.889598	2680.958712
400.271977	2685.263857
400.654294	2692.172759
401.036549	2698.509489
401.418742	2706.804708
401.800874	2719.155535
402.182944	2728.063254
402.564952	2745.825759
402.946898	2755.189702
403.328783	2770.797115
403.710606	2791.969961
404.092367	2816.643888
404.474067	2846.313599
404.855705	2866.891589
405.237282	2893.924777
405.618797	2944.227931
406.000250	2985.046153
406.381642	3040.720656
406.762972	3085.959971
407.144240	3119.221504
407.525447	3189.361598
407.906593	3238.127200
408.287677	3315.924807
408.668700	3394.919687
409.049661	3464.749750
409.430560	3553.259809
409.811399	3630.502889
410.192176	3725.934452
410.572891	3822.573371
410.953545	3975.441320
411.334138	3996.626769
411.714669	4177.100077
412.095139	4179.729039
412.475547	4362.843911
412.855894	4437.722690
413.236180	4614.768013
413.616405	4675.105583
413.996568	4845.158826
414.376670	4965.511333
414.756711	5057.061207
415.136691	5253.583028
415.516609	5430.759421
415.896466	5588.499646
416.276262	5814.209747
416.655997	6089.025729
417.035670	6252.981696
417.415283	6617.767150
417.794834	6806.366798
418.174324	6877.474793
418.553753	7009.691656
418.933121	7357.947166
419.312428	7463.254349
419.691674	7599.148734
420.070859	7967.505845
420.449983	7991.463929
420.829045	8411.908763
421.208047	8481.423753
421.586988	8872.902117
421.965867	9177.876801
422.344686	9348.073717
422.723444	9845.484367
423.102141	9312.536103
423.480777	10131.705959
423.859352	10043.783195
424.237866	10858.105981
424.616319	10881.733869
424.994712	11452.647063
425.373044	11513.670230
425.751314	12128.282666
426.129524	11756.237950
426.507673	12656.885455
426.885762	12641.383907
427.263789	12967.170995
427.641756	13269.483950
428.019662	13476.002379
428.397508	13687.209081
428.775292	14063.853850
429.153016	14224.664137
429.530679	14427.905816
429.908282	14611.842396
430.285824	14560.450353
430.663305	15259.033289
431.040726	15104.474033
431.418086	15112.355877
431.795385	15756.413692
432.172624	16255.356853
432.549802	16031.940476
432.926920	16332.441136
433.303977	16356.232862
433.680974	16699.696756
434.057910	17076.593582
434.434786	17231.498157
434.811601	17279.726876
435.188355	18339.952106
435.565050	18148.050502
435.941683	18217.648673
436.318257	19121.852712
436.694770	19047.142812
437.071222	19690.565442
437.447614	18909.166431
437.823946	19017.616773
438.200218	19251.964892
438.576429	19132.756727
438.952580	19482.443926
439.328670	19508.448718
439.704700	19976.570264
440.080670	19620.992477
440.456580	20267.588514
440.832429	20474.795060
441.208218	19562.101718
441.583947	20033.578152
441.959616	20193.153357
442.335224	20485.436936
442.710773	20654.227370
443.086261	21233.244218
443.461689	20613.958633
443.837057	20787.293667
444.212365	21458.528342
444.587612	21497.398159
444.962800	21120.017382
445.337927	21563.487686
445.712995	20303.146292
446.088002	22212.463147
446.462949	22430.079676
446.837837	22629.704327
447.212664	22681.449251
447.587431	25656.176162
447.962139	28613.775753
448.336786	30917.792269
448.711374	29228.657891
449.085901	25532.171339
449.460369	25569.937143
449.834776	25594.921102
450.209124	28160.825560
450.583412	27625.298746
450.957640	28105.085522
451.331808	26760.571982
451.705917	25407.407823
452.079965	25450.537415
452.453954	25855.674785
452.827883	25762.602482
453.201752	25563.416411
453.575562	25737.421918
453.949311	26870.164146
454.323001	26962.508003
454.696632	26726.849184
455.070202	28349.644498
455.443713	28528.920531
455.817164	29124.434556
456.190556	29675.886375
456.563888	29094.061604
456.937160	29525.188643
457.310373	27821.439959
457.683526	28280.411811
458.056619	28278.128169
458.429653	28265.119471
458.802628	28878.816938
459.175542	29015.608647
459.548398	30388.208975
459.921194	32033.941539
460.293930	32780.710344
460.666607	34866.147470
461.039224	36653.922105
461.411782	37010.006528
461.784280	35724.376186
462.156719	35178.048699
462.529099	34625.230727
462.901419	33294.829898
463.273680	32244.180340
463.645882	32370.312530
464.018024	32383.865672
464.390106	33331.897502
464.762130	36248.862873
465.134094	40595.128949
465.505999	46074.202789
465.877845	50577.314285
466.249631	51556.334088
466.621358	49732.230378
466.993026	47534.980460
467.364634	45397.470735
467.736184	43441.550934
468.107674	42163.915862
468.479105	41370.304656
468.850477	40647.007464
469.221790	39204.448523
469.593043	37402.780468
469.964238	36516.240632
470.335373	36458.431200
470.706449	38367.412818
471.077467	41178.153515
471.448425	45805.363096
471.819324	48501.707409
472.190164	46458.822663
472.560945	42838.719674
472.931667	39704.568793
473.302330	38623.657188
473.672934	37781.459342
474.043479	38338.942902
474.413965	37516.576954
474.784393	37141.336147
475.154761	38071.371058
475.525070	38110.538303
475.895321	37636.140520
476.265513	38251.990559
476.635645	39260.138150
477.005719	39113.284297
477.375734	39618.097881
477.745691	40355.696827
478.115588	41741.121850
478.485427	43863.195562
478.855207	47333.079728
479.224928	49974.460341
479.594591	51508.480936
479.964194	50411.677093
480.333739	50550.341592
480.703226	50639.267545
481.072653	51303.053916
481.442022	51754.605190
481.811333	51952.079789
482.180584	50664.662358
482.549777	50150.142032
482.918912	49637.844854
483.287988	49309.091047
483.657005	48480.436261
484.025964	47813.736103
484.394864	47786.493707
484.763706	47372.342754
485.132489	46502.416041
485.501213	46337.303129
485.869879	46483.209245
486.238487	46084.332988
486.607036	46272.733510
486.975527	45694.492999
487.343959	45924.266271
487.712333	46013.391350
488.080648	45897.230563
488.448905	46361.430091
488.817104	46166.239135
489.185244	47195.005044
489.553326	48999.236526
489.921350	51748.205445
490.289315	54525.503128
490.657222	55024.632811
491.025070	55247.655978
491.392861	54333.006668
491.760593	53098.085293
492.128267	51408.560225
492.495883	49870.892356
492.863440	48449.786045
493.230939	47069.268585
493.598380	45991.207753
493.965763	45661.455797
494.333088	44821.549155
494.700354	44319.583823
495.067563	44023.899985
495.434713	43878.303900
495.801805	43960.515037
496.168839	43563.884614
496.535815	43214.792272
496.902733	43237.306065
497.269593	42813.435767
497.636395	42735.018099
498.003139	43145.095799
498.369825	42577.323245
498.736453	42902.086978
499.103023	42418.065633
499.469535	42289.216261
499.835989	42378.343861
500.202385	42028.175233
500.568723	42056.851836
500.935003	42231.043866
501.301226	42042.338354
501.667390	42654.213444
502.033497	42895.840989
502.399546	42321.590551
502.765537	41609.802313
503.131470	41996.766324
503.497345	42366.834907
503.863163	40993.556544
504.228923	41620.905455
504.594625	42055.331928
504.960269	41307.905253
505.325856	42019.401104
505.691385	41374.844215
506.056856	41492.978614
506.422270	41961.511014
506.787625	41522.159333
507.152924	41719.646535
507.518164	41824.316012
507.883347	40997.271874
508.248472	41240.739440
508.613540	41748.207192
508.978550	42051.467884
509.343503	41797.696199
509.708398	41990.850530
510.073236	42526.372303
510.438016	42539.567523
510.802738	41990.774912
511.167403	42607.928090
511.532010	42843.344933
511.896561	43130.973007
512.261053	44015.173748
512.625488	43541.509453
512.989866	43417.464301
513.354186	43237.827824
513.718449	43248.807457
514.082655	43940.312613
514.446803	43580.480093
514.810894	44132.199093
515.174927	44024.570458
515.538904	43930.106797
515.902822	44616.326303
516.266684	44036.729721
516.630488	44483.154141
516.994235	44321.723792
517.357925	44910.172640
517.721558	45070.720787
518.085133	45389.165434
518.448651	45505.401839
518.812112	45280.621830
519.175516	45378.465585
519.538863	45705.099587
519.902152	45677.068251
520.265385	46162.801068
520.628560	46160.686304
520.991678	45961.190202
521.354739	46173.087542
521.717743	46502.403438
522.080690	46399.858807
522.443580	46925.928417
522.806413	46967.512895
523.169189	46933.898481
523.531908	47114.112169
523.894569	46964.982235
524.257174	47132.247720
524.619722	47424.687575
524.982213	47390.422852
525.344647	47310.646593
525.707025	47355.449848
526.069345	47769.810009
526.431608	47690.333698
526.793815	48010.812451
527.155964	47535.194709
527.518057	47691.586424
527.880093	47470.045357
528.242072	48000.316768
528.603995	47697.963484
528.965860	47697.293011
529.327669	47799.099113
529.689421	47690.492494
530.051117	47658.939912
530.412755	47801.818815
530.774337	47850.029890
531.135862	47659.219696
531.497331	47863.862816
531.858743	47758.132176
532.220098	48097.174978
532.581396	47802.978280
532.942638	47456.099005
533.303824	47771.539124
533.664953	47731.739215
534.026025	47453.606154
534.387040	47931.610882
534.747999	47878.532574
535.108902	48054.975479
535.469748	47555.092143
535.830537	47660.623658
536.191270	47847.587451
536.551947	47501.713885
536.912567	47819.903954
537.273131	47938.429043
537.633638	47429.272505
537.994089	47754.250487
538.354483	47353.763582
538.714821	47926.441179
539.075103	48272.367677
539.435328	48028.728711
539.795497	47894.613854
540.155609	47900.333043
540.515665	48374.884581
540.875665	47805.849217
541.235609	48129.314854
541.595496	48113.047051
541.955328	48785.904978
542.315102	48137.292480
542.674821	47898.472858
543.034483	47948.052606
543.394090	47928.971838
543.753640	47868.357005
544.113134	48890.561852
544.472571	47862.133700
544.831953	49129.371392
545.191278	48321.254266
545.550548	48037.517963
545.909761	48497.782871
546.268918	48698.259477
546.628019	49017.246048
546.987064	48553.472498
547.346053	47801.602045
547.704986	48686.231284
548.063863	48241.722502
548.422684	48404.574457
548.781449	48241.130167
549.140158	48650.408845
549.498811	48494.755658
549.857408	47902.117612
550.215949	48748.313094
550.574434	48693.621616
550.932864	48431.093447
551.291237	49149.415020
551.649555	48747.952651
552.007817	48978.812292
552.366022	48616.219739
552.724173	48776.188154
553.082267	49177.837045
553.440305	49445.751687
553.798288	48725.753930
554.156215	49044.420388
554.514086	49258.193038
554.871902	48984.841512
555.229661	49006.299183
555.587365	48835.666208
555.945014	48922.270710
556.302606	48836.041773
556.660143	49063.082740
557.017625	49128.831989
557.375050	48897.881608
557.732421	49255.858983
558.089735	49207.519359
558.446994	49124.095825
558.804197	49579.488458
559.161345	49509.643271
559.518437	48729.413808
559.875474	49048.604546
560.232455	49226.592565
560.589381	49376.524042
560.946251	49072.456765
561.303065	49749.907184
561.659825	49524.398728
562.016528	49191.581751
562.373177	48893.543695
562.729770	49370.381396
563.086307	48883.257220
563.442789	49340.729329
563.799216	49368.700171
564.155587	49141.296242
564.511904	49172.195994
564.868164	49236.707640
565.224370	49475.602880
565.580520	49213.999762
565.936615	49419.681360
566.292654	49104.647053
566.648638	49366.887876
567.004567	49327.279531
567.360441	49362.988544
567.716260	49213.024299
568.072023	49472.648763
568.427732	49446.921235
568.783385	48978.688783
569.138982	49379.546214
569.494525	49318.034054
569.850013	49078.211242
570.205445	49042.998783
570.560823	48994.969190
570.916145	48865.368686
571.271412	48880.625738
571.626625	48617.288464
571.981782	48645.120674
572.336884	48325.788784
572.691931	48628.048807
573.046923	48251.482176
573.401860	48063.154751
573.756743	48035.476296
574.111570	48120.225654
574.466342	47980.265579
574.821059	48080.133357
575.175722	47584.643387
575.530330	47603.194833
575.884882	47307.047209
576.239380	47261.026516
576.593823	47227.543172
576.948211	47141.707445
577.302544	46645.731003
577.656823	46652.168557
578.011047	46885.836120
578.365216	46605.530322
578.719330	46376.745117
579.073389	46217.406846
579.427394	46287.690613
579.781344	46251.638802
580.135239	45898.906746
580.489080	45942.724456
580.842866	45428.962823
581.196597	45860.984667
581.550273	45803.288661
581.903895	45659.908163
582.257463	46072.599702
582.610975	45433.381394
582.964434	45724.213122
583.317837	45349.173961
583.671186	45174.319019
584.024481	45380.860133
584.377721	44899.248459
584.730906	45174.127455
585.084037	45223.119909
585.437113	44921.916008
585.790135	44941.314367
586.143103	44515.901477
586.496016	44640.601979
586.848874	44662.220967
587.201679	44660.872458
587.554428	44134.989372
587.907124	44319.813195
588.259765	44067.725256
588.612352	44307.931195
588.964884	43670.893187
589.317362	43958.203668
589.669786	43886.047112
590.022155	43648.006348
590.374470	44077.638685
590.726731	43597.516672
591.078937	43084.987602
591.431090	43199.333574
591.783188	42831.619209
592.135232	42502.167203
592.487222	42767.793160
592.839157	42819.381808
593.191038	42480.122237
593.542866	42220.175139
593.894639	41633.200829
594.246358	41916.012080
594.598022	41880.076215
594.949633	41472.965233
595.301190	41430.818667
595.652692	41257.123190
596.004141	41583.026225
596.355535	40586.632085
596.706876	40518.014419
597.058162	40351.822700
597.409395	40815.843268
597.760573	40911.292475
598.111698	40468.064146
598.462768	40484.871353
598.813785	40521.780161
599.164748	39962.900202
599.515657	40345.448161
599.866511	39827.920787
600.217312	40443.344848
600.568060	39406.364379
600.918753	40156.052011
601.269392	40097.803999
601.619978	39746.228889
601.970510	39955.106578
602.320988	40133.949072
602.671412	40436.786307
603.021783	40182.681906
603.372100	39851.049601
603.722363	39930.291498
604.072572	39998.606694
604.422728	40017.067400
604.772830	39829.039923
605.122878	39928.277557
605.472872	39862.871106
605.822813	40118.921393
606.172701	39960.314090
606.522534	40210.725845
606.872314	40449.190066
607.222041	40223.432073
607.571714	40589.535789
607.921333	40040.027335
608.270899	40322.851189
608.620411	40662.473724
608.969870	40448.020518
609.319276	40468.134722
609.668627	40511.186176
610.017926	40979.776550
610.367171	41135.966619
610.716362	41229.316186
611.065500	41158.112408
611.414585	41339.901457
611.763616	41646.340596
612.112594	41582.423807
612.461518	41789.300158
612.810389	42100.692231
613.159207	41964.568474
613.507971	42032.727395
613.856682	42496.407684
614.205340	42396.844896
614.553945	43095.717697
614.902496	42522.742672
615.250994	43012.674770
615.599439	43079.717075
615.947830	43269.214048
616.296169	43352.040206
616.644454	43451.754229
616.992686	43620.970640
617.340864	44153.039223
617.688990	43854.277761
618.037063	44468.310464
618.385082	44430.781594
618.733048	44713.809615
619.080961	44727.138426
619.428821	44760.344506
619.776628	44859.849321
620.124382	44685.069997
620.472083	44820.876161
620.819731	44938.564418
621.167326	44613.772958
621.514868	44596.995998
621.862357	44160.585830
622.209793	44181.657853
622.557176	43836.810163
622.904506	43576.815174
623.251783	43245.281170
623.599007	43017.781459
623.946179	42807.270436
624.293297	42743.459511
624.640363	42148.482369
624.987376	42113.970630
625.334336	41892.923596
625.681243	41539.649616
626.028097	41495.279901
626.374899	41355.639939
626.721647	41338.439522
627.068343	41224.784188
627.414987	40985.737714
627.761577	40758.893353
628.108115	41093.447007
628.454600	40534.504033
628.801032	40749.894893
629.147412	40693.769207
629.493739	40678.287823
629.840014	40339.134116
630.186236	40676.122648
630.532405	40270.032500
630.878521	40486.028298
631.224585	40360.685049
631.570597	40065.848125
631.916556	40229.960368
632.262462	40177.918016
632.608316	40187.856651
632.954117	40080.139796
633.299866	40063.393083
633.645562	39982.212862
633.991206	39508.306592
634.336797	39065.123634
634.682336	39055.852952
635.027823	38823.254113
635.373257	38628.174062
635.718639	38385.427381
