Dividing Wavelength (nm)	Counts (n)	Blue Motor Position (mm): 11.200000	Red Motor Position (mm): 0.000000	
326.493990	2160.348672
326.888308	2160.348672
327.282561	2160.348672
327.676750	2118.862497
328.070874	2116.629265
328.464933	2117.589605
328.858929	2123.144957
329.252859	2128.370113
329.646726	2132.705505
330.040528	2150.573875
330.434265	2160.215082
330.827938	2179.477330
331.221547	2194.109279
331.615091	2211.912114
332.008571	2228.152191
332.401986	2250.050964
332.795338	2269.900507
333.188625	2288.406583
333.581847	2304.077009
333.975006	2323.901347
334.368100	2342.157886
334.761129	2360.553056
335.154095	2378.154245
335.546996	2397.708880
335.939833	2421.687129
336.332606	2435.756989
336.725315	2449.915070
337.117960	2464.506689
337.510540	2473.222844
337.903056	2486.423106
338.295508	2491.144146
338.687896	2502.998420
339.080220	2510.035870
339.472480	2517.451408
339.864676	2518.958713
340.256807	2527.674868
340.648875	2529.875331
341.040879	2531.203675
341.432818	2534.898841
341.824694	2540.325643
342.216506	2540.176929
342.608253	2541.820345
342.999937	2542.518545
343.391557	2539.708102
343.783113	2541.260777
344.174605	2540.144162
344.566033	2536.738862
344.957397	2538.359593
345.348697	2539.466127
345.739934	2533.099149
346.131106	2536.577545
346.522215	2532.675692
346.913260	2529.252749
347.304241	2527.808458
347.695159	2525.623118
348.086012	2523.710000
348.476802	2524.009949
348.867528	2518.394103
349.258191	2513.405882
349.648789	2517.960564
350.039324	2508.291631
350.429796	2512.874040
350.820203	2513.075686
351.210548	2509.980418
351.600828	2507.898421
351.991045	2508.780623
352.381198	2508.795747
352.771288	2506.108812
353.161314	2507.071672
353.551276	2506.348266
353.941175	2506.363390
354.331010	2506.128976
354.720782	2507.013699
355.110490	2506.658297
355.500135	2507.026302
355.889717	2509.246930
356.279235	2506.733915
356.668689	2504.442710
357.058080	2508.979749
357.447408	2506.839779
357.836672	2506.557474
358.225873	2505.518997
358.615010	2507.837927
359.004084	2506.580159
359.393095	2507.434635
359.782043	2505.624861
360.170927	2509.869512
360.559748	2512.601818
360.948505	2510.136693
361.337199	2512.526200
361.725830	2511.134842
362.114398	2508.914214
362.502903	2511.197856
362.891344	2512.783299
363.279722	2514.658608
363.668037	2515.074504
364.056289	2512.788340
364.444478	2515.253465
364.832603	2515.858403
365.220665	2514.056191
365.608665	2515.374452
365.996601	2515.888650
366.384474	2517.978208
366.772284	2518.527694
367.160031	2516.977539
367.547715	2518.683970
367.935336	2516.438136
368.322893	2520.173631
368.710388	2515.664319
369.097820	2517.133815
369.485189	2516.392765
369.872495	2520.949968
370.259738	2522.164887
370.646918	2520.917201
371.034035	2521.103724
371.421090	2520.198837
371.808081	2519.117509
372.195010	2519.356964
372.581875	2521.862417
372.968678	2520.602129
373.355418	2523.367202
373.742096	2523.503313
374.128710	2523.102541
374.515262	2522.371574
374.901751	2524.781245
375.288177	2522.479959
375.674540	2523.692356
376.060841	2523.273940
376.447079	2521.985926
376.833254	2524.922398
377.219367	2524.030113
377.605417	2525.678571
377.991404	2525.270237
378.377329	2523.155473
378.763191	2525.119003
379.148991	2524.652696
379.534727	2525.015659
379.920402	2526.081863
380.306013	2526.888448
380.691563	2525.444157
381.077049	2529.232584
381.462474	2526.699404
381.847835	2526.769981
382.233134	2527.314425
382.618371	2525.789476
383.003545	2527.460619
383.388657	2527.127903
383.773706	2525.943231
384.158693	2528.783922
384.543618	2529.373737
384.928480	2527.861390
385.313280	2528.688140
385.698017	2531.748120
386.082692	2527.803417
386.467305	2529.338448
386.851856	2530.213089
387.236344	2530.492873
387.620770	2527.591689
388.005133	2523.636903
388.389435	2529.051103
388.773674	2524.244363
389.157851	2528.526823
389.541965	2527.367357
389.926018	2531.317101
390.310008	2534.067051
390.693936	2532.814324
391.077802	2532.511855
391.461606	2529.822399
391.845348	2532.322812
392.229027	2533.116793
392.612645	2534.246012
392.996200	2531.276772
393.379694	2532.985723
393.763125	2532.050589
394.146494	2533.678882
394.529801	2534.427493
394.913047	2534.571166
395.296230	2535.944881
395.679351	2536.524613
396.062410	2533.429345
396.445408	2531.004550
396.828343	2533.073943
397.211217	2535.236598
397.594028	2535.912113
397.976778	2535.508821
398.359466	2533.764582
398.742092	2535.453368
399.124656	2534.800539
399.507158	2537.278266
399.889598	2535.846578
400.271977	2536.459078
400.654294	2537.691640
401.036549	2534.185518
401.418742	2537.931095
401.800874	2535.881866
402.182944	2536.227185
402.564952	2538.485622
402.946898	2537.232895
403.328783	2537.353883
403.710606	2537.956301
404.092367	2539.168698
404.474067	2541.056611
404.855705	2539.299768
405.237282	2541.535520
405.618797	2537.527803
406.000250	2538.097453
406.381642	2538.024357
406.762972	2536.557381
407.144240	2536.360776
407.525447	2536.181815
407.906593	2533.855322
408.287677	2537.686599
408.668700	2538.503266
409.049661	2543.458720
409.430560	2540.572660
409.811399	2539.612320
410.192176	2540.817156
410.572891	2541.568288
410.953545	2542.475695
411.334138	2540.902855
411.714669	2542.815973
412.095139	2541.341436
412.475547	2541.679193
412.855894	2542.256405
413.236180	2541.404450
413.616405	2542.765562
413.996568	2541.820345
414.376670	2544.555171
414.756711	2537.507638
415.136691	2541.928730
415.516609	2540.980993
415.896466	2541.984183
416.276262	2543.342774
416.655997	2541.865716
417.035670	2543.501570
417.415283	2543.302445
417.794834	2542.921838
418.174324	2544.456869
418.553753	2543.559543
418.933121	2548.799823
419.312428	2546.609442
419.691674	2545.177754
420.070859	2543.622558
420.449983	2546.780841
420.829045	2541.124666
421.208047	2541.971580
421.586988	2545.109698
421.965867	2544.872764
422.344686	2544.136756
422.723444	2545.520552
423.102141	2544.809750
423.480777	2542.725232
423.859352	2546.967363
424.237866	2544.960984
424.616319	2543.723381
424.994712	2546.601880
425.373044	2546.387631
425.751314	2544.371169
426.129524	2540.396219
426.507673	2542.200953
426.885762	2540.257588
427.263789	2544.265305
427.641756	2545.691952
428.019662	2544.285470
428.397508	2546.881664
428.775292	2548.832590
429.153016	2548.641027
429.530679	2546.904349
429.908282	2546.400234
430.285824	2545.739843
430.663305	2549.969371
431.040726	2548.215049
431.418086	2545.452497
431.795385	2547.300080
432.172624	2548.666232
432.549802	2549.049360
432.926920	2547.224462
433.303977	2546.929555
433.680974	2548.691438
434.057910	2546.793444
434.434786	2548.338557
434.811601	2547.791592
435.188355	2548.262940
435.565050	2548.058773
435.941683	2548.477189
436.318257	2548.918290
436.694770	2548.671273
437.071222	2547.985677
437.447614	2545.817980
437.823946	2549.404761
438.200218	2550.100441
438.576429	2549.046839
438.952580	2547.501726
439.328670	2549.840821
439.704700	2549.906356
440.080670	2550.760832
440.456580	2549.520708
440.832429	2550.513815
441.208218	2547.078269
441.583947	2548.759494
441.959616	2550.208825
442.335224	2550.347457
442.710773	2550.241593
443.086261	2548.819987
443.461689	2550.211346
443.837057	2550.407951
444.212365	2550.213867
444.587612	2546.775800
444.962800	2546.637168
445.337927	2549.475338
445.712995	2543.327650
446.088002	2553.034392
446.462949	2551.113712
446.837837	2551.133877
447.212664	2552.676470
447.587431	2550.639844
447.962139	2551.764021
448.336786	2555.580175
448.711374	2551.385935
449.085901	2552.192519
449.460369	2553.351985
449.834776	2551.247303
450.209124	2553.054557
450.583412	2552.232849
450.957640	2551.690925
451.331808	2551.910215
451.705917	2552.900802
452.079965	2552.915925
452.453954	2552.686553
452.827883	2551.632951
453.201752	2554.241748
453.575562	2554.103117
453.949311	2551.625390
454.323001	2555.628066
454.696632	2553.505740
455.070202	2551.738816
455.443713	2552.638662
455.817164	2551.922818
456.190556	2553.253682
456.563888	2553.304094
456.937160	2552.850390
457.310373	2555.139074
457.683526	2551.867365
458.056619	2554.249310
458.429653	2551.741336
458.802628	2555.270144
459.175542	2551.988353
459.548398	2553.414999
459.921194	2553.367108
460.293930	2555.214691
460.666607	2552.663867
461.039224	2556.427089
461.411782	2556.459856
461.784280	2552.996583
462.156719	2552.580688
462.529099	2555.572613
462.901419	2558.141081
463.273680	2552.857952
463.645882	2551.650595
464.018024	2551.055739
464.390106	2553.210832
464.762130	2556.979095
465.134094	2554.937428
465.505999	2556.081770
465.877845	2557.891544
466.249631	2556.951369
466.621358	2556.157387
466.993026	2555.643189
467.364634	2559.018242
467.736184	2555.617983
468.107674	2556.648899
468.479105	2554.831563
468.850477	2556.086811
469.221790	2555.073539
469.593043	2558.773746
469.964238	2556.918601
470.335373	2558.400700
470.706449	2558.249466
471.077467	2555.282747
471.448425	2557.251317
471.819324	2558.284754
472.190164	2560.268448
472.560945	2558.299877
472.931667	2559.444219
473.302330	2558.733417
473.672934	2560.606205
474.043479	2559.756771
474.413965	2561.019580
474.784393	2558.370453
475.154761	2559.333314
475.525070	2559.948335
475.895321	2557.876420
476.265513	2557.621842
476.635645	2561.579148
477.005719	2558.229301
477.375734	2564.422359
477.745691	2557.866338
478.115588	2561.022100
478.485427	2558.728375
478.855207	2560.795248
479.224928	2562.335321
479.594591	2561.984961
479.964194	2561.823644
480.333739	2564.077040
480.703226	2563.275496
481.072653	2561.339693
481.442022	2563.242729
481.811333	2561.100238
482.180584	2560.099569
482.549777	2558.977912
482.918912	2557.309291
483.287988	2564.006463
483.657005	2563.031000
484.025964	2564.697102
484.394864	2564.548387
484.763706	2563.686350
485.132489	2565.009653
485.501213	2563.850188
485.869879	2561.851370
486.238487	2566.002760
486.607036	2565.964952
486.975527	2563.895558
487.343959	2564.598799
487.712333	2566.668193
488.080648	2563.497307
488.448905	2566.060734
488.817104	2561.778273
489.185244	2565.468398
489.553326	2565.223902
489.921350	2565.884293
490.289315	2565.291958
490.657222	2569.012329
491.025070	2565.780950
491.392861	2564.928995
491.760593	2567.787329
492.128267	2566.786660
492.495883	2566.695919
492.863440	2563.996381
493.230939	2565.614592
493.598380	2567.925961
493.965763	2567.389078
494.333088	2566.829510
494.700354	2564.744993
495.067563	2564.316494
495.434713	2568.233471
495.801805	2566.262380
496.168839	2564.959242
496.535815	2567.953687
496.902733	2564.480332
497.269593	2567.021073
497.636395	2567.691547
498.003139	2566.711042
498.369825	2568.755230
498.736453	2565.218861
499.103023	2565.420507
499.469535	2567.041238
499.835989	2566.511917
500.202385	2563.847667
500.568723	2560.591082
500.935003	2566.395970
501.301226	2561.760629
501.667390	2568.876218
502.033497	2569.934860
502.399546	2566.884962
502.765537	2564.797925
503.131470	2566.322874
503.497345	2567.018553
503.863163	2564.616443
504.228923	2568.142730
504.594625	2567.013512
504.960269	2565.702812
505.325856	2569.944943
505.691385	2565.634756
506.056856	2565.975034
506.422270	2567.550395
506.787625	2568.006619
507.152924	2569.304716
507.518164	2569.092988
507.883347	2567.109294
508.248472	2569.158523
508.613540	2566.968141
508.978550	2569.234140
509.343503	2565.957390
509.708398	2569.463512
510.073236	2569.440827
510.438016	2568.757751
510.802738	2568.820765
511.167403	2569.392936
511.532010	2571.313616
511.896561	2568.054510
512.261053	2572.949470
512.625488	2570.655745
512.989866	2570.396126
513.354186	2571.374110
513.718449	2568.283882
514.082655	2572.364697
514.446803	2571.946281
514.810894	2575.089440
515.174927	2574.308061
515.538904	2575.903587
515.902822	2571.472412
516.266684	2576.100192
516.630488	2576.919379
516.994235	2574.020716
517.357925	2576.377455
517.721558	2575.207907
518.085133	2576.997517
518.448651	2572.795715
518.812112	2574.691189
519.175516	2574.383679
519.538863	2573.917372
519.902152	2580.042374
520.265385	2579.177816
520.628560	2577.186560
520.991678	2582.999011
521.354739	2581.194277
521.717743	2580.987590
522.080690	2583.598908
522.443580	2580.181006
522.806413	2583.087231
523.169189	2583.049422
523.531908	2585.249886
523.894569	2584.743250
524.257174	2586.235431
524.619722	2585.721234
524.982213	2586.406831
525.344647	2589.429002
525.707025	2586.109402
526.069345	2591.105186
526.431608	2589.416399
526.793815	2589.844897
527.155964	2591.760536
527.518057	2589.860021
527.880093	2593.509816
528.242072	2590.921184
528.603995	2594.724734
528.965860	2591.311873
529.327669	2593.724065
529.689421	2595.619539
530.051117	2596.965527
530.412755	2595.836309
530.774337	2596.327821
531.135862	2597.731783
531.497331	2599.816300
531.858743	2603.027515
532.220098	2604.895262
532.581396	2604.877618
532.942638	2602.188163
533.303824	2603.289655
533.664953	2605.525407
534.026025	2605.303596
534.387040	2606.238730
534.747999	2606.301744
535.108902	2607.269646
535.469748	2604.970880
535.830537	2608.010695
536.191270	2612.898094
536.551947	2607.667897
536.912567	2605.570777
537.273131	2609.331478
537.633638	2608.114039
537.994089	2611.864657
538.354483	2612.744339
538.714821	2614.380193
539.075103	2614.433125
539.435328	2613.382045
539.795497	2615.763990
540.155609	2612.547734
540.515665	2616.505040
540.875665	2618.478651
541.235609	2617.223404
541.595496	2619.476800
541.955328	2620.679115
542.315102	2619.650720
542.674821	2620.074177
543.034483	2622.463683
543.394090	2619.219701
543.753640	2622.725823
544.113134	2624.578447
544.472571	2624.858232
544.831953	2625.392594
545.191278	2622.869496
545.550548	2624.260855
545.909761	2626.438633
546.268918	2625.619446
546.628019	2627.101545
546.987064	2626.418469
547.346053	2629.503655
547.704986	2626.771349
548.063863	2627.666154
548.422684	2627.608181
548.781449	2629.150774
549.140158	2630.395939
549.498811	2631.036166
549.857408	2627.623304
550.215949	2630.839561
550.574434	2630.557256
550.932864	2632.077164
551.291237	2634.015487
551.649555	2633.040024
552.007817	2632.603964
552.366022	2633.960035
552.724173	2631.578090
553.082267	2629.793521
553.440305	2637.277114
553.798288	2636.843575
554.156215	2638.189563
554.514086	2634.423821
554.871902	2630.302678
555.229661	2632.019191
555.587365	2631.676392
555.945014	2634.484315
556.302606	2638.323153
556.660143	2637.425828
557.017625	2640.508494
557.375050	2639.437248
557.732421	2637.687968
558.089735	2640.132928
558.446994	2637.057824
558.804197	2638.416415
559.161345	2640.102681
559.518437	2636.954480
559.875474	2639.122176
560.232455	2639.396919
560.589381	2638.902886
560.946251	2640.120325
561.303065	2640.768113
561.659825	2643.124852
562.016528	2642.197280
562.373177	2640.077475
562.729770	2640.942033
563.086307	2643.223155
563.442789	2643.989410
563.799216	2645.433701
564.155587	2645.726088
564.511904	2645.111067
564.868164	2645.476551
565.224370	2645.849596
565.580520	2645.738691
565.936615	2644.808598
566.292654	2642.149389
566.648638	2647.359422
567.004567	2645.446304
567.360441	2647.117446
567.716260	2644.357415
568.072023	2645.607621
568.427732	2646.578043
568.783385	2647.871099
569.138982	2647.760193
569.494525	2647.157776
569.850013	2649.156593
570.205445	2648.854124
570.560823	2647.417395
570.916145	2646.482261
571.271412	2647.664412
571.626625	2652.952582
571.981782	2650.197591
572.336884	2647.404792
572.691931	2648.055101
573.046923	2647.329175
573.401860	2645.826911
573.756743	2653.650782
574.111570	2654.732109
574.466342	2653.393683
574.821059	2654.386790
575.175722	2654.205309
575.530330	2655.652120
575.884882	2656.592295
576.239380	2657.640855
576.593823	2659.637152
576.948211	2656.567089
577.302544	2658.901143
577.656823	2658.870897
578.011047	2657.610608
578.365216	2659.508602
578.719330	2662.881134
579.073389	2661.078922
579.427394	2666.351969
579.781344	2664.511948
580.135239	2664.872390
580.489080	2662.588747
580.842866	2664.779129
581.196597	2671.418328
581.550273	2666.125117
581.903895	2674.138031
582.257463	2676.640964
582.610975	2673.707012
582.964434	2675.947805
583.317837	2675.713392
583.671186	2679.632889
584.024481	2682.869309
584.377721	2681.120029
584.730906	2683.149093
585.084037	2685.775535
585.437113	2688.154959
585.790135	2690.368026
586.143103	2688.510361
586.496016	2690.758715
586.848874	2694.718542
587.201679	2695.749457
587.554428	2694.408511
587.907124	2701.768595
588.259765	2703.432176
588.612352	2708.440562
588.964884	2706.920654
589.317362	2708.876622
589.669786	2713.176726
590.022155	2715.180585
590.374470	2717.509598
590.726731	2719.803323
591.078937	2717.247458
591.431090	2726.187944
591.783188	2726.639128
592.135232	2729.787328
592.487222	2734.868811
592.839157	2737.651528
593.191038	2741.134966
593.542866	2743.043042
593.894639	2745.616551
594.246358	2751.444125
594.598022	2752.601070
594.949633	2754.703231
595.301190	2756.704569
595.652692	2759.716659
596.004141	2766.111362
596.355535	2765.105652
596.706876	2767.860643
597.058162	2772.281735
597.409395	2775.671911
597.760573	2780.647529
598.111698	2780.652571
598.462768	2786.505350
598.813785	2791.927111
599.164748	2791.727986
599.515657	2797.825261
599.866511	2802.853812
600.217312	2810.145841
600.568060	2805.691982
600.918753	2819.915597
601.269392	2824.510609
601.619978	2825.975064
601.970510	2840.543999
602.320988	2843.578773
602.671412	2853.587984
603.021783	2854.087059
603.372100	2857.036134
603.722363	2867.090715
604.072572	2871.519369
604.422728	2880.200236
604.772830	2888.550907
605.122878	2887.905639
605.472872	2899.916188
605.822813	2905.819379
606.172701	2918.298756
606.522534	2925.983995
606.872314	2936.749379
607.222041	2935.446241
607.571714	2953.614559
607.921333	2958.590178
608.270899	2971.218268
608.620411	2987.889364
608.969870	2984.970536
609.319276	3000.588031
609.668627	3018.516894
610.017926	3034.026004
610.367171	3048.196688
610.716362	3067.186714
611.065500	3066.949780
611.414585	3083.656164
611.763616	3093.710745
612.112594	3103.984617
612.461518	3110.255812
612.810389	3132.353710
613.159207	3139.660862
613.507971	3150.663181
613.856682	3183.191226
614.205340	3191.146167
614.553945	3220.387379
614.902496	3218.396124
615.250994	3250.717482
615.599439	3260.938421
615.947830	3278.499280
616.296169	3290.562762
616.644454	3316.378510
616.992686	3325.850838
617.340864	3361.131354
617.688990	3373.469578
618.037063	3410.169178
618.385082	3426.197526
618.733048	3459.814461
619.080961	3475.936071
619.428821	3505.878004
619.776628	3529.631921
620.124382	3540.077192
620.472083	3563.745409
620.819731	3588.540324
621.167326	3581.444900
621.514868	3596.643979
621.862357	3607.797532
622.209793	3617.597535
622.557176	3624.955099
622.904506	3623.455356
623.251783	3635.463384
623.599007	3648.220024
623.946179	3660.840553
624.293297	3671.913447
624.640363	3676.508459
624.987376	3683.619006
625.334336	3690.220397
625.681243	3698.775235
626.028097	3713.641598
626.374899	3747.886156
626.721647	3743.349118
627.068343	3756.435953
627.414987	3776.023356
627.761577	3806.174498
628.108115	3840.698840
628.454600	3824.100841
628.801032	3854.617465
629.147412	3876.662431
629.493739	3902.775608
629.840014	3919.050973
630.186236	3951.115232
630.532405	3957.245275
630.878521	4001.360413
631.224585	4017.507228
631.570597	4040.520096
631.916556	4056.407292
632.262462	4080.231785
632.608316	4111.451651
632.954117	4128.717603
633.299866	4159.874454
633.645562	4177.440355
633.991206	4161.603570
634.336797	4159.380421
634.682336	4192.223538
635.027823	4188.278836
635.373257	4210.248184
635.718639	4203.576217
636.063968	4220.413671
636.409245	4213.782033
636.754470	4239.050817
637.099642	4245.415273
637.444762	4229.102099
637.789829	4263.581071
638.134845	4267.855970
638.479808	4289.364053
638.824719	4306.012463
639.169577	4306.254438
639.514383	4332.985157
639.859137	4335.228470
640.203839	4378.098443
640.548489	4364.434395
640.893086	4403.475611
641.237632	4386.509608
641.582125	4453.015030
641.926566	4452.649546
642.270955	4469.066064
642.615292	4488.807222
642.959576	4515.464844
643.303809	4555.892377
643.647990	4561.722471
643.992118	4617.152478
644.336195	4584.727777
