Dividing Wavelength (nm)	Counts (n)	Blue Motor Position (mm): 33.500000	Red Motor Position (mm): 0.000000	
326.493990	2153.268372
326.888308	2153.268372
327.282561	2153.268372
327.676750	2129.799280
328.070874	2130.429424
328.464933	2137.290434
328.858929	2146.225880
329.252859	2156.870276
329.646726	2171.391320
330.040528	2185.904802
330.434265	2206.076979
330.827938	2223.347972
331.221547	2242.247258
331.615091	2262.336256
332.008571	2281.399379
332.401986	2304.823100
332.795338	2321.927735
333.188625	2343.357680
333.581847	2361.720083
333.975006	2381.282281
334.368100	2401.376320
334.761129	2417.535738
335.154095	2436.669438
335.546996	2460.632563
335.939833	2488.817654
336.332606	2502.330467
336.725315	2515.223218
337.117960	2522.240504
337.510540	2529.683768
337.903056	2539.945036
338.295508	2544.766900
338.687896	2556.167469
339.080220	2562.509241
339.472480	2567.714232
339.864676	2571.429563
340.256807	2576.064903
340.648875	2575.432239
341.040879	2578.318299
341.432818	2579.805440
341.824694	2583.074628
342.216506	2582.988928
342.608253	2581.912642
342.999937	2580.117991
343.391557	2581.242168
343.783113	2578.595563
344.174605	2579.772672
344.566033	2577.466344
344.957397	2571.008626
345.348697	2570.484346
345.739934	2571.437124
346.131106	2567.086608
346.522215	2565.090312
346.913260	2565.057544
347.304241	2564.150136
347.695159	2562.121072
348.086012	2558.859445
348.476802	2556.119578
348.867528	2556.273333
349.258191	2553.828374
349.648789	2556.285936
350.039324	2549.119936
350.429796	2554.004814
350.820203	2553.316697
351.210548	2550.889381
351.600828	2550.206305
351.991045	2549.419885
352.381198	2547.809236
352.771288	2551.315359
353.161314	2549.240924
353.551276	2550.778476
353.941175	2548.089020
354.331010	2550.087838
354.720782	2549.235883
355.110490	2552.285781
355.500135	2546.460728
355.889717	2549.046839
356.279235	2549.225800
356.668689	2553.266285
357.058080	2553.828374
357.447408	2549.815615
357.836672	2546.896787
358.225873	2547.466438
358.615010	2547.264792
359.004084	2553.399876
359.393095	2553.551110
359.782043	2552.875596
360.170927	2553.946841
360.559748	2555.673436
360.948505	2555.854918
361.337199	2555.779300
361.725830	2554.390462
362.114398	2554.428271
362.502903	2556.485062
362.891344	2558.007490
363.279722	2557.946997
363.668037	2556.265772
364.056289	2559.789538
364.444478	2558.362892
364.832603	2560.356668
365.220665	2560.644014
365.608665	2561.947152
365.996601	2559.792059
366.384474	2560.212995
366.772284	2562.075702
367.160031	2561.213664
367.547715	2561.213664
367.935336	2560.230639
368.322893	2561.218705
368.710388	2559.471946
369.097820	2565.518810
369.485189	2565.271793
369.872495	2566.131310
370.259738	2565.627194
370.646918	2563.406566
371.034035	2562.519323
371.421090	2564.810527
371.808081	2563.905640
372.195010	2564.835733
372.581875	2566.579973
372.968678	2570.189439
373.355418	2566.156516
373.742096	2565.879252
374.128710	2568.306568
374.515262	2566.930333
374.901751	2570.033163
375.288177	2565.778429
375.674540	2568.170457
376.060841	2568.919068
376.447079	2567.479818
376.833254	2570.696075
377.219367	2564.482852
377.605417	2567.716753
377.991404	2568.251115
378.377329	2569.319840
378.763191	2564.175342
379.148991	2570.212124
379.534727	2570.809501
379.920402	2571.537947
380.306013	2574.124059
380.691563	2570.275138
381.077049	2569.118193
381.462474	2571.268246
381.847835	2571.180025
382.233134	2571.880746
382.618371	2572.064748
383.003545	2571.994172
383.388657	2572.667166
383.773706	2573.713205
384.158693	2573.630026
384.543618	2572.974676
384.928480	2576.213617
385.313280	2575.812846
385.698017	2573.609862
386.082692	2575.364183
386.467305	2576.488360
386.851856	2574.474419
387.236344	2572.629357
387.620770	2577.753690
388.005133	2579.046746
388.389435	2578.280491
388.773674	2577.365521
389.157851	2576.911817
389.541965	2577.244533
389.926018	2578.774524
390.310008	2579.933989
390.693936	2575.470047
391.077802	2578.035995
391.461606	2578.663618
391.845348	2576.448031
392.229027	2579.936510
392.612645	2579.046746
392.996200	2578.731674
393.379694	2577.133628
393.763125	2581.579926
394.146494	2577.970460
394.529801	2581.844586
394.913047	2579.850810
395.296230	2582.086562
395.679351	2580.710327
396.062410	2581.791654
396.445408	2584.201326
396.828343	2583.107395
397.211217	2578.777044
397.594028	2579.223186
397.976778	2578.744277
398.359466	2581.285018
398.742092	2579.329051
399.124656	2583.934145
399.507158	2582.585636
399.889598	2587.296594
400.271977	2582.003383
400.654294	2586.384145
401.036549	2584.735688
401.418742	2585.915318
401.800874	2586.817685
402.182944	2586.618559
402.564952	2584.120667
402.946898	2585.136460
403.328783	2584.801223
403.710606	2587.979671
404.092367	2586.016141
404.474067	2589.141657
404.855705	2588.287181
405.237282	2587.999835
405.618797	2588.138467
406.000250	2589.880186
406.381642	2588.009917
406.762972	2591.165680
407.144240	2589.217274
407.525447	2594.276072
407.906593	2591.213571
408.287677	2590.873293
408.668700	2592.862028
409.049661	2592.491503
409.430560	2592.675505
409.811399	2594.550815
410.192176	2595.811103
410.572891	2591.488314
410.953545	2597.288161
411.334138	2596.373192
411.714669	2597.240270
412.095139	2597.527616
412.475547	2597.189859
412.855894	2599.970055
413.236180	2601.694130
413.616405	2603.481219
413.996568	2603.201435
414.376670	2607.062958
414.756711	2607.093205
415.136691	2611.597476
415.516609	2615.161572
415.896466	2615.854731
416.276262	2619.688528
416.655997	2617.087293
417.035670	2621.589043
417.415283	2628.445012
417.794834	2632.074643
418.174324	2639.149903
418.553753	2645.801705
418.933121	2655.571461
419.312428	2660.282420
419.691674	2663.798624
420.070859	2675.063083
420.449983	2677.717250
420.829045	2687.524815
421.208047	2696.707277
421.586988	2709.163968
421.965867	2721.643344
422.344686	2730.586351
422.723444	2745.079668
423.102141	2743.090933
423.480777	2764.525919
423.859352	2774.784667
424.237866	2799.821558
424.616319	2809.067034
424.994712	2832.846157
425.373044	2844.312261
425.751314	2871.652959
426.129524	2873.951725
426.507673	2908.037487
426.885762	2918.969229
427.263789	2942.032508
427.641756	2960.588995
428.019662	2985.235197
428.397508	3002.634739
428.775292	3028.687422
429.153016	3051.448232
429.530679	3072.807601
429.908282	3097.587392
430.285824	3108.657766
430.663305	3154.428922
431.040726	3160.286743
431.418086	3180.285001
431.795385	3227.802917
432.172624	3266.009822
432.549802	3273.379989
432.926920	3302.815286
433.303977	3322.430416
433.680974	3361.968185
434.057910	3396.704256
434.434786	3423.079573
434.811601	3441.676389
435.188355	3520.575488
435.565050	3529.604195
435.941683	3552.695200
436.318257	3625.744040
436.694770	3653.472906
437.071222	3709.137327
437.447614	3695.435471
437.823946	3725.584092
438.200218	3761.852673
438.576429	3775.993109
438.952580	3814.903255
439.328670	3843.564736
439.704700	3893.930904
440.080670	3895.349988
440.456580	3958.732416
440.832429	4009.012884
441.208218	3963.309783
441.583947	4022.992004
441.959616	4060.825863
442.335224	4097.810289
442.710773	4134.479642
443.086261	4200.236453
443.461689	4183.406560
443.837057	4213.003175
444.212365	4294.884116
444.587612	4318.660718
444.962800	4311.015808
445.337927	4363.214436
445.712995	4289.343888
446.088002	4468.934994
446.462949	4507.623329
446.837837	4538.455026
447.212664	4546.253691
447.587431	4760.865692
447.962139	5044.496131
448.336786	5360.606724
448.711374	5363.371797
449.085901	5057.545158
449.460369	5017.646946
449.834776	4979.979444
450.209124	5213.208427
450.583412	5230.764245
450.957640	5358.799471
451.331808	5239.162808
451.705917	5113.254949
452.079965	5114.484991
452.453954	5163.603473
452.827883	5142.223940
453.201752	5159.754552
453.575562	5195.370304
453.949311	5332.661088
454.323001	5349.400239
454.696632	5346.869580
455.070202	5503.964537
455.443713	5543.401483
455.817164	5632.425740
456.190556	5709.605805
456.563888	5688.856416
456.937160	5770.631493
457.310373	5620.425273
457.683526	5684.959604
458.056619	5685.541857
458.429653	5665.331871
458.802628	5716.524789
459.175542	5751.641466
459.548398	5892.839144
459.921194	6077.236990
460.293930	6148.594523
460.666607	6395.200207
461.039224	6605.401199
461.411782	6733.277628
461.784280	6652.677140
462.156719	6660.253994
462.529099	6616.537108
462.901419	6483.939639
463.273680	6351.858887
463.645882	6347.248752
464.018024	6350.936356
464.390106	6418.354227
464.762130	6682.384660
465.134094	7066.702064
465.505999	7708.728295
465.877845	8407.248216
466.249631	8762.145447
466.621358	8678.910955
466.993026	8479.248496
467.364634	8272.639326
467.736184	7996.167325
468.107674	7839.142945
468.479105	7756.226046
468.850477	7688.142743
469.221790	7514.336361
469.593043	7291.020808
469.964238	7198.117383
470.335373	7174.484454
470.706449	7333.454720
471.077467	7524.058227
471.448425	8188.565482
471.819324	8766.742979
472.190164	8794.991084
472.560945	8307.400602
472.931667	7836.201432
473.302330	7647.427864
473.672934	7530.626850
474.043479	7605.747604
474.413965	7510.615990
474.784393	7461.283258
475.154761	7614.393183
475.525070	7628.112683
475.895321	7579.032009
476.265513	7678.685538
476.635645	7842.258378
477.005719	7835.041966
477.375734	7919.798886
477.745691	8023.508023
478.115588	8234.850837
478.485427	8470.270201
478.855207	8941.623126
479.224928	9377.645125
479.594591	9763.255586
479.964194	9759.782231
480.333739	9846.873205
480.703226	9856.806798
481.072653	9956.999731
481.442022	10069.064581
481.811333	10217.342560
482.180584	10053.126973
482.549777	9996.724023
482.918912	9936.676319
483.287988	9923.138301
483.657005	9832.697480
484.025964	9751.761755
484.394864	9810.249222
484.763706	9767.046534
485.132489	9680.305920
485.501213	9667.738323
485.869879	9730.127643
486.238487	9666.760340
486.607036	9749.992310
486.975527	9694.713538
487.343959	9744.671372
487.712333	9801.212954
488.080648	9837.927677
488.448905	9939.993399
488.817104	9944.353997
489.185244	10115.959915
489.553326	10328.338685
489.921350	10801.198916
490.289315	11434.876996
490.657222	11719.896272
491.025070	11896.392110
491.392861	11806.727627
491.760593	11654.434369
492.128267	11394.041129
492.495883	11167.680718
492.863440	10930.310428
493.230939	10702.674605
493.598380	10515.047900
493.965763	10497.519808
494.333088	10357.519404
494.700354	10300.153594
495.067563	10262.362584
495.434713	10271.673595
495.801805	10314.445265
496.168839	10277.818762
496.535815	10242.286189
496.902733	10296.680239
497.269593	10251.829093
497.636395	10257.049208
498.003139	10375.158402
498.369825	10294.313417
498.736453	10384.965966
499.103023	10330.087966
499.469535	10335.550056
499.835989	10386.458148
500.202385	10362.696669
500.568723	10374.896262
500.935003	10441.033679
501.301226	10406.184183
501.667390	10577.182642
502.033497	10673.793835
502.399546	10595.166958
502.765537	10508.038176
503.131470	10613.274783
503.497345	10698.457680
503.863163	10473.566766
504.228923	10607.323701
504.594625	10720.923582
504.960269	10632.559717
505.325856	10786.992944
505.691385	10665.556589
506.056856	10728.939017
506.422270	10830.508184
506.787625	10773.754874
507.152924	10828.451394
507.518164	10881.370906
507.883347	10751.233520
508.248472	10821.565178
508.613540	10931.348905
508.978550	11008.196255
509.343503	10991.719243
509.708398	11039.325380
510.073236	11171.554845
510.438016	11181.198572
510.802738	11097.364184
511.167403	11225.832948
511.532010	11283.360076
511.896561	11380.949252
512.261053	11579.311094
512.625488	11492.336067
512.989866	11481.747123
513.354186	11462.749535
513.718449	11470.495268
514.082655	11615.738472
514.446803	11568.994373
514.810894	11676.633090
515.174927	11674.409941
515.538904	11663.921821
515.902822	11819.511993
516.266684	11693.652025
516.630488	11791.586521
516.994235	11782.109152
517.357925	11897.047460
517.721558	11954.138527
518.085133	12018.766119
518.448651	12052.478836
518.812112	12006.470745
519.175516	12017.480625
519.538863	12116.042744
519.902152	12118.525513
520.265385	12224.039383
520.628560	12248.340265
520.991678	12199.395703
521.354739	12252.448806
521.717743	12325.311123
522.080690	12295.452369
522.443580	12428.926999
522.806413	12450.999691
523.169189	12435.334306
523.531908	12498.419305
523.894569	12460.429169
524.257174	12475.454328
524.619722	12573.905543
524.982213	12553.761092
525.344647	12546.716079
525.707025	12555.134806
526.069345	12655.393274
526.431608	12640.695790
526.793815	12715.927449
527.155964	12610.426182
527.518057	12647.040082
527.880093	12598.912186
528.242072	12725.735014
528.603995	12645.953713
528.965860	12663.801918
529.327669	12684.453005
529.689421	12633.774286
530.051117	12652.209785
530.412755	12681.055267
530.774337	12693.935416
531.135862	12649.187613
531.497331	12694.109335
531.858743	12664.147238
532.220098	12754.822472
532.581396	12680.432685
532.942638	12615.487500
533.303824	12673.183506
533.664953	12652.940752
534.026025	12607.010800
534.387040	12708.494268
534.747999	12679.394207
535.108902	12733.395047
535.469748	12604.868309
535.830537	12631.956950
536.191270	12678.363291
536.551947	12600.744646
536.912567	12662.844099
537.273131	12693.680837
537.633638	12578.036768
537.994089	12638.160089
538.354483	12550.431410
538.714821	12677.584433
539.075103	12758.714242
539.435328	12694.258049
539.795497	12665.672187
540.155609	12664.812670
540.515665	12764.756065
540.875665	12629.499387
541.235609	12730.811456
541.595496	12692.165971
541.955328	12871.414278
542.315102	12715.783776
542.674821	12664.822752
543.034483	12665.926765
543.394090	12671.172085
543.753640	12644.514464
544.113134	12882.635886
544.472571	12633.988535
544.831953	12917.523192
545.191278	12738.882343
545.550548	12672.041684
545.909761	12781.611163
546.268918	12833.461951
546.628019	12885.985733
546.987064	12776.275102
547.346053	12629.075930
547.704986	12818.676247
548.063863	12703.974873
548.422684	12757.060744
548.781449	12715.506513
549.140158	12820.183552
549.498811	12767.001899
549.857408	12634.764872
550.215949	12838.392200
550.574434	12810.383549
550.932864	12745.014907
551.291237	12945.100824
551.649555	12839.609638
552.007817	12897.953432
552.366022	12812.662150
552.724173	12852.245290
553.082267	12949.373202
553.440305	13026.152495
553.798288	12854.284437
554.156215	12921.735076
554.514086	12980.519971
554.871902	12916.149477
555.229661	12947.248355
555.587365	12898.507959
555.945014	12912.577820
556.302606	12896.864543
556.660143	12949.950414
557.017625	12983.854694
557.375050	12945.042850
557.732421	13046.231411
558.089735	13041.626317
558.446994	13011.608766
558.804197	13127.119245
559.161345	13126.854584
559.518437	12932.225717
559.875474	13039.594732
560.232455	13067.399216
560.589381	13108.086369
560.946251	13049.661916
561.303065	13220.831774
561.659825	13170.838652
562.016528	13099.032456
562.373177	13034.493084
562.729770	13168.280266
563.086307	13043.834342
563.442789	13153.139161
563.799216	13194.950491
564.155587	13139.608704
564.511904	13155.488338
564.868164	13165.255574
565.224370	13233.790060
565.580520	13170.730267
565.936615	13232.736459
566.292654	13170.803364
566.648638	13239.680649
567.004567	13242.513777
567.360441	13241.820618
567.716260	13215.944376
568.072023	13298.533599
568.427732	13285.053554
568.783385	13179.794262
569.138982	13291.944811
569.494525	13285.930715
569.850013	13237.633940
570.205445	13227.128176
570.560823	13237.512953
570.916145	13195.000902
571.271412	13205.486502
571.626625	13159.390191
571.981782	13168.368486
572.336884	13114.470990
572.691931	13198.126417
573.046923	13086.525354
573.401860	13069.178743
573.756743	13057.763050
574.111570	13085.607864
574.466342	13056.500241
574.821059	13114.236576
575.175722	12984.336124
575.530330	13002.791788
575.884882	12950.031072
576.239380	12936.533383
576.593823	12920.376485
576.948211	12916.071339
577.302544	12798.824183
577.656823	12809.181234
578.011047	12866.378165
578.365216	12797.057259
578.719330	12740.482910
579.073389	12711.773538
579.427394	12730.723236
579.781344	12715.841750
580.135239	12655.930157
580.489080	12666.680417
580.842866	12552.367213
581.196597	12655.506700
581.550273	12641.900626
581.903895	12608.278650
582.257463	12716.945762
582.610975	12554.260166
582.964434	12620.705094
583.317837	12532.202597
583.671186	12492.100218
584.024481	12546.774053
584.377721	12438.656426
584.730906	12514.677026
585.084037	12525.265970
585.437113	12439.326899
585.790135	12462.496043
586.143103	12378.984288
586.496016	12389.016184
586.848874	12400.268039
587.201679	12403.181826
587.554428	12274.982763
587.907124	12327.186432
588.259765	12267.980601
588.612352	12330.354797
588.964884	12185.875328
589.317362	12238.124367
589.669786	12241.660737
590.022155	12195.017461
590.374470	12298.610652
590.726731	12178.116992
591.078937	12075.206878
591.431090	12104.019593
591.783188	12024.525637
592.135232	11947.154008
592.487222	12009.235818
592.839157	12015.547343
593.191038	11952.192642
593.542866	11897.672563
593.894639	11752.535223
594.246358	11804.033130
594.598022	11814.155767
594.949633	11714.860160
595.301190	11709.841691
595.652692	11660.839155
596.004141	11755.640574
596.355535	11532.587160
596.706876	11517.471260
597.058162	11480.232257
597.409395	11573.299518
597.760573	11604.325300
598.111698	11494.534010
598.462768	11496.104330
598.813785	11500.134732
599.164748	11370.778724
599.515657	11454.597989
599.866511	11329.335399
600.217312	11462.807508
600.568060	11233.213198
600.918753	11383.749613
601.269392	11388.831096
601.619978	11290.828545
601.970510	11335.543580
602.320988	11373.034641
602.671412	11446.542226
603.021783	11366.831501
603.372100	11298.491099
603.722363	11315.663789
604.072572	11306.423354
604.422728	11327.117291
604.772830	11271.122675
605.122878	11278.981833
605.472872	11245.740465
605.822813	11307.413941
606.172701	11268.329875
606.522534	11300.336161
606.872314	11355.990500
607.222041	11285.517689
607.571714	11366.234124
607.921333	11230.831252
608.270899	11286.117587
608.620411	11355.108298
608.969870	11299.209463
609.319276	11277.827409
609.668627	11290.493308
610.017926	11381.284489
610.367171	11408.380691
610.716362	11397.022971
611.065500	11374.375588
611.414585	11381.029911
611.763616	11444.624067
612.112594	11414.102401
612.461518	11433.349526
612.810389	11482.016825
613.159207	11426.231417
613.507971	11423.209245
613.856682	11518.487053
614.205340	11476.716052
614.553945	11615.095725
614.902496	11489.392033
615.250994	11556.487270
615.599439	11549.966538
615.947830	11580.518451
616.296169	11545.941177
616.644454	11560.051366
616.992686	11578.665827
617.340864	11675.239211
617.688990	11559.048177
618.037063	11697.652181
618.385082	11658.011068
618.733048	11699.043539
619.080961	11691.774196
619.428821	11672.602688
619.776628	11675.375322
620.124382	11619.720984
620.472083	11640.404838
620.819731	11665.078765
621.167326	11582.693709
621.514868	11566.491440
621.862357	11473.835032
622.209793	11456.657301
622.557176	11380.583769
622.904506	11326.247692
623.251783	11250.738769
623.599007	11187.573111
623.946179	11142.658951
624.293297	11114.738521
624.640363	10979.605351
624.987376	10964.370984
625.334336	10893.923379
625.681243	10814.192490
626.028097	10785.581421
626.374899	10749.501883
626.721647	10723.648326
627.068343	10682.570484
627.414987	10627.619386
627.761577	10562.331403
628.108115	10611.059196
628.454600	10480.268980
628.801032	10494.800106
629.147412	10479.157405
629.493739	10451.872160
629.840014	10374.112362
630.186236	10415.134752
630.532405	10310.608947
630.878521	10346.703609
631.224585	10306.210540
631.570597	10228.244055
631.916556	10235.836033
632.262462	10214.043125
632.608316	10195.751298
632.954117	10169.239870
633.299866	10143.635849
633.645562	10127.466348
633.991206	10025.037664
634.336797	9932.968551
634.682336	9918.616386
635.027823	9862.934321
635.373257	9829.831584
635.718639	9766.582747
636.063968	9732.302901
636.409245	9615.179253
636.754470	9603.846740
637.099642	9549.493019
637.444762	9445.511659
637.789829	9452.793606
638.134845	9380.594200
638.479808	9359.295325
