Dividing Wavelength (nm)	Counts (n)	Blue Motor Position (mm): 43.600000	Red Motor Position (mm): 0.000000	
326.493990	2261.204517
326.888308	2261.204517
327.282561	2261.204517
327.676750	2220.935780
328.070874	2217.648947
328.464933	2218.717672
328.858929	2223.935266
329.252859	2228.610936
329.646726	2239.114180
330.040528	2248.541138
330.434265	2263.437748
330.827938	2284.517333
331.221547	2297.309260
331.615091	2316.203505
332.008571	2333.131700
332.401986	2355.499299
332.795338	2371.136958
333.188625	2392.944990
333.581847	2412.250089
333.975006	2432.392019
334.368100	2449.421037
334.761129	2469.096660
335.154095	2484.792292
335.546996	2511.013854
335.939833	2551.738816
336.332606	2565.644838
336.725315	2579.225707
337.117960	2593.950917
337.510540	2603.539192
337.903056	2615.060749
338.295508	2625.483335
338.687896	2635.626136
339.080220	2636.974645
339.472480	2644.798516
339.864676	2649.433857
340.256807	2654.046512
340.648875	2658.036586
341.040879	2659.642193
341.432818	2665.868018
341.824694	2666.725014
342.216506	2667.745848
342.608253	2668.781805
342.999937	2669.265756
343.391557	2671.103256
343.783113	2668.517144
344.174605	2669.457320
344.566033	2667.760971
344.957397	2667.766012
345.348697	2665.621002
345.739934	2663.415497
346.131106	2665.883142
346.522215	2658.364261
346.913260	2657.776966
347.304241	2655.291677
347.695159	2654.858138
348.086012	2657.230001
348.476802	2654.081800
348.867528	2649.481747
349.258191	2647.755152
349.648789	2645.189205
350.039324	2640.329533
350.429796	2644.632157
350.820203	2644.228865
351.210548	2643.263484
351.600828	2640.752990
351.991045	2638.822228
352.381198	2639.626292
352.771288	2638.988586
353.161314	2639.165026
353.551276	2638.590335
353.941175	2635.419449
354.331010	2634.673358
354.720782	2639.802732
355.110490	2637.599748
355.500135	2638.396250
355.889717	2635.676548
356.279235	2637.640077
356.668689	2637.050262
357.058080	2639.669142
357.447408	2638.658390
357.836672	2639.061682
358.225873	2637.975314
358.615010	2638.618061
359.004084	2638.360962
359.393095	2639.938843
359.782043	2641.060500
360.170927	2643.301293
360.559748	2641.249543
360.948505	2644.929586
361.337199	2646.489823
361.725830	2645.370687
362.114398	2646.830101
362.502903	2647.966881
362.891344	2644.881695
363.279722	2648.387817
363.668037	2646.250368
364.056289	2648.513846
364.444478	2649.567447
364.832603	2650.638692
365.220665	2652.206491
365.608665	2651.783034
365.996601	2653.275216
366.384474	2652.629948
366.772284	2652.685401
367.160031	2652.922335
367.547715	2654.822850
367.935336	2654.926194
368.322893	2652.032571
368.710388	2651.334372
369.097820	2650.633651
369.485189	2651.382262
369.872495	2657.139260
370.259738	2658.530619
370.646918	2657.262768
371.034035	2659.440547
371.421090	2660.272337
371.808081	2659.818633
372.195010	2660.673109
372.581875	2659.110351
372.968678	2659.682522
373.355418	2663.128151
373.742096	2662.321566
374.128710	2662.140085
374.515262	2663.478511
374.901751	2663.665034
375.288177	2664.794252
375.674540	2663.085301
376.060841	2665.167298
376.447079	2667.806342
376.833254	2670.836075
377.219367	2670.374810
377.605417	2669.923626
377.991404	2674.059893
378.377329	2682.813857
378.763191	2682.415606
379.148991	2690.693180
379.534727	2702.141641
379.920402	2709.678166
380.306013	2726.003942
380.691563	2744.245357
381.077049	2761.102976
381.462474	2786.573406
381.847835	2818.690597
382.233134	2846.684124
382.618371	2877.084802
383.003545	2923.922163
383.388657	2956.780404
383.773706	3004.126921
384.158693	3042.573280
384.543618	3084.228335
384.928480	3138.196407
385.313280	3193.865869
385.698017	3237.751634
386.082692	3317.190136
386.467305	3350.050898
386.851856	3400.986716
387.236344	3484.309427
387.620770	3529.258876
388.005133	3602.771502
388.389435	3666.219464
388.773674	3704.847305
389.157851	3790.650264
389.541965	3874.409035
389.926018	3874.857698
390.310008	3986.526817
390.693936	4062.179413
391.077802	4118.786530
391.461606	4141.426352
391.845348	4224.363415
392.229027	4298.077687
392.612645	4325.075586
392.996200	4436.510292
393.379694	4516.127755
393.763125	4627.801916
394.146494	4668.501672
394.529801	4740.426334
394.913047	4833.649872
395.296230	4803.173576
395.679351	4919.883849
396.062410	4979.576152
396.445408	4961.622083
396.828343	5031.454666
397.211217	5093.843986
397.594028	4983.039425
397.976778	5107.384525
398.359466	5152.389426
398.742092	5183.140465
399.124656	5097.571919
399.507158	5216.840578
399.889598	5289.309685
400.271977	5412.974230
400.654294	5409.417696
401.036549	5443.574034
401.418742	5370.159711
401.800874	5578.293830
402.182944	5634.079238
402.564952	5743.953707
402.946898	5804.603829
403.328783	5641.013345
403.710606	5655.753679
404.092367	5983.146374
404.474067	6004.039437
404.855705	5905.116875
405.237282	5836.123643
405.618797	6094.124856
406.000250	6072.626855
406.381642	6274.885509
406.762972	6296.635567
407.144240	6358.530854
407.525447	6343.750191
407.906593	6363.987903
408.287677	6519.121851
408.668700	6430.069869
409.049661	6547.853908
409.430560	6575.061015
409.811399	6429.956443
410.192176	6706.567075
410.572891	6712.613939
410.953545	6912.518374
411.334138	6642.282281
411.714669	6814.175545
412.095139	6610.061746
412.475547	6855.424786
412.855894	6923.654283
413.236180	7100.976869
413.616405	6773.639627
413.996568	6995.674727
414.376670	7035.386417
414.756711	6938.432425
415.136691	7029.674789
415.516609	7229.543937
415.896466	7222.559418
416.276262	7419.431599
416.655997	7407.915083
417.035670	7592.144050
417.415283	7926.433044
417.794834	7984.499575
418.174324	7846.477824
418.553753	7766.147037
418.933121	8072.813028
419.312428	8171.914551
419.691674	7951.079245
420.070859	8428.660517
420.449983	8111.289635
420.829045	8476.884194
421.208047	8244.539934
421.586988	8550.706851
421.965867	8564.005415
422.344686	8674.719236
422.723444	8730.396260
423.102141	8075.809994
423.480777	8830.057351
423.859352	8362.631484
424.237866	8978.161409
424.616319	8844.406995
424.994712	9270.011450
425.373044	8814.908683
425.751314	9288.918297
426.129524	9164.522785
426.507673	9269.393908
426.885762	9419.816898
427.263789	9334.555863
427.641756	9268.186552
428.019662	9356.434471
428.397508	9624.069328
428.775292	9293.336868
429.153016	9676.613275
429.530679	9510.381227
429.908282	9533.200010
430.285824	9254.772042
430.663305	9941.813255
431.040726	9397.519874
431.418086	9374.282676
431.795385	9704.296771
432.172624	9792.383373
432.549802	9708.067554
432.926920	9778.666393
433.303977	9653.600407
433.680974	9861.207726
434.057910	9959.936203
434.434786	10022.073466
434.811601	9848.740952
435.188355	10414.917982
435.565050	10156.579012
435.941683	10080.933978
436.318257	10563.546321
436.694770	10718.445855
437.071222	10775.970462
437.447614	10609.385533
437.823946	10521.679538
438.200218	10635.009718
438.576429	10460.789961
438.952580	10710.284227
439.328670	10746.719166
439.704700	10544.485718
440.080670	10533.589264
440.456580	11056.787937
440.832429	10835.516571
441.208218	10436.562176
441.583947	10746.888045
441.959616	10915.973386
442.335224	10730.055632
442.710773	10847.721204
443.086261	11069.602550
443.461689	10337.770684
443.837057	11008.375216
444.212365	11266.860379
444.587612	10900.512167
444.962800	11120.195570
445.337927	10875.031655
445.712995	10517.979331
446.088002	11573.395300
446.462949	11250.680796
446.837837	11220.229706
447.212664	11173.893940
447.587431	11734.820608
447.962139	12487.848005
448.336786	14772.509011
448.711374	15269.541574
449.085901	13099.836520
449.460369	12737.438053
449.834776	12178.464832
450.209124	13094.170263
450.583412	13520.039379
450.957640	14458.679540
451.331808	13523.449719
451.705917	12561.327864
452.079965	11838.507061
452.453954	12749.201585
452.827883	12392.363510
453.201752	12677.218949
453.575562	12218.854557
453.949311	12630.404274
454.323001	12613.844084
454.696632	12853.089684
455.070202	13122.181435
455.443713	13334.058610
455.817164	13827.181759
456.190556	13793.786635
456.563888	14158.814065
456.937160	14316.282067
457.310373	13660.294361
457.683526	13752.940686
458.056619	13291.367599
458.429653	13489.744565
458.802628	12870.143907
459.175542	13279.654478
459.548398	14222.713210
459.921194	14582.888529
460.293930	14654.752698
460.666607	15503.375495
461.039224	16559.892957
461.411782	17268.895957
461.784280	17085.581959
462.156719	17176.121082
462.529099	16841.932911
462.901419	15800.516226
463.273680	15573.810497
463.645882	15461.289422
464.018024	15189.707341
464.390106	15410.194807
464.762130	16134.260776
465.134094	16924.471723
465.505999	18980.929776
465.877845	22229.174572
466.249631	25037.442583
466.621358	24677.136194
466.993026	23253.063165
467.364634	22670.252848
467.736184	21198.177952
468.107674	20402.671272
468.479105	20525.811537
468.850477	19992.356637
469.221790	19589.313867
469.593043	18899.202590
469.964238	18324.059868
470.335373	17985.120410
470.706449	18463.369634
471.077467	18040.394142
471.448425	19906.599048
471.819324	24024.936916
472.190164	25909.194194
472.560945	22257.520980
472.931667	19945.136149
473.302330	19326.606737
473.672934	18935.375390
474.043479	19180.110806
474.413965	18995.823865
474.784393	18584.218695
475.154761	19346.562144
475.525070	19271.816956
475.895321	18989.983689
476.265513	19579.622248
476.635645	20184.865700
477.005719	19940.624316
477.375734	20123.739189
477.745691	20609.845051
478.115588	21155.759163
478.485427	21703.712421
478.855207	22790.431435
479.224928	24578.518622
479.594591	26805.012274
479.964194	26739.474753
480.333739	26959.014483
480.703226	26552.740333
481.072653	26250.654230
481.442022	26869.561728
481.811333	27783.659032
482.180584	27666.452205
482.549777	26719.559675
482.918912	26388.625569
483.287988	26519.375456
483.657005	26155.235270
484.025964	25943.937827
484.394864	25822.531719
484.763706	25473.192360
485.132489	24937.297542
485.501213	25116.621466
485.869879	25030.694999
486.238487	24871.626430
486.607036	25005.942933
486.975527	24746.419292
487.343959	25044.061618
487.712333	24946.578306
488.080648	24612.501040
488.448905	25126.595389
488.817104	24871.195412
489.185244	25578.880150
489.553326	25525.577510
489.921350	26564.929843
490.289315	28916.426466
490.657222	30631.913476
491.025070	31146.058236
491.392861	30893.488866
491.760593	30028.724294
492.128267	29117.702095
492.495883	28063.624552
492.863440	27186.196602
493.230939	26321.484962
493.598380	26171.908886
493.965763	25778.706448
494.333088	25300.437059
494.700354	25251.381591
495.067563	25104.497491
495.434713	24854.126065
495.801805	25021.772157
496.168839	24804.357273
496.535815	24659.585417
496.902733	24888.395829
497.269593	24577.712038
497.636395	24744.937193
498.003139	24690.157495
498.369825	24427.581435
498.736453	24640.071111
499.103023	24511.370453
499.469535	24509.946327
499.835989	24740.158179
500.202385	24750.091773
500.568723	24282.912922
500.935003	24477.309897
501.301226	24155.994313
501.667390	25005.506874
502.033497	25213.482196
502.399546	24946.117040
502.765537	24478.418951
503.131470	24861.216448
503.497345	25011.485682
503.863163	24247.985288
504.228923	24790.020232
504.594625	25031.766244
504.960269	24597.712816
505.325856	25071.412398
505.691385	24462.148627
506.056856	25079.523615
506.422270	25058.980913
506.787625	24583.695887
507.152924	25011.248748
507.518164	25053.428082
507.883347	24872.548962
508.248472	24550.255393
508.613540	25319.391797
508.978550	25120.127589
509.343503	25137.978314
509.708398	25352.451684
510.073236	25519.674319
510.438016	25727.369858
510.802738	25379.008483
511.167403	25646.295501
511.532010	25386.096345
511.896561	26122.102286
512.261053	26097.730828
512.625488	25926.800424
512.989866	25817.041902
513.354186	25643.769883
513.718449	25784.218949
514.082655	26146.874516
514.446803	25875.778906
514.810894	26362.426693
515.174927	25860.421031
515.538904	25885.520936
515.902822	26383.332358
516.266684	26145.712530
516.630488	26046.116974
516.994235	25980.592056
517.357925	26326.745406
517.721558	26476.573539
518.085133	26600.414525
518.448651	26479.910783
518.812112	26264.265345
519.175516	26473.758055
519.538863	26618.308100
519.902152	26409.846306
520.265385	26659.285119
520.628560	26470.166233
520.991678	26449.462214
521.354739	26516.060897
521.717743	26601.420235
522.080690	26381.885547
522.443580	26721.679480
522.806413	26694.358947
523.169189	26810.514693
523.531908	26847.569695
523.894569	26474.471378
524.257174	26554.154376
524.619722	26708.068365
524.982213	26419.580774
525.344647	26438.427128
525.707025	26610.287624
526.069345	26563.490593
526.431608	26543.751955
526.793815	26719.506743
527.155964	26202.831324
527.518057	26376.035287
527.880093	26287.099251
528.242072	26525.324018
528.603995	26239.717446
528.965860	26034.280345
529.327669	26060.542236
529.689421	26049.912963
530.051117	25897.420580
530.412755	26071.320223
530.774337	25843.308834
531.135862	25743.801498
531.497331	25927.886793
531.858743	25526.595823
532.220098	25963.910878
532.581396	25661.048437
532.942638	25561.319291
533.303824	25687.111203
533.664953	25670.959346
534.026025	25349.694173
534.387040	25591.331800
534.747999	25627.706246
535.108902	25791.203468
535.469748	25298.962521
535.830537	25471.677493
536.191270	25600.773882
536.551947	25432.293479
536.912567	25053.647372
537.273131	25486.876572
537.633638	25160.908003
537.994089	25386.310594
538.354483	24881.471804
538.714821	25392.929629
539.075103	25437.264057
539.435328	25207.284097
539.795497	24801.057838
540.155609	25147.087679
540.515665	25459.253570
540.875665	24679.225753
541.235609	25018.520612
541.595496	24951.926970
541.955328	25311.555324
542.315102	25238.892132
542.674821	24735.162396
543.034483	24621.827175
543.394090	24807.384486
543.753640	24611.810402
544.113134	25246.567289
544.472571	24825.804862
544.831953	25126.993640
545.191278	24765.205152
545.550548	24663.865357
545.909761	24860.644277
546.268918	25094.155564
546.628019	25066.212448
546.987064	24760.476550
547.346053	24508.181923
547.704986	24608.377377
548.063863	24765.230358
548.422684	24784.739623
548.781449	24285.932574
549.140158	24704.373549
549.498811	24281.055257
549.857408	24041.139184
550.215949	24427.725108
550.574434	24132.996569
550.932864	24337.644730
551.291237	24520.883110
551.649555	24349.539332
552.007817	24416.460650
552.366022	24268.739718
552.724173	24292.460868
553.082267	24263.534727
553.440305	24737.105761
553.798288	23986.601461
554.156215	24481.708304
554.514086	24603.041315
554.871902	23992.030784
555.229661	24266.798874
555.587365	24121.964004
555.945014	24016.450133
556.302606	24232.206477
556.660143	24209.755698
557.017625	24446.228663
557.375050	23959.835455
557.732421	24355.719787
558.089735	24185.686709
558.446994	24222.618202
558.804197	24263.199490
559.161345	24178.445091
559.518437	23959.016267
559.875474	24131.073369
560.232455	24319.403315
560.589381	24130.070179
560.946251	24134.617300
561.303065	24432.494039
561.659825	24525.982237
562.016528	24136.038905
562.373177	23867.408420
562.729770	24232.806374
563.086307	24076.485234
563.442789	24242.722323
563.799216	24088.140382
564.155587	24073.415172
564.511904	24077.256531
564.868164	24012.386963
565.224370	23981.628363
565.580520	23915.775770
565.936615	24032.566702
566.292654	23736.502257
566.648638	23983.370082
567.004567	23817.483352
567.360441	23763.545527
567.716260	23495.439321
568.072023	23807.103617
568.427732	23589.522376
568.783385	23343.738399
569.138982	23597.401699
569.494525	23625.690134
569.850013	23384.395305
570.205445	23480.230160
570.560823	23301.606956
570.916145	23075.143202
571.271412	23248.873966
571.626625	23004.539322
571.981782	23112.646866
572.336884	22906.468715
572.691931	23061.217014
573.046923	22789.667701
573.401860	22657.397906
573.756743	22702.982540
574.111570	22576.157191
574.466342	22497.179954
574.821059	22582.057862
575.175722	22293.245117
575.530330	22271.764760
575.884882	22281.466461
576.239380	22197.034696
576.593823	22085.166451
576.948211	22061.798182
577.302544	21912.663207
577.656823	21765.751381
578.011047	21881.042570
578.365216	21753.816449
578.719330	21617.327209
579.073389	21498.048468
579.427394	21669.684633
579.781344	21420.152559
580.135239	21311.356897
580.489080	21251.992269
580.842866	21046.598017
581.196597	21248.501270
581.550273	21202.246163
581.903895	21089.805747
582.257463	21407.189232
582.610975	20935.400246
582.964434	21263.881831
583.317837	20940.842172
583.671186	21029.503465
584.024481	21010.147955
584.377721	20779.691607
584.730906	20856.488544
585.084037	20842.010350
585.437113	20766.960173
585.790135	20976.715022
586.143103	20423.554252
586.496016	20448.076945
586.848874	20684.940599
587.201679	20610.979311
587.554428	20306.075203
587.907124	20635.159205
588.259765	20391.903367
588.612352	20468.521344
588.964884	20034.656959
589.317362	20198.446568
589.669786	20279.231058
590.022155	20261.377812
590.374470	20513.521204
590.726731	20262.328070
591.078937	20066.595189
591.431090	20139.873402
591.783188	19907.786240
592.135232	19874.486898
592.487222	19967.725559
592.839157	19980.174689
593.191038	19854.773466
593.542866	19752.858980
593.894639	19454.215985
594.246358	19672.961732
594.598022	19567.084899
594.949633	19318.866045
595.301190	19302.157141
595.652692	19465.795515
596.004141	19692.518889
596.355535	19013.225928
596.706876	19034.539927
597.058162	18942.586760
597.409395	19177.683490
597.760573	19220.094718
598.111698	18998.357045
598.462768	18952.248132
598.813785	18913.353109
599.164748	18717.090907
599.515657	18767.053783
599.866511	18558.463440
600.217312	18918.711856
600.568060	18434.196477
600.918753	18744.091328
601.269392	18639.789854
601.619978	18430.140869
601.970510	18623.229664
602.320988	18568.129852
602.671412	18774.557541
603.021783	18705.244196
603.372100	18405.310666
603.722363	18565.669769
604.072572	18510.312859
604.422728	18657.945570
604.772830	18414.246111
605.122878	18368.653915
605.472872	18348.711111
605.822813	18335.780551
606.172701	18318.116348
606.522534	18490.047421
606.872314	18525.998409
607.222041	18364.633595
607.571714	18586.661134
607.921333	18414.896420
608.270899	18485.422162
608.620411	18639.744484
608.969870	18433.962063
609.319276	18433.364687
609.668627	18451.812789
610.017926	18587.888655
610.367171	18706.184371
610.716362	18758.849305
611.065500	18570.773938
611.414585	18712.367346
611.763616	18696.278504
612.112594	18624.308471
612.461518	18603.266695
612.810389	18789.466753
613.159207	18655.097318
613.507971	18564.225479
613.856682	18828.301282
614.205340	18748.391432
614.553945	18901.811387
614.902496	18636.689545
615.250994	18851.873717
615.599439	18807.698086
615.947830	18782.998953
616.296169	18863.649853
616.644454	18826.476384
616.992686	18801.071489
617.340864	19017.871352
617.688990	18758.279655
618.037063	18931.894473
618.385082	18789.071023
618.733048	19065.033867
619.080961	18951.126475
619.428821	18977.690835
619.776628	18848.201237
620.124382	18783.797976
620.472083	18852.420683
620.819731	18852.587041
621.167326	18544.270071
621.514868	18586.525023
621.862357	18362.904479
622.209793	18361.193008
622.557176	18199.429942
622.904506	18036.031023
623.251783	17956.040514
623.599007	17696.995783
623.946179	17645.525602
624.293297	17570.477945
624.640363	17305.116647
624.987376	17339.570413
625.334336	17139.282850
625.681243	16983.914489
626.028097	16996.459400
626.374899	16910.137202
626.721647	16780.614837
627.068343	16615.834641
627.414987	16555.791978
627.761577	16515.866039
628.108115	16558.095785
628.454600	16285.029084
628.801032	16387.109929
629.147412	16320.014692
629.493739	16328.660271
629.840014	16142.351828
630.186236	16226.713017
630.532405	16000.047616
630.878521	16207.062599
631.224585	16101.170642
631.570597	15915.676345
631.916556	15949.636078
632.262462	15921.370328
632.608316	15850.322826
632.954117	15791.853003
633.299866	15766.269148
633.645562	15691.513877
633.991206	15450.627382
634.336797	15317.984542
634.682336	15287.165448
635.027823	15160.380429
635.373257	15036.741089
635.718639	14948.404951
636.063968	14892.599378
