Dividing Wavelength (nm)	Counts (n)	Blue Motor Position (mm): 2.200000	Red Motor Position (mm): 0.000000	
326.493990	2062.920812
326.888308	2062.920812
327.282561	2062.920812
327.676750	2039.983562
328.070874	2041.168233
328.464933	2045.080169
328.858929	2053.743392
329.252859	2065.123797
329.646726	2078.964284
330.040528	2095.287541
330.434265	2112.644233
330.827938	2136.057872
331.221547	2154.175779
331.615091	2174.421053
332.008571	2196.803776
332.401986	2216.484441
332.795338	2234.882132
333.188625	2254.015831
333.581847	2275.352515
333.975006	2289.893723
334.368100	2309.317289
334.761129	2327.566266
335.154095	2342.140242
335.546996	2355.958044
335.939833	2371.847761
336.332606	2383.271016
336.725315	2396.872049
337.117960	2407.319840
337.510540	2415.925090
337.903056	2426.675350
338.295508	2430.579724
338.687896	2438.406115
339.080220	2441.967691
339.472480	2445.556992
339.864676	2452.382714
340.256807	2454.000925
340.648875	2457.335648
341.040879	2457.204578
341.432818	2457.958231
341.824694	2460.516616
342.216506	2463.316977
342.608253	2457.580144
342.999937	2457.980916
343.391557	2459.833540
343.783113	2455.213322
344.174605	2455.359516
344.566033	2454.830195
344.957397	2447.923814
345.348697	2452.284412
345.739934	2445.894749
346.131106	2446.988680
346.522215	2443.306117
346.913260	2443.785027
347.304241	2436.311516
347.695159	2439.462237
348.086012	2438.804367
348.476802	2436.906372
348.867528	2433.027204
349.258191	2430.322625
349.648789	2430.645259
350.039324	2425.551173
350.429796	2432.906217
350.820203	2429.541246
351.210548	2427.134095
351.600828	2429.735331
351.991045	2429.271545
352.381198	2429.914292
352.771288	2428.414548
353.161314	2428.780032
353.551276	2430.234405
353.941175	2428.923705
354.331010	2427.378591
354.720782	2428.200299
355.110490	2430.738520
355.500135	2427.827254
355.889717	2430.183993
356.279235	2429.521082
356.668689	2429.952100
357.058080	2429.397573
357.447408	2427.605443
357.836672	2428.855649
358.225873	2433.712801
358.615010	2431.111566
359.004084	2430.856987
359.393095	2431.827410
359.782043	2431.721545
360.170927	2433.768254
360.559748	2432.374375
360.948505	2435.893100
361.337199	2434.196752
361.725830	2434.874787
362.114398	2432.954108
362.502903	2435.537699
362.891344	2437.629778
363.279722	2434.496701
363.668037	2437.231527
364.056289	2436.011567
364.444478	2438.443924
364.832603	2436.740014
365.220665	2437.768409
365.608665	2439.041301
365.996601	2439.621033
366.384474	2438.227154
366.772284	2439.510128
367.160031	2439.084151
367.547715	2439.212700
367.935336	2440.694799
368.322893	2437.352514
368.710388	2438.307813
369.097820	2440.162958
369.485189	2435.716660
369.872495	2441.697989
370.259738	2442.746549
370.646918	2443.059100
371.034035	2441.849223
371.421090	2443.777465
371.808081	2445.443566
372.195010	2443.739656
372.581875	2442.675973
372.968678	2444.773093
373.355418	2444.916766
373.742096	2443.711930
374.128710	2444.800819
374.515262	2447.165120
374.901751	2440.588935
375.288177	2445.791406
375.674540	2444.911724
376.060841	2442.859975
376.447079	2446.865172
376.833254	2444.624379
377.219367	2447.462548
377.605417	2447.502877
377.991404	2447.623865
378.377329	2448.254009
378.763191	2448.400203
379.148991	2447.472631
379.534727	2446.058587
379.920402	2445.768721
380.306013	2448.770728
380.691563	2448.881633
381.077049	2448.117898
381.462474	2448.478341
381.847835	2448.561520
382.233134	2445.562033
382.618371	2451.031685
383.003545	2449.068156
383.388657	2449.690738
383.773706	2450.154524
384.158693	2450.187292
384.543618	2450.819957
384.928480	2449.269802
385.313280	2449.698300
385.698017	2450.746860
386.082692	2450.648557
386.467305	2452.299535
386.851856	2453.116202
387.236344	2452.395317
387.620770	2449.773917
388.005133	2447.457507
388.389435	2451.830708
388.773674	2447.628906
389.157851	2452.299535
389.541965	2454.411779
389.926018	2454.366408
390.310008	2452.211315
390.693936	2453.327931
391.077802	2451.470266
391.461606	2454.958744
391.845348	2454.527725
392.229027	2456.912191
392.612645	2454.482355
392.996200	2457.265072
393.379694	2455.356995
393.763125	2456.513940
394.146494	2454.056377
394.529801	2460.428396
394.913047	2454.890688
395.296230	2456.483693
395.679351	2457.207099
396.062410	2457.038220
396.445408	2457.736420
396.828343	2457.622994
397.211217	2457.696091
397.594028	2456.813889
397.976778	2457.386060
398.359466	2458.119548
398.742092	2458.805144
399.124656	2458.323714
399.507158	2456.536625
399.889598	2458.021245
400.271977	2458.031327
400.654294	2460.877059
401.036549	2460.080556
401.418742	2455.576285
401.800874	2458.835391
402.182944	2461.469394
402.564952	2456.047633
402.946898	2460.859415
403.328783	2460.688015
403.710606	2459.747840
404.092367	2462.553242
404.474067	2459.044599
404.855705	2462.147429
405.237282	2460.136009
405.618797	2459.909157
406.000250	2461.640793
406.381642	2460.592233
406.762972	2459.221040
407.144240	2457.169290
407.525447	2459.967130
407.906593	2457.118878
408.287677	2460.771194
408.668700	2462.316308
409.049661	2464.161370
409.430560	2463.090125
409.811399	2459.614250
410.192176	2464.650362
410.572891	2460.932511
410.953545	2465.509879
411.334138	2463.120372
411.714669	2465.986268
412.095139	2463.435444
412.475547	2464.594910
412.855894	2463.057358
413.236180	2465.053655
413.616405	2465.525002
413.996568	2465.071299
414.376670	2467.833851
414.756711	2462.893520
415.136691	2464.980558
415.516609	2464.413428
415.896466	2464.685650
416.276262	2467.846454
416.655997	2465.555249
417.035670	2465.527523
417.415283	2464.504169
417.794834	2465.330918
418.174324	2465.134313
418.553753	2465.709005
418.933121	2468.431228
419.312428	2465.388891
419.691674	2465.555249
420.070859	2464.834364
420.449983	2465.519961
420.829045	2467.223871
421.208047	2467.927112
421.586988	2466.006433
421.965867	2467.223871
422.344686	2465.671196
422.723444	2466.472739
423.102141	2466.606330
423.480777	2469.016002
423.859352	2467.894345
424.237866	2468.741259
424.616319	2470.208234
424.994712	2470.167905
425.373044	2468.940384
425.751314	2467.917030
426.129524	2465.444344
426.507673	2466.752523
426.885762	2462.790177
427.263789	2468.577421
427.641756	2467.571711
428.019662	2471.362659
428.397508	2471.029942
428.775292	2471.541620
429.153016	2467.362503
429.530679	2468.050621
429.908282	2471.155971
430.285824	2471.597072
430.663305	2469.270580
431.040726	2469.073975
431.418086	2469.764613
431.795385	2469.598255
432.172624	2470.538430
432.549802	2468.106073
432.926920	2470.692185
433.303977	2470.125055
433.680974	2468.443831
434.057910	2470.001547
434.434786	2469.731845
434.811601	2473.205200
435.188355	2471.481126
435.565050	2472.612865
435.941683	2472.804429
436.318257	2472.789305
436.694770	2472.103708
437.071222	2470.551033
437.447614	2472.607824
437.823946	2471.667648
438.200218	2470.712350
438.576429	2471.521455
438.952580	2473.104377
439.328670	2471.329891
439.704700	2474.301651
440.080670	2470.931640
440.456580	2473.026239
440.832429	2472.887608
441.208218	2473.658904
441.583947	2473.593369
441.959616	2472.660756
442.335224	2471.783595
442.710773	2475.085551
443.086261	2475.037660
443.461689	2470.883749
443.837057	2473.989100
444.212365	2471.523976
444.587612	2470.687144
444.962800	2470.704788
445.337927	2472.136476
445.712995	2469.812504
446.088002	2472.486836
446.462949	2475.231744
446.837837	2474.957001
447.212664	2475.927423
447.587431	2474.336939
447.962139	2473.459779
448.336786	2476.083699
448.711374	2473.343832
449.085901	2475.945068
449.460369	2474.147896
449.834776	2474.619244
450.209124	2473.638740
450.583412	2473.966415
450.957640	2474.667135
451.331808	2475.269553
451.705917	2473.469861
452.079965	2475.854327
452.453954	2474.767958
452.827883	2474.208390
453.201752	2473.716878
453.575562	2473.948771
453.949311	2477.376755
454.323001	2478.127887
454.696632	2475.579584
455.070202	2476.550006
455.443713	2475.839203
455.817164	2474.059676
456.190556	2476.224852
456.563888	2475.635037
456.937160	2474.899028
457.310373	2474.515900
457.683526	2478.931951
458.056619	2478.135449
458.429653	2476.499594
458.802628	2477.485140
459.175542	2475.914821
459.548398	2474.120170
459.921194	2477.245685
460.293930	2476.998669
460.666607	2478.879019
461.039224	2475.798874
461.411782	2479.133597
461.784280	2477.280973
462.156719	2477.044039
462.529099	2480.479585
462.901419	2477.195274
463.273680	2473.835345
463.645882	2474.531024
464.018024	2476.938175
464.390106	2472.315437
464.762130	2477.386838
465.134094	2478.894142
465.505999	2477.137300
465.877845	2477.333905
466.249631	2479.289873
466.621358	2478.677373
466.993026	2477.898515
467.364634	2484.555358
467.736184	2480.222487
468.107674	2481.339102
468.479105	2478.659729
468.850477	2479.451190
469.221790	2478.165696
469.593043	2480.058649
469.964238	2479.819194
470.335373	2477.379276
470.706449	2481.099647
471.077467	2478.387507
471.448425	2478.662249
471.819324	2480.388845
472.190164	2479.027733
472.560945	2478.253916
472.931667	2478.490850
473.302330	2478.140490
473.672934	2478.238792
474.043479	2480.280460
474.413965	2477.054121
474.784393	2477.533031
475.154761	2481.215594
475.525070	2480.774493
475.895321	2479.650316
476.265513	2481.439925
476.635645	2479.917497
477.005719	2477.490181
477.375734	2479.282311
477.745691	2478.183340
478.115588	2479.284832
478.485427	2478.705099
478.855207	2477.190232
479.224928	2480.872795
479.594591	2478.263998
479.964194	2480.635861
480.333739	2480.046046
480.703226	2478.659729
481.072653	2481.424802
481.442022	2479.178968
481.811333	2478.720223
482.180584	2476.718885
482.549777	2480.063690
482.918912	2476.834831
483.287988	2478.102681
483.657005	2481.553351
484.025964	2481.407158
484.394864	2480.512353
484.763706	2482.385142
485.132489	2480.466983
485.501213	2480.615697
485.869879	2480.131746
486.238487	2480.086375
486.607036	2480.345995
486.975527	2481.538228
487.343959	2480.071252
487.712333	2484.877992
488.080648	2476.923051
488.448905	2482.470841
488.817104	2480.396406
489.185244	2482.100316
489.553326	2481.260964
489.921350	2482.375059
490.289315	2481.293732
490.657222	2483.199288
491.025070	2480.469503
491.392861	2483.733650
491.760593	2479.801550
492.128267	2481.744915
492.495883	2483.791623
492.863440	2479.541931
493.230939	2481.455049
493.598380	2481.616366
493.965763	2484.109216
494.333088	2482.337251
494.700354	2480.779534
495.067563	2483.348002
495.434713	2481.795327
495.801805	2480.756849
496.168839	2479.826756
496.535815	2481.427322
496.902733	2480.928248
497.269593	2481.240800
497.636395	2482.561582
498.003139	2482.715337
498.369825	2483.131232
498.736453	2480.522435
499.103023	2480.963536
499.469535	2481.578557
499.835989	2481.603763
500.202385	2483.383290
500.568723	2481.087044
500.935003	2481.928917
501.301226	2476.670994
501.667390	2484.857828
502.033497	2484.346150
502.399546	2483.721047
502.765537	2483.292549
503.131470	2481.749956
503.497345	2481.782724
503.863163	2483.164000
504.228923	2482.745584
504.594625	2481.674339
504.960269	2483.453866
505.325856	2484.600729
505.691385	2485.147694
506.056856	2486.218939
506.422270	2481.881026
506.787625	2484.373877
507.152924	2481.555872
507.518164	2480.822384
507.883347	2483.819350
508.248472	2483.287508
508.613540	2483.305152
508.978550	2481.923876
509.343503	2481.293732
509.708398	2481.381952
510.073236	2482.095275
510.438016	2481.349184
510.802738	2480.991262
511.167403	2482.964874
511.532010	2484.348671
511.896561	2484.610811
512.261053	2483.824391
512.625488	2483.133753
512.989866	2484.141984
513.354186	2485.228352
513.718449	2483.721047
514.082655	2481.263485
514.446803	2485.079638
514.810894	2485.906387
515.174927	2484.003352
515.538904	2484.552838
515.902822	2485.011583
516.266684	2484.822539
516.630488	2482.801037
516.994235	2483.852117
517.357925	2483.950420
517.721558	2484.978815
518.085133	2482.783393
518.448651	2479.753659
518.812112	2479.957826
519.175516	2482.906901
519.538863	2479.506643
519.902152	2483.282467
520.265385	2483.073259
520.628560	2485.021665
520.991678	2485.414875
521.354739	2484.797334
521.717743	2486.244145
522.080690	2484.109216
522.443580	2483.642909
522.806413	2483.703403
523.169189	2484.409165
523.531908	2485.099803
523.894569	2484.232724
524.257174	2484.711634
524.619722	2483.461428
524.982213	2484.199957
525.344647	2483.983187
525.707025	2485.702221
526.069345	2482.455718
526.431608	2485.800523
526.793815	2483.902529
527.155964	2483.718527
527.518057	2483.287508
527.880093	2484.958651
528.242072	2482.450677
528.603995	2485.863538
528.965860	2485.082159
529.327669	2484.255410
529.689421	2485.382107
530.051117	2482.551500
530.412755	2483.247179
530.774337	2484.139463
531.135862	2482.932107
531.497331	2484.759525
531.858743	2485.298928
532.220098	2485.162817
532.581396	2485.137612
532.942638	2486.733137
533.303824	2488.416882
533.664953	2484.610811
534.026025	2482.017137
534.387040	2484.303301
534.747999	2486.115595
535.108902	2484.020996
535.469748	2484.056284
535.830537	2483.809268
536.191270	2484.898157
536.551947	2481.704586
536.912567	2483.315234
537.273131	2484.693990
537.633638	2480.048567
537.994089	2486.367653
538.354483	2483.897488
538.714821	2486.380256
539.075103	2484.504947
539.435328	2485.601398
539.795497	2483.842035
540.155609	2485.361943
540.515665	2484.411685
540.875665	2485.745071
541.235609	2483.804226
541.595496	2484.353712
541.955328	2486.501244
542.315102	2488.288333
542.674821	2485.785400
543.034483	2485.558548
543.394090	2484.119298
543.753640	2486.556696
544.113134	2485.419916
544.472571	2485.881182
544.831953	2486.397900
545.191278	2486.899495
545.550548	2488.260606
545.909761	2485.407313
546.268918	2486.402941
546.628019	2486.831439
546.987064	2485.543424
547.346053	2485.414875
547.704986	2483.768938
548.063863	2486.251707
548.422684	2483.937817
548.781449	2485.286326
549.140158	2484.653661
549.498811	2487.358240
549.857408	2486.821357
550.215949	2486.420585
550.574434	2484.754484
550.932864	2485.752632
551.291237	2482.042343
551.649555	2484.557879
552.007817	2485.331696
552.366022	2484.222642
552.724173	2486.274392
553.082267	2487.443939
553.440305	2484.820019
553.798288	2486.591984
554.156215	2486.239104
554.514086	2484.842704
554.871902	2481.497898
555.229661	2485.682056
555.587365	2480.325830
555.945014	2486.148363
556.302606	2486.312200
556.660143	2486.302118
557.017625	2484.265492
557.375050	2483.698362
557.732421	2485.205667
558.089735	2485.145173
558.446994	2485.855976
558.804197	2484.668784
559.161345	2486.954948
559.518437	2484.991418
559.875474	2485.004021
560.232455	2487.338075
560.589381	2486.264309
560.946251	2486.584423
561.303065	2486.743219
561.659825	2486.236583
562.016528	2485.767756
562.373177	2486.183651
562.729770	2485.548466
563.086307	2486.289515
563.442789	2486.725575
563.799216	2486.642396
564.155587	2487.436378
564.511904	2485.704741
564.868164	2485.210708
565.224370	2486.027375
565.580520	2484.474700
565.936615	2487.544763
566.292654	2486.826398
566.648638	2487.257417
567.004567	2487.340596
567.360441	2485.901346
567.716260	2486.894454
568.072023	2487.673312
568.427732	2488.391676
568.783385	2487.640544
569.138982	2489.775473
569.494525	2485.901346
569.850013	2484.008393
570.205445	2483.196767
570.560823	2485.170379
570.916145	2484.948568
571.271412	2486.334886
571.626625	2490.082983
571.981782	2483.834473
572.336884	2486.097951
572.691931	2482.168372
573.046923	2483.466469
573.401860	2482.617035
573.756743	2485.107365
574.111570	2485.402272
574.466342	2485.545945
574.821059	2485.094762
575.175722	2486.571820
575.530330	2486.231542
575.884882	2485.117447
576.239380	2483.776500
576.593823	2486.458394
576.948211	2485.480410
577.302544	2486.413023
577.656823	2488.200113
578.011047	2485.132570
578.365216	2486.569299
578.719330	2485.563589
579.073389	2482.407827
579.427394	2485.704741
579.781344	2486.125678
580.135239	2487.532160
580.489080	2485.056953
580.842866	2487.713641
581.196597	2487.232211
581.550273	2485.732468
581.903895	2485.470328
582.257463	2487.330513
582.610975	2488.487458
582.964434	2485.858497
583.317837	2486.765904
583.671186	2488.053919
584.024481	2485.997128
584.377721	2487.416213
584.730906	2489.593992
585.084037	2485.581233
585.437113	2486.773466
585.790135	2487.945534
586.143103	2485.278764
586.496016	2488.484938
586.848874	2487.191882
587.201679	2487.146511
587.554428	2487.590133
587.907124	2484.404124
588.259765	2485.256079
588.612352	2488.066522
588.964884	2487.312869
589.317362	2486.307159
589.669786	2484.910760
590.022155	2483.244658
590.374470	2481.318937
590.726731	2483.564772
591.078937	2481.674339
591.431090	2486.337406
591.783188	2486.566779
592.135232	2486.503764
592.487222	2488.129536
592.839157	2486.435709
593.191038	2487.524598
593.542866	2484.774648
593.894639	2488.646255
594.246358	2486.501244
594.598022	2484.610811
594.949633	2482.619555
595.301190	2488.179948
595.652692	2486.392859
596.004141	2487.617859
596.355535	2486.854124
596.706876	2484.310862
597.058162	2488.966368
597.409395	2484.482262
597.760573	2484.890595
598.111698	2487.640544
598.462768	2485.177941
598.813785	2485.745071
599.164748	2484.731799
599.515657	2486.576861
599.866511	2487.814464
600.217312	2483.496716
600.568060	2486.140801
600.918753	2488.346306
601.269392	2484.862869
601.619978	2487.454022
601.970510	2486.932262
602.320988	2485.392190
602.671412	2486.904536
603.021783	2486.201295
603.372100	2486.430668
603.722363	2485.094762
604.072572	2487.189361
604.422728	2486.997797
604.772830	2488.759681
605.122878	2486.607108
605.472872	2485.500575
605.822813	2486.498723
606.172701	2485.369505
606.522534	2485.619042
606.872314	2488.116933
607.222041	2485.724906
607.571714	2486.662561
607.921333	2482.995121
608.270899	2483.421099
608.620411	2481.949082
608.969870	2484.452015
609.319276	2484.746922
609.668627	2486.193733
610.017926	2486.155925
610.367171	2488.646255
610.716362	2484.890595
611.065500	2485.838332
611.414585	2485.354381
611.763616	2485.445122
612.112594	2485.356902
612.461518	2487.774135
612.810389	2486.269351
613.159207	2488.590802
613.507971	2484.792292
613.856682	2485.603918
614.205340	2484.968733
614.553945	2487.728765
614.902496	2485.654330
615.250994	2488.585761
615.599439	2483.988228
615.947830	2487.375884
616.296169	2486.266830
616.644454	2484.462097
616.992686	2488.595843
617.340864	2488.384115
617.688990	2486.347488
618.037063	2486.738178
618.385082	2487.796820
618.733048	2486.332365
619.080961	2484.073928
619.428821	2483.272385
619.776628	2487.423775
620.124382	2485.767756
620.472083	2485.049391
620.819731	2489.203302
621.167326	2485.724906
621.514868	2486.004690
621.862357	2485.871099
622.209793	2484.988898
622.557176	2484.890595
622.904506	2485.155256
623.251783	2485.258599
623.599007	2488.895792
623.946179	2486.967550
624.293297	2488.399238
624.640363	2488.419403
624.987376	2483.257261
625.334336	2483.897488
625.681243	2483.617704
626.028097	2484.494864
626.374899	2486.014772
626.721647	2484.832622
627.068343	2485.820688
627.414987	2484.585605
627.761577	2488.313538
628.108115	2485.190544
628.454600	2488.258086
628.801032	2485.004021
629.147412	2485.800523
629.493739	2487.592653
629.840014	2483.705924
630.186236	2484.628455
630.532405	2487.834629
630.878521	2487.176758
631.224585	2487.408651
631.570597	2486.400421
631.916556	2486.493682
632.262462	2483.632827
632.608316	2486.150883
632.954117	2486.896974
633.299866	2483.995790
633.645562	2486.924701
633.991206	2484.356233
634.336797	2484.240286
634.682336	2486.690287
635.027823	2486.455873
635.373257	2488.361429
635.718639	2485.596357
636.063968	2488.870586
636.409245	2486.758342
636.754470	2484.285657
637.099642	2487.179279
637.444762	2487.151553
637.789829	2486.571820
638.134845	2487.804382
638.479808	2483.879844
638.824719	2485.331696
639.169577	2485.553507
639.514383	2486.022334
639.859137	2481.664257
640.203839	2483.849597
640.548489	2487.028044
640.893086	2485.813126
641.237632	2486.037457
641.582125	2491.091214
641.926566	2485.745071
642.270955	2482.962354
642.615292	2480.774493
642.959576	2480.290542
643.303809	2480.529997
643.647990	2486.337406
643.992118	2486.029896
644.336195	2486.352530
