Dividing Wavelength (nm)	Counts (n)	Blue Motor Position (mm): 45.000000	Red Motor Position (mm): 0.000000	
326.493990	2154.016983
326.888308	2154.016983
327.282561	2154.016983
327.676750	2129.080915
328.070874	2129.459002
328.464933	2134.631226
328.858929	2143.208749
329.252859	2156.003198
329.646726	2167.728921
330.040528	2184.190809
330.434265	2201.575228
330.827938	2223.259752
331.221547	2241.586866
331.615091	2260.264341
332.008571	2282.137908
332.401986	2301.674900
332.795338	2322.915801
333.188625	2341.126970
333.581847	2361.704960
333.975006	2380.581560
334.368100	2399.347255
334.761129	2417.165214
335.154095	2433.445620
335.546996	2457.035699
335.939833	2489.223467
336.332606	2504.044459
336.725315	2514.966119
337.117960	2522.086749
337.510540	2530.132430
337.903056	2539.690458
338.295508	2546.526262
338.687896	2552.696635
339.080220	2563.406566
339.472480	2565.803635
339.864676	2571.419480
340.256807	2575.520459
340.648875	2574.887794
341.040879	2575.840572
341.432818	2578.903073
341.824694	2580.654874
342.216506	2578.156982
342.608253	2578.414081
342.999937	2579.024061
343.391557	2576.768144
343.783113	2577.539441
344.174605	2573.924934
344.566033	2572.465520
344.957397	2574.015674
345.348697	2570.970817
345.739934	2568.684654
346.131106	2566.370765
346.522215	2563.207441
346.913260	2563.719118
347.304241	2560.966648
347.695159	2561.775753
348.086012	2558.123437
348.476802	2555.098745
348.867528	2555.018086
349.258191	2551.353167
349.648789	2555.209650
350.039324	2550.657488
350.429796	2552.578168
350.820203	2550.639844
351.210548	2548.615821
351.600828	2546.929555
351.991045	2550.367622
352.381198	2545.815460
352.771288	2547.166489
353.161314	2549.621531
353.551276	2547.194215
353.941175	2547.436191
354.331010	2546.211190
354.720782	2548.457024
355.110490	2545.011396
355.500135	2549.447611
355.889717	2547.703372
356.279235	2548.323434
356.668689	2549.180430
357.058080	2549.543393
357.447408	2547.922662
357.836672	2543.836807
358.225873	2546.508618
358.615010	2546.836293
359.004084	2553.752757
359.393095	2553.084804
359.782043	2550.954916
360.170927	2553.906512
360.559748	2551.736295
360.948505	2554.279557
361.337199	2555.365926
361.725830	2555.532284
362.114398	2555.968344
362.502903	2554.884496
362.891344	2556.719476
363.279722	2558.246945
363.668037	2556.384239
364.056289	2556.328786
364.444478	2558.458674
364.832603	2559.025803
365.220665	2555.779300
365.608665	2559.882800
365.996601	2557.581513
366.384474	2560.250804
366.772284	2559.358520
367.160031	2561.558983
367.547715	2561.344734
367.935336	2560.636452
368.322893	2561.737944
368.710388	2561.806000
369.097820	2563.706515
369.485189	2562.400856
369.872495	2564.825651
370.259738	2561.314487
370.646918	2562.932698
371.034035	2562.113510
371.421090	2566.539643
371.808081	2565.357493
372.195010	2562.461350
372.581875	2562.496638
372.968678	2563.940928
373.355418	2564.218192
373.742096	2568.362020
374.128710	2565.854046
374.515262	2567.683985
374.901751	2569.284552
375.288177	2568.230950
375.674540	2569.783626
376.060841	2566.975703
376.447079	2568.999726
376.833254	2568.903944
377.219367	2567.008471
377.605417	2568.533420
377.991404	2564.129972
378.377329	2567.333625
378.763191	2565.360013
379.148991	2572.372258
379.534727	2572.294120
379.920402	2572.578946
380.306013	2573.665314
380.691563	2574.749162
381.077049	2576.014492
381.462474	2575.822928
381.847835	2577.862075
382.233134	2579.172775
382.618371	2583.291397
383.003545	2582.802406
383.388657	2586.379104
383.773706	2586.875658
384.158693	2588.705597
384.543618	2592.186513
384.928480	2595.183479
385.313280	2599.564242
385.698017	2601.757144
386.082692	2605.588421
386.467305	2609.916252
386.851856	2615.756428
387.236344	2620.081738
387.620770	2625.135495
388.005133	2630.519447
388.389435	2637.461116
388.773674	2641.052938
389.157851	2646.449493
389.541965	2654.739671
389.926018	2658.845691
390.310008	2669.298523
390.693936	2676.734225
391.077802	2682.894515
391.461606	2692.308870
391.845348	2699.489994
392.229027	2710.240254
392.612645	2721.577809
392.996200	2731.660117
393.379694	2743.300141
393.763125	2757.395207
394.146494	2767.172525
394.529801	2779.107457
394.913047	2795.992802
395.296230	2803.693164
395.679351	2811.093578
396.062410	2830.381033
396.445408	2833.851867
396.828343	2848.335102
397.211217	2858.634179
397.594028	2860.300281
397.976778	2878.566902
398.359466	2893.705487
398.742092	2896.916702
399.124656	2917.638365
399.507158	2928.665889
399.889598	2939.373299
400.271977	2959.046402
400.654294	2971.026704
401.036549	2986.334168
401.418742	2999.473936
401.800874	3023.593336
402.182944	3035.026673
402.564952	3065.013977
402.946898	3061.417113
403.328783	3073.412539
403.710606	3090.582709
404.092367	3116.738736
404.474067	3146.146307
404.855705	3138.851757
405.237282	3145.601862
405.618797	3176.993127
406.000250	3200.177394
406.381642	3233.748958
406.762972	3240.645256
407.144240	3234.563104
407.525447	3257.444901
407.906593	3263.002773
408.287677	3283.026237
408.668700	3303.125317
409.049661	3303.952066
409.430560	3321.432267
409.811399	3325.596260
410.192176	3346.224662
410.572891	3355.820498
410.953545	3392.903226
411.334138	3364.697970
411.714669	3415.364087
412.095139	3360.483565
412.475547	3414.978438
412.855894	3404.986872
413.236180	3436.242025
413.616405	3417.950199
413.996568	3442.619085
414.376670	3441.449537
414.756711	3440.816873
415.136691	3468.069350
415.516609	3488.680108
415.896466	3497.378619
416.276262	3520.424253
416.655997	3549.166392
417.035670	3557.413720
417.415283	3625.668422
417.794834	3645.941422
418.174324	3629.199751
418.553753	3630.369298
418.933121	3674.514682
419.312428	3666.428672
419.691674	3660.737209
420.070859	3697.260369
420.449983	3678.177081
420.829045	3729.531315
421.208047	3713.447514
421.586988	3759.264040
421.965867	3790.446098
422.344686	3799.074032
422.723444	3835.889579
423.102141	3743.918768
423.480777	3844.996423
423.859352	3812.841423
424.237866	3911.108635
424.616319	3895.402921
424.994712	3954.026499
425.373044	3943.377061
425.751314	4006.043645
426.129524	3942.187349
426.507673	4040.772153
426.885762	4021.663660
427.263789	4040.918347
427.641756	4044.250550
428.019662	4078.580807
428.397508	4077.033173
428.775292	4117.627064
429.153016	4123.353815
429.530679	4137.804283
429.908282	4143.097494
430.285824	4121.433136
430.663305	4190.048281
431.040726	4152.882374
431.418086	4143.462978
431.795385	4219.599524
432.172624	4252.586315
432.549802	4218.709761
432.926920	4237.820775
433.303977	4233.321545
433.680974	4273.502062
434.057910	4294.939569
434.434786	4303.504489
434.811601	4297.437460
435.188355	4403.475611
435.565050	4371.234912
435.941683	4367.680898
436.318257	4459.361843
436.694770	4463.503150
437.071222	4521.100854
437.447614	4454.512252
437.823946	4459.192964
438.200218	4476.022856
438.576429	4458.391420
438.952580	4479.591993
439.328670	4491.083303
439.704700	4535.611815
440.080670	4494.097913
440.456580	4556.986307
440.832429	4591.293880
441.208218	4495.688397
441.583947	4546.921644
441.959616	4558.594435
442.335224	4589.675669
442.710773	4611.042600
443.086261	4666.943955
443.461689	4613.527889
443.837057	4627.756546
444.212365	4705.312177
444.587612	4705.413000
444.962800	4673.699101
445.337927	4713.430955
445.712995	4605.537660
446.088002	4795.231238
446.462949	4816.646060
446.837837	4839.979040
447.212664	4824.033871
447.587431	5048.768509
447.962139	5349.536350
448.336786	5689.620151
448.711374	5667.179454
449.085901	5311.634435
449.460369	5254.629068
449.834776	5191.317216
450.209124	5423.336322
450.583412	5432.836377
450.957640	5560.485954
451.331808	5416.603861
451.705917	5270.286891
452.079965	5260.280201
452.453954	5297.708248
452.827883	5268.378815
453.201752	5268.250265
453.575562	5302.827539
453.949311	5435.987098
454.323001	5436.803765
454.696632	5433.862251
455.070202	5587.133493
455.443713	5614.804386
455.817164	5712.174273
456.190556	5783.279748
456.563888	5756.614565
456.937160	5827.939330
457.310373	5674.002656
457.683526	5734.700669
458.056619	5724.832610
458.429653	5707.538932
458.802628	5753.108442
459.175542	5788.842661
459.548398	5927.169402
459.921194	6109.608760
460.293930	6177.440005
460.666607	6432.532472
461.039224	6644.298743
461.411782	6767.935561
461.784280	6675.604308
462.156719	6685.336255
462.529099	6646.234546
462.901419	6511.547518
463.273680	6378.892075
463.645882	6364.071082
464.018024	6368.822370
464.390106	6438.738133
464.762130	6699.953081
465.134094	7090.287103
465.505999	7727.125986
465.877845	8436.567567
466.249631	8781.891646
466.621358	8704.845171
466.993026	8504.590376
467.364634	8290.916029
467.736184	8004.996906
468.107674	7852.872527
468.479105	7772.319930
468.850477	7703.576236
469.221790	7527.657610
469.593043	7306.350957
469.964238	7207.284722
470.335373	7183.863521
470.706449	7340.058632
471.077467	7541.341823
471.448425	8198.925054
471.819324	8776.926110
472.190164	8804.909555
472.560945	8319.287643
472.931667	7850.684667
473.302330	7662.715163
473.672934	7536.464506
474.043479	7621.057588
474.413965	7517.323245
474.784393	7473.850855
475.154761	7627.016232
475.525070	7640.551730
475.895321	7586.840757
476.265513	7690.544853
476.635645	7853.021241
477.005719	7840.546906
477.375734	7929.795494
477.745691	8043.453348
478.115588	8245.220490
478.485427	8482.116912
478.855207	8959.660375
479.224928	9397.154391
479.594591	9776.632288
479.964194	9784.393144
480.333739	9869.543274
480.703226	9864.565134
481.072653	9965.060536
481.442022	10085.201315
481.811333	10236.796372
482.180584	10069.833357
482.549777	10016.777733
482.918912	9949.516138
483.287988	9936.683881
483.657005	9844.468574
484.025964	9757.528835
484.394864	9826.887550
484.763706	9784.985480
485.132489	9696.971975
485.501213	9684.734574
485.869879	9754.620089
486.238487	9680.023615
486.607036	9761.546635
486.975527	9708.049910
487.343959	9766.494527
487.712333	9805.167739
488.080648	9845.121404
488.448905	9948.845665
488.817104	9964.531215
489.185244	10125.770000
489.553326	10341.233957
489.921350	10816.730711
490.289315	11449.430807
490.657222	11738.689694
491.025070	11914.731827
491.392861	11821.483084
491.760593	11659.329329
492.128267	11409.209961
492.495883	11166.695173
492.863440	10935.913670
493.230939	10706.989833
493.598380	10521.586277
493.965763	10509.512713
494.333088	10370.278565
494.700354	10302.313728
495.067563	10280.218351
495.434713	10283.011150
495.801805	10325.543365
496.168839	10281.859247
496.535815	10249.162323
496.902733	10292.027254
497.269593	10254.032077
497.636395	10254.442932
498.003139	10374.868535
498.369825	10303.463112
498.736453	10398.370394
499.103023	10333.062246
499.469535	10334.002422
499.835989	10394.907122
500.202385	10366.427123
500.568723	10386.357325
500.935003	10447.554412
501.301226	10416.311861
501.667390	10580.542571
502.033497	10677.864567
502.399546	10604.367064
502.765537	10517.845741
503.131470	10617.010278
503.497345	10709.023938
503.863163	10482.862653
504.228923	10616.047418
504.594625	10734.328010
504.960269	10640.612960
505.325856	10791.436722
505.691385	10678.623260
506.056856	10743.197920
506.422270	10842.702736
506.787625	10773.860739
507.152924	10832.643113
507.518164	10890.450024
507.883347	10755.800805
508.248472	10829.111785
508.613540	10940.682602
508.978550	11010.825216
509.343503	10989.233954
509.708398	11047.003057
510.073236	11181.496000
510.438016	11190.807012
510.802738	11103.297622
511.167403	11238.488765
511.532010	11290.765531
511.896561	11387.888401
512.261053	11583.230592
512.625488	11502.070535
512.989866	11493.450162
513.354186	11460.838938
513.718449	11472.889816
514.082655	11617.230654
514.446803	11576.402349
514.810894	11682.657269
515.174927	11677.737103
515.538904	11663.004331
515.902822	11818.917137
516.266684	11692.706809
516.630488	11795.122891
516.994235	11782.227619
517.357925	11903.474931
517.721558	11949.694750
518.085133	12023.618230
518.448651	12055.397664
518.812112	12017.929288
519.175516	12026.995803
519.538863	12115.422682
519.902152	12121.149433
520.265385	12224.578787
520.628560	12248.173907
520.991678	12194.682224
521.354739	12251.886717
521.717743	12322.160402
522.080690	12292.233592
522.443580	12424.044642
522.806413	12439.526025
523.169189	12437.295314
523.531908	12508.065553
523.894569	12460.661063
524.257174	12480.881131
524.619722	12582.604053
524.982213	12557.478943
525.344647	12551.931153
525.707025	12564.733163
526.069345	12664.855520
526.431608	12644.229639
526.793815	12726.793656
527.155964	12622.847585
527.518057	12641.600677
527.880093	12602.725819
528.242072	12716.870145
528.603995	12646.961944
528.965860	12658.581804
529.327669	12691.734952
529.689421	12641.658650
530.051117	12658.856547
530.412755	12695.891383
530.774337	12696.692927
531.135862	12649.149805
531.497331	12716.930639
531.858743	12666.264522
532.220098	12759.775405
532.581396	12686.154395
532.942638	12604.182712
533.303824	12671.550172
533.664953	12650.221050
534.026025	12602.682969
534.387040	12708.784134
534.747999	12675.031089
535.108902	12730.728277
535.469748	12606.335285
535.830537	12623.447482
536.191270	12679.137108
536.551947	12610.186727
536.912567	12659.224551
537.273131	12706.485368
537.633638	12570.711972
537.994089	12636.320068
538.354483	12561.353069
538.714821	12682.902850
539.075103	12755.321546
539.435328	12690.179756
539.795497	12675.260461
540.155609	12667.973473
540.515665	12767.382507
540.875665	12629.123821
541.235609	12715.216647
541.595496	12684.450485
541.955328	12859.890200
542.315102	12712.776728
542.674821	12650.727686
543.034483	12661.654387
543.394090	12659.675734
543.753640	12629.711116
544.113134	12880.213612
544.472571	12633.701189
544.831953	12919.630394
545.191278	12740.049370
545.550548	12669.909276
545.909761	12793.346969
546.268918	12825.817041
546.628019	12900.050552
546.987064	12782.430351
547.346053	12635.994914
547.704986	12830.533041
548.063863	12705.855224
548.422684	12754.751896
548.781449	12711.541645
549.140158	12814.252634
549.498811	12764.569543
549.857408	12630.053914
550.215949	12836.930265
550.574434	12799.683700
550.932864	12749.206626
551.291237	12951.598871
551.649555	12840.509484
552.007817	12893.018143
552.366022	12818.542656
552.724173	12866.292466
553.082267	12951.787914
553.440305	13034.324206
553.798288	12863.474461
554.156215	12926.211620
554.514086	12978.357316
554.871902	12927.265221
555.229661	12942.560082
555.587365	12901.351170
555.945014	12919.307760
556.302606	12892.531671
556.660143	12947.200464
557.017625	12985.964417
557.375050	12951.341772
557.732421	13051.751474
558.089735	13052.583265
558.446994	13025.673586
558.804197	13143.820588
559.161345	13123.930715
559.518437	12944.500926
559.875474	13041.613714
560.232455	13052.343810
560.589381	13101.432046
560.946251	13039.055328
561.303065	13219.942011
561.659825	13164.867405
562.016528	13085.002925
562.373177	13020.201413
562.729770	13158.636539
563.086307	13046.193602
563.442789	13144.417964
563.799216	13184.555631
564.155587	13127.794760
564.511904	13148.009787
564.868164	13157.051096
565.224370	13228.940470
565.580520	13177.215711
565.936615	13227.135737
566.292654	13163.556705
566.648638	13241.349271
567.004567	13246.241710
567.360441	13251.166918
567.716260	13215.835991
568.072023	13290.132516
568.427732	13277.244807
568.783385	13173.843179
569.138982	13290.775263
569.494525	13284.143626
569.850013	13232.597828
570.205445	13229.021129
570.560823	13242.390269
570.916145	13190.105942
571.271412	13196.341849
571.626625	13166.508301
571.981782	13163.854133
572.336884	13110.652316
572.691931	13191.736755
573.046923	13083.598964
573.401860	13067.963825
573.756743	13064.606417
574.111570	13084.208943
574.466342	13061.584245
574.821059	13114.350002
575.175722	12980.396462
575.530330	13001.655008
575.884882	12939.973970
576.239380	12931.588011
576.593823	12916.076380
576.948211	12918.906988
577.302544	12789.011577
577.656823	12806.033033
578.011047	12873.715565
578.365216	12809.433291
578.719330	12749.919950
579.073389	12723.950446
579.427394	12738.721026
579.781344	12723.678223
580.135239	12660.918378
580.489080	12674.370697
580.842866	12543.121737
581.196597	12650.649548
581.550273	12635.669759
581.903895	12597.762803
582.257463	12709.956202
582.610975	12551.442161
582.964434	12611.131943
583.317837	12538.216694
583.671186	12497.395951
584.024481	12552.538612
584.377721	12438.890840
584.730906	12516.005370
585.084037	12526.483408
585.437113	12445.454422
585.790135	12463.842031
586.143103	12382.878579
586.496016	12386.992161
586.848874	12407.365984
587.201679	12408.638875
587.554428	12280.908640
587.907124	12326.430259
588.259765	12266.281732
588.612352	12330.402688
588.964884	12195.690455
589.317362	12242.810120
589.669786	12235.510529
590.022155	12193.726925
590.374470	12298.313223
590.726731	12178.424503
591.078937	12074.206209
591.431090	12086.483939
591.783188	12016.356448
592.135232	11941.213008
592.487222	12005.339006
592.839157	12010.944769
593.191038	11942.281733
593.542866	11898.108623
593.894639	11743.032648
594.246358	11811.352885
594.598022	11810.228708
594.949633	11717.622712
595.301190	11706.181813
595.652692	11665.522387
596.004141	11752.310892
596.355535	11537.754343
596.706876	11509.849036
597.058162	11478.233439
597.409395	11569.677449
597.760573	11602.954106
598.111698	11498.362767
598.462768	11493.281283
598.813785	11506.610094
599.164748	11386.156764
599.515657	11462.988990
599.866511	11336.524084
600.217312	11465.381017
600.568060	11230.705224
600.918753	11392.337219
601.269392	11389.483926
601.619978	11297.976901
601.970510	11332.614669
602.320988	11370.607325
602.671412	11448.548605
603.021783	11371.751667
603.372100	11296.661160
603.722363	11311.376288
604.072572	11310.254631
604.422728	11319.928606
604.772830	11268.097982
605.122878	11278.863366
605.472872	11251.507545
605.822813	11303.375977
606.172701	11271.407500
606.522534	11309.599281
606.872314	11353.792557
607.222041	11289.795108
607.571714	11370.975329
607.921333	11245.354817
608.270899	11293.684359
608.620411	11351.662669
608.969870	11302.420678
609.319276	11290.447938
609.668627	11300.663836
610.017926	11383.406815
610.367171	11395.772765
610.716362	11391.739842
611.065500	11371.933149
611.414585	11380.699715
611.763616	11443.792276
612.112594	11412.711042
612.461518	11432.142170
612.810389	11485.719553
613.159207	11423.236971
613.507971	11420.169429
613.856682	11526.255471
614.205340	11477.192441
614.553945	11621.452620
614.902496	11495.461582
615.250994	11557.520707
615.599439	11547.042669
615.947830	11583.883421
616.296169	11547.650128
616.644454	11567.960937
616.992686	11578.426372
617.340864	11667.586739
617.688990	11558.070193
618.037063	11695.935668
618.385082	11664.269660
618.733048	11705.786083
619.080961	11688.061386
619.428821	11677.220384
619.776628	11674.541011
620.124382	11622.150820
620.472083	11639.504992
620.819731	11668.088334
621.167326	11594.618558
621.514868	11572.175341
621.862357	11474.865948
622.209793	11463.291459
622.557176	11385.554346
622.904506	11326.855151
623.251783	11247.492266
623.599007	11176.500217
623.946179	11129.335182
624.293297	11114.345311
624.640363	10978.329939
624.987376	10960.968205
625.334336	10894.316589
625.681243	10821.240023
626.028097	10790.085692
626.374899	10753.491957
626.721647	10717.150278
627.068343	10683.334218
627.414987	10622.321133
627.761577	10552.917048
628.108115	10605.879410
628.454600	10476.717487
628.801032	10492.307255
629.147412	10470.804213
629.493739	10438.646693
629.840014	10366.764880
630.186236	10416.009392
630.532405	10314.006685
630.878521	10347.343835
631.224585	10298.837853
631.570597	10222.408919
631.916556	10231.727492
632.262462	10216.077230
632.608316	10196.814981
632.954117	10172.985447
633.299866	10155.280915
633.645562	10129.041709
633.991206	10030.207367
634.336797	9924.080997
634.682336	9924.680894
635.027823	9869.056802
635.373257	9827.510133
635.718639	9757.740564
636.063968	9725.998938
636.409245	9611.237071
636.754470	9598.233415
637.099642	9552.714316
637.444762	9446.918141
637.789829	9447.578532
638.134845	9370.524496
638.479808	9360.684163
