Dividing Wavelength (nm)	Counts (n)	Blue Motor Position (mm): 14.100000	Red Motor Position (mm): 0.000000	
326.493990	2170.912410
326.888308	2170.912410
327.282561	2170.912410
327.676750	2131.087295
328.070874	2123.860801
328.464933	2126.421707
328.858929	2133.270114
329.252859	2133.416308
329.646726	2143.811167
330.040528	2155.899854
330.434265	2167.068530
330.827938	2190.348579
331.221547	2205.850127
331.615091	2221.656665
332.008571	2240.669376
332.401986	2258.452047
332.795338	2277.316044
333.188625	2295.295319
333.581847	2315.132260
333.975006	2332.804025
334.368100	2351.294977
334.761129	2366.950280
335.154095	2384.657333
335.546996	2409.333781
335.939833	2433.158274
336.332606	2449.809205
336.725315	2462.195320
337.117960	2475.055304
337.510540	2485.661892
337.903056	2495.872749
338.295508	2504.815756
338.687896	2512.047291
339.080220	2522.313601
339.472480	2528.065557
339.864676	2535.662576
340.256807	2540.739018
340.648875	2542.662218
341.040879	2542.412681
341.432818	2549.503064
341.824694	2552.421892
342.216506	2552.994063
342.608253	2554.095555
342.999937	2552.878116
343.391557	2553.389793
343.783113	2553.767880
344.174605	2550.949875
344.566033	2551.844680
344.957397	2551.302756
345.348697	2550.294525
345.739934	2548.046170
346.131106	2544.764379
346.522215	2543.693134
346.913260	2543.602393
347.304241	2538.392361
347.695159	2538.377237
348.086012	2535.050076
348.476802	2534.624098
348.867528	2529.580424
349.258191	2528.373067
349.648789	2526.928777
350.039324	2522.132119
350.429796	2525.542460
350.820203	2526.369209
351.210548	2522.749660
351.600828	2522.374094
351.991045	2522.268230
352.381198	2523.344517
352.771288	2521.345699
353.161314	2521.038189
353.551276	2518.706655
353.941175	2520.894516
354.331010	2518.719258
354.720782	2517.012827
355.110490	2519.455266
355.500135	2517.590039
355.889717	2519.508198
356.279235	2517.247241
356.668689	2519.127591
357.058080	2518.628517
357.447408	2519.523322
357.836672	2519.782941
358.225873	2519.682118
358.615010	2520.271933
359.004084	2519.470390
359.393095	2518.585667
359.782043	2522.348889
360.170927	2522.232942
360.559748	2522.248066
360.948505	2522.033817
361.337199	2523.752850
361.725830	2524.367871
362.114398	2525.613036
362.502903	2525.035824
362.891344	2525.169414
363.279722	2527.160670
363.668037	2524.365350
364.056289	2522.981553
364.444478	2527.866432
364.832603	2524.614887
365.220665	2528.637728
365.608665	2529.935825
365.996601	2528.473891
366.384474	2529.862728
366.772284	2530.281144
367.160031	2530.419776
367.547715	2531.329704
367.935336	2528.851977
368.322893	2529.751823
368.710388	2527.876514
369.097820	2527.521113
369.485189	2529.371216
369.872495	2530.631504
370.259738	2532.804242
370.646918	2531.924560
371.034035	2528.549508
371.421090	2535.549150
371.808081	2535.065199
372.195010	2534.404808
372.581875	2535.377751
372.968678	2535.539068
373.355418	2536.726259
373.742096	2534.596372
374.128710	2535.223996
374.515262	2534.140147
374.901751	2533.199972
375.288177	2536.524613
375.674540	2534.697195
376.060841	2537.101825
376.447079	2534.719880
376.833254	2537.452186
377.219367	2537.802546
377.605417	2539.713143
377.991404	2534.926567
378.377329	2537.981507
378.763191	2539.844213
379.148991	2536.907741
379.534727	2537.152237
379.920402	2538.636857
380.306013	2537.303472
380.691563	2538.828421
381.077049	2537.454706
381.462474	2538.054603
381.847835	2538.304141
382.233134	2539.340098
382.618371	2536.983358
383.003545	2537.666435
383.388657	2541.265818
383.773706	2538.896476
384.158693	2542.372352
384.543618	2539.738349
384.928480	2537.762217
385.313280	2541.056611
385.698017	2541.684234
386.082692	2543.622558
386.467305	2541.689275
386.851856	2541.369162
387.236344	2541.754810
387.620770	2538.256250
388.005133	2540.275232
388.389435	2540.118956
388.773674	2537.724408
389.157851	2544.015768
389.541965	2542.800850
389.926018	2541.659028
390.310008	2543.423432
390.693936	2545.056766
391.077802	2542.942002
391.461606	2542.609286
391.845348	2544.860161
392.229027	2545.644061
392.612645	2544.000644
392.996200	2544.845038
393.379694	2547.642878
393.763125	2546.765717
394.146494	2543.766231
394.529801	2546.117929
394.913047	2546.591797
395.296230	2546.531304
395.679351	2546.828732
396.062410	2549.951727
396.445408	2546.216232
396.828343	2550.004659
397.211217	2547.968032
397.594028	2547.400903
397.976778	2546.478372
398.359466	2549.848383
398.742092	2545.931406
399.124656	2549.833259
399.507158	2548.774617
399.889598	2549.424926
400.271977	2548.565409
400.654294	2550.128167
401.036549	2549.442570
401.418742	2549.755122
401.800874	2550.241593
402.182944	2549.193033
402.564952	2550.813764
402.946898	2549.172868
403.328783	2552.242931
403.710606	2551.264947
404.092367	2552.437015
404.474067	2550.801161
404.855705	2552.827705
405.237282	2553.420040
405.618797	2552.570606
406.000250	2551.912735
406.381642	2551.557334
406.762972	2550.844011
407.144240	2547.771428
407.525447	2548.451983
407.906593	2546.906870
408.287677	2552.275698
408.668700	2553.846018
409.049661	2553.246121
409.430560	2555.423899
409.811399	2552.462221
410.192176	2551.829556
410.572891	2553.830894
410.953545	2552.275698
411.334138	2552.084135
411.714669	2553.334341
412.095139	2553.528425
412.475547	2553.125133
412.855894	2556.142263
413.236180	2551.055739
413.616405	2554.241748
413.996568	2554.327448
414.376670	2554.672767
414.756711	2554.481203
415.136691	2553.805689
415.516609	2553.301573
415.896466	2554.468600
416.276262	2554.932387
416.655997	2554.461039
417.035670	2558.259548
417.415283	2557.798283
417.794834	2557.526060
418.174324	2554.582026
418.553753	2554.730740
418.933121	2558.768705
419.312428	2555.557490
419.691674	2554.859290
420.070859	2558.947666
420.449983	2557.757953
420.829045	2555.625545
421.208047	2558.088149
421.586988	2558.504044
421.965867	2557.828529
422.344686	2557.528581
422.723444	2558.246945
423.102141	2558.025134
423.480777	2557.959599
423.859352	2556.772408
424.237866	2558.372974
424.616319	2559.466904
424.994712	2558.914898
425.373044	2559.892882
425.751314	2556.810216
426.129524	2554.720658
426.507673	2552.505071
426.885762	2555.262582
427.263789	2561.201061
427.641756	2560.112172
428.019662	2558.408262
428.397508	2557.863818
428.775292	2561.180897
429.153016	2560.371792
429.530679	2561.634601
429.908282	2559.923129
430.285824	2560.155022
430.663305	2560.523026
431.040726	2559.761812
431.418086	2559.650907
431.795385	2558.302398
432.172624	2559.441699
432.549802	2562.398335
432.926920	2562.574776
433.303977	2562.489076
433.680974	2560.530588
434.057910	2559.600495
434.434786	2559.151832
434.811601	2560.202913
435.188355	2560.548232
435.565050	2561.558983
435.941683	2558.703170
436.318257	2561.652245
436.694770	2561.193500
437.071222	2562.710887
437.447614	2562.047975
437.823946	2562.786504
438.200218	2562.254663
438.576429	2561.072512
438.952580	2562.002605
439.328670	2561.889179
439.704700	2561.218705
440.080670	2561.105279
440.456580	2563.187276
440.832429	2562.574776
441.208218	2563.777091
441.583947	2562.738613
441.959616	2564.019066
442.335224	2563.310784
442.710773	2564.601320
443.086261	2561.107800
443.461689	2564.107287
443.837057	2564.492935
444.212365	2563.494786
444.587612	2564.535785
444.962800	2558.977912
445.337927	2562.463870
445.712995	2559.562686
446.088002	2562.206772
446.462949	2565.213820
446.837837	2565.894376
447.212664	2564.916392
447.587431	2566.438820
447.962139	2565.584345
448.336786	2566.274983
448.711374	2564.744993
449.085901	2564.440003
449.460369	2563.532595
449.834776	2567.878070
450.209124	2565.828841
450.583412	2566.211968
450.957640	2565.959911
451.331808	2567.774726
451.705917	2565.191135
452.079965	2567.109294
452.453954	2562.093346
452.827883	2566.143913
453.201752	2566.123748
453.575562	2567.588203
453.949311	2565.193655
454.323001	2567.074006
454.696632	2567.396639
455.070202	2569.017370
455.443713	2570.184397
455.817164	2566.637946
456.190556	2568.253636
456.563888	2570.244891
456.937160	2567.232802
457.310373	2567.550395
457.683526	2566.159036
458.056619	2566.413614
458.429653	2568.364541
458.802628	2566.015363
459.175542	2570.265056
459.548398	2571.956363
459.921194	2568.626681
460.293930	2571.250602
460.666607	2568.770354
461.039224	2571.734552
461.411782	2569.619788
461.784280	2570.317988
462.156719	2570.960735
462.529099	2572.110118
462.901419	2569.682803
463.273680	2567.976372
463.645882	2569.617268
464.018024	2570.451579
464.390106	2567.956208
464.762130	2570.882597
465.134094	2571.411918
465.505999	2571.227916
465.877845	2575.230593
466.249631	2574.348391
466.621358	2571.782443
466.993026	2574.383679
467.364634	2578.449369
467.736184	2578.320820
468.107674	2575.354101
468.479105	2574.630695
468.850477	2575.066755
469.221790	2576.102712
469.593043	2573.214131
469.964238	2574.149265
470.335373	2573.501477
470.706449	2575.454924
471.077467	2575.565829
471.448425	2574.224882
471.819324	2580.155800
472.190164	2578.764441
472.560945	2578.121694
472.931667	2574.895356
473.302330	2574.560119
473.672934	2577.047928
474.043479	2576.702609
474.413965	2574.363514
474.784393	2576.574060
475.154761	2577.799060
475.525070	2576.203535
475.895321	2575.797722
476.265513	2575.074317
476.635645	2578.744277
477.005719	2575.704461
477.375734	2576.667321
477.745691	2577.058011
478.115588	2581.831983
478.485427	2578.318299
478.855207	2580.624627
479.224928	2580.712847
479.594591	2579.621438
479.964194	2581.345512
480.333739	2581.839545
480.703226	2579.689493
481.072653	2585.227201
481.442022	2582.079000
481.811333	2578.524987
482.180584	2580.629668
482.549777	2579.593711
482.918912	2578.903073
483.287988	2582.101685
483.657005	2582.416757
484.025964	2585.421285
484.394864	2584.143352
484.763706	2583.727457
485.132489	2581.738722
485.501213	2582.789803
485.869879	2582.353743
486.238487	2584.975143
486.607036	2581.960533
486.975527	2583.079669
487.343959	2583.858527
487.712333	2583.906418
488.080648	2582.295770
488.448905	2585.519587
488.817104	2585.086048
489.185244	2586.540421
489.553326	2585.726275
489.921350	2587.059660
490.289315	2587.155442
490.657222	2588.148549
491.025070	2590.235587
491.392861	2589.963365
491.760593	2589.887747
492.128267	2586.666450
492.495883	2588.259455
492.863440	2588.108220
493.230939	2585.932962
493.598380	2588.655185
493.965763	2587.959506
494.333088	2585.043198
494.700354	2586.537901
495.067563	2585.133939
495.434713	2585.464135
495.801805	2584.418095
496.168839	2585.000349
496.535815	2586.225349
496.902733	2587.165524
497.269593	2586.419433
497.636395	2586.807602
498.003139	2588.766091
498.369825	2586.752150
498.736453	2587.672160
499.103023	2586.177458
499.469535	2588.793817
499.835989	2588.516553
500.202385	2584.513877
500.568723	2583.626634
500.935003	2585.254927
501.301226	2582.963722
501.667390	2587.031934
502.033497	2591.029569
502.399546	2592.672985
502.765537	2589.827253
503.131470	2589.844897
503.497345	2591.720207
503.863163	2591.916812
504.228923	2590.475042
504.594625	2591.253900
504.960269	2591.707604
505.325856	2591.165680
505.691385	2591.957141
506.056856	2591.710124
506.422270	2594.208016
506.787625	2591.266503
507.152924	2593.837491
507.518164	2592.367995
507.883347	2592.960331
508.248472	2593.179621
508.613540	2595.997626
508.978550	2597.978799
509.343503	2595.828747
509.708398	2597.830085
510.073236	2598.157760
510.438016	2599.954932
510.802738	2600.406115
511.167403	2598.976948
511.532010	2602.525920
511.896561	2604.307968
512.261053	2603.902155
512.625488	2603.244284
512.989866	2603.128338
513.354186	2606.538678
513.718449	2603.193873
514.082655	2607.433483
514.446803	2606.631940
514.810894	2607.693103
515.174927	2607.632609
515.538904	2606.236209
515.902822	2610.990017
516.266684	2610.619492
516.630488	2611.393310
516.994235	2612.308279
517.357925	2613.548403
517.721558	2614.077724
518.085133	2613.261057
518.448651	2613.563526
518.812112	2610.591766
519.175516	2612.928341
519.538863	2613.308948
519.902152	2620.028806
520.265385	2621.621811
520.628560	2623.731534
520.991678	2619.454115
521.354739	2622.383025
521.717743	2620.089300
522.080690	2625.009466
522.443580	2627.129271
522.806413	2627.940897
523.169189	2626.050464
523.531908	2631.187400
523.894569	2628.230763
524.257174	2631.993985
524.619722	2631.099180
524.982213	2633.622277
525.344647	2632.843419
525.707025	2634.766619
526.069345	2638.121507
526.431608	2636.614202
526.793815	2637.060344
527.155964	2640.687455
527.518057	2640.246354
527.880093	2636.830972
528.242072	2643.855820
528.603995	2644.188536
528.965860	2644.226345
529.327669	2644.629637
529.689421	2646.941006
530.051117	2647.064514
530.412755	2649.481747
530.774337	2648.881850
531.135862	2649.451501
531.497331	2653.456697
531.858743	2650.278250
532.220098	2653.315545
532.581396	2656.231852
532.942638	2656.912408
533.303824	2659.352327
533.664953	2659.185969
534.026025	2660.421051
534.387040	2666.220899
534.747999	2663.947338
535.108902	2668.701147
535.469748	2662.664365
535.830537	2668.375992
536.191270	2674.420336
536.551947	2668.222237
536.912567	2671.030160
537.273131	2674.415294
537.633638	2674.211128
537.994089	2679.262364
538.354483	2682.773527
538.714821	2685.452901
539.075103	2685.556244
539.435328	2687.325689
539.795497	2687.081193
540.155609	2690.254600
540.515665	2694.277441
540.875665	2693.619570
541.235609	2696.177956
541.595496	2700.934284
541.955328	2703.127186
542.315102	2710.646067
542.674821	2706.456868
543.034483	2709.905017
543.394090	2713.055739
543.753640	2716.145966
544.113134	2724.055536
544.472571	2724.146277
544.831953	2732.776732
545.191278	2728.085939
545.550548	2732.945611
545.909761	2734.251270
546.268918	2743.794174
546.628019	2748.447159
546.987064	2750.929927
547.346053	2752.656523
547.704986	2755.000659
548.063863	2761.730600
548.422684	2762.663213
548.781449	2769.337701
549.140158	2775.850872
549.498811	2777.829524
549.857408	2781.149124
550.215949	2790.843263
550.574434	2793.220167
550.932864	2803.408339
551.291237	2807.060655
551.649555	2816.447283
552.007817	2820.545742
552.366022	2823.726710
552.724173	2827.920950
553.082267	2836.916889
553.440305	2852.146214
553.798288	2851.783251
554.156215	2865.734645
554.514086	2875.574977
554.871902	2869.155068
555.229661	2879.587735
555.587365	2888.485372
555.945014	2899.880900
556.302606	2914.860689
556.660143	2923.168510
557.017625	2943.741459
557.375050	2945.851182
557.732421	2958.335600
558.089735	2970.857826
558.446994	2977.476861
558.804197	2994.140395
559.161345	3011.776872
559.518437	3010.125894
559.875474	3032.715304
560.232455	3041.000440
560.589381	3058.750343
560.946251	3068.789801
561.303065	3093.153697
561.659825	3116.085906
562.016528	3122.195785
562.373177	3128.683750
562.729770	3145.901811
563.086307	3172.493897
563.442789	3194.856456
563.799216	3211.376317
564.155587	3224.836198
564.511904	3251.398037
564.868164	3259.920108
565.224370	3289.299952
565.580520	3296.939821
565.936615	3334.899710
566.292654	3335.970955
566.648638	3382.183212
567.004567	3391.365674
567.360441	3417.425919
567.716260	3429.254986
568.072023	3472.714773
568.427732	3496.718228
568.783385	3507.791122
569.138982	3542.370917
569.494525	3583.017740
569.850013	3609.410701
570.205445	3630.255872
570.560823	3643.204076
570.916145	3678.224972
571.271412	3700.113662
571.626625	3739.936257
571.981782	3768.887603
572.336884	3784.000982
572.691931	3825.955985
573.046923	3832.973271
573.401860	3879.853482
573.756743	3927.056326
574.111570	3950.565747
574.466342	3979.333091
574.821059	4020.542003
575.175722	4032.645813
575.530330	4087.601952
575.884882	4119.197384
576.239380	4157.893281
576.593823	4189.133311
576.948211	4212.809090
577.302544	4240.734562
577.656823	4271.692288
578.011047	4326.477027
578.365216	4353.207745
578.719330	4397.138881
579.073389	4419.304834
579.427394	4495.511957
579.781344	4496.142101
580.135239	4550.687386
580.489080	4579.457251
580.842866	4592.992749
581.196597	4688.494888
581.550273	4704.253535
581.903895	4774.766674
582.257463	4841.990461
582.610975	4854.048901
582.964434	4927.601856
583.317837	4957.097647
583.671186	5018.070403
584.024481	5083.156740
584.377721	5083.703705
584.730906	5150.836751
585.084037	5216.989292
585.437113	5246.379219
585.790135	5319.833872
586.143103	5313.154343
586.496016	5344.931256
586.848874	5466.566737
587.201679	5493.640254
587.554428	5500.851624
587.907124	5613.077791
588.259765	5636.912367
588.612352	5727.668259
588.964884	5711.483635
589.317362	5786.909379
589.669786	5853.762640
590.022155	5912.620632
590.374470	6015.934039
590.726731	6041.195261
591.078937	6050.632301
591.431090	6125.004444
591.783188	6123.907993
592.135232	6164.123798
592.487222	6269.176402
592.839157	6320.462581
593.191038	6374.400407
593.542866	6390.411111
593.894639	6414.343989
594.246358	6516.334093
594.598022	6537.509460
594.949633	6562.596762
595.301190	6594.976093
595.652692	6700.348812
596.004141	6811.433157
596.355535	6719.333797
596.706876	6781.362674
597.058162	6823.965466
597.409395	6914.638179
597.760573	7014.458067
598.111698	7022.881835
598.462768	7068.395892
598.813785	7111.464990
599.164748	7123.467977
599.515657	7187.987185
599.866511	7198.566046
600.217312	7351.307967
600.568060	7276.260309
600.918753	7438.812315
601.269392	7496.175605
601.619978	7469.452448
601.970510	7624.155377
602.320988	7649.656054
602.671412	7782.853421
603.021783	7812.689490
603.372100	7797.177860
603.722363	7915.760922
604.072572	7964.390412
604.422728	8043.052577
604.772830	8072.414777
605.122878	8076.946775
605.472872	8172.398502
605.822813	8233.270435
606.172701	8287.427551
606.522534	8416.992766
606.872314	8494.036720
607.222041	8469.723235
607.571714	8627.889437
607.921333	8640.658680
608.270899	8735.318946
608.620411	8891.652689
608.969870	8825.084252
609.319276	8909.034587
609.668627	9014.409826
610.017926	9122.348492
610.367171	9224.336075
610.716362	9331.422786
611.065500	9295.411303
611.414585	9423.567516
611.763616	9489.248710
612.112594	9541.399446
612.461518	9566.885000
612.810389	9727.871727
613.159207	9699.663951
613.507971	9737.591072
613.856682	9965.279826
614.205340	9988.902673
614.553945	10151.439556
614.902496	10051.120594
615.250994	10279.452096
615.599439	10298.300970
615.947830	10349.123363
616.296169	10406.272403
616.644454	10490.595783
616.992686	10503.917032
617.340864	10692.035250
617.688990	10658.403192
618.037063	10811.750051
618.385082	10804.321911
618.733048	10984.628860
619.080961	10983.106432
619.428821	11084.829355
619.776628	11108.943714
620.124382	11105.598909
620.472083	11204.050123
620.819731	11291.380551
621.167326	11177.420227
621.514868	11250.332956
621.862357	11204.077849
622.209793	11266.913311
622.557176	11242.932542
622.904506	11182.037924
623.251783	11198.764473
623.599007	11167.007724
623.946179	11191.502691
624.293297	11220.131403
624.640363	11143.425207
624.987376	11194.108967
625.334336	11127.951385
625.681243	11102.052457
626.028097	11142.709363
626.374899	11202.157169
626.721647	11135.351799
627.068343	11083.004457
627.414987	11100.091448
627.761577	11162.558906
628.108115	11248.712225
628.454600	11099.579771
628.801032	11189.450941
629.147412	11201.514422
629.493739	11268.143353
629.840014	11206.326204
630.186236	11297.447580
630.532405	11202.608353
630.878521	11374.050433
631.224585	11335.835967
631.570597	11303.635596
631.916556	11326.865233
632.262462	11354.170643
632.608316	11364.247910
632.954117	11357.681807
633.299866	11412.471587
633.645562	11408.448747
633.991206	11275.392532
634.336797	11212.748634
634.682336	11266.628486
635.027823	11219.413039
635.373257	11212.821730
635.718639	11153.623461
636.063968	11160.527321
636.409245	11044.847964
636.754470	11099.332754
637.099642	11036.691377
637.444762	10906.947200
637.789829	10988.238327
638.134845	10909.984495
638.479808	10957.905704
638.824719	10966.405089
639.169577	10883.747810
639.514383	10962.110026
639.859137	10851.290341
640.203839	10941.484145
640.548489	10846.995278
640.893086	10896.196940
641.237632	10805.032713
641.582125	10972.930863
641.926566	10884.544313
642.270955	10914.201421
642.615292	10918.067986
642.959576	10955.654829
643.303809	11030.006807
