Dividing Wavelength (nm)	Counts (n)	Blue Motor Position (mm): 38.600000	Red Motor Position (mm): 0.000000	
326.493990	2130.013529
326.888308	2130.013529
327.282561	2130.013529
327.676750	2097.304002
328.070874	2096.010946
328.464933	2100.018663
328.858929	2105.395054
329.252859	2111.693976
329.646726	2125.650410
330.040528	2137.736577
330.434265	2157.104690
330.827938	2172.449962
331.221547	2192.349917
331.615091	2212.423791
332.008571	2229.863663
332.401986	2250.383680
332.795338	2265.161822
333.188625	2287.047992
333.581847	2306.176650
333.975006	2323.929073
334.368100	2344.260047
334.761129	2362.733355
335.154095	2377.332537
335.546996	2398.419683
335.939833	2427.882707
336.332606	2439.527772
336.725315	2452.049998
337.117960	2460.879579
337.510540	2471.682772
337.903056	2481.760038
338.295508	2488.996615
338.687896	2497.269148
339.080220	2506.244923
339.472480	2513.012672
339.864676	2514.676253
340.256807	2519.646830
340.648875	2521.449043
341.040879	2525.073632
341.432818	2525.706297
341.824694	2529.119158
342.216506	2530.187883
342.608253	2530.223171
342.999937	2529.247708
343.391557	2529.908099
343.783113	2528.070598
344.174605	2527.319466
344.566033	2525.499610
344.957397	2526.457429
345.348697	2521.335617
345.739934	2521.542304
346.131106	2519.722448
346.522215	2519.087262
346.913260	2515.336644
347.304241	2517.721109
347.695159	2509.950171
348.086012	2510.398833
348.476802	2505.937412
348.867528	2507.603514
349.258191	2504.079747
349.648789	2505.702999
350.039324	2502.096053
350.429796	2502.370796
350.820203	2501.291989
351.210548	2502.383399
351.600828	2500.389622
351.991045	2498.368120
352.381198	2497.826196
352.771288	2498.171515
353.161314	2497.914416
353.551276	2495.300578
353.941175	2496.409632
354.331010	2495.361072
354.720782	2495.749240
355.110490	2497.942142
355.500135	2496.898623
355.889717	2496.061792
356.279235	2495.192193
356.668689	2500.253511
357.058080	2499.830054
357.447408	2496.366782
357.836672	2493.281596
358.225873	2497.763181
358.615010	2492.938797
359.004084	2499.953563
359.393095	2498.143788
359.782043	2498.385764
360.170927	2499.535147
360.559748	2500.946670
360.948505	2499.247801
361.337199	2506.743997
361.725830	2502.534633
362.114398	2501.828872
362.502903	2502.496825
362.891344	2503.293327
363.279722	2502.388440
363.668037	2507.086795
364.056289	2507.227948
364.444478	2505.871877
364.832603	2508.445386
365.220665	2508.939419
365.608665	2505.395488
365.996601	2507.560664
366.384474	2508.200890
366.772284	2508.074862
367.160031	2508.009327
367.547715	2509.110819
367.935336	2509.534276
368.322893	2509.816580
368.710388	2513.100892
369.097820	2512.385048
369.485189	2512.354801
369.872495	2514.482168
370.259738	2511.759945
370.646918	2510.797085
371.034035	2514.020903
371.421090	2513.068124
371.808081	2514.542662
372.195010	2514.807323
372.581875	2512.805984
372.968678	2514.099040
373.355418	2513.869668
373.742096	2516.359998
374.128710	2514.756911
374.515262	2516.869154
374.901751	2514.202384
375.288177	2516.601973
375.674540	2517.849659
376.060841	2513.985614
376.447079	2515.901253
376.833254	2518.421830
377.219367	2514.499812
377.605417	2515.558454
377.991404	2516.576767
378.377329	2514.179699
378.763191	2516.377642
379.148991	2520.571882
379.534727	2521.678415
379.920402	2518.013496
380.306013	2518.288239
380.691563	2523.475587
381.077049	2520.592047
381.462474	2522.210257
381.847835	2523.798220
382.233134	2523.616739
382.618371	2522.106913
383.003545	2523.294105
383.388657	2525.844929
383.773706	2523.455422
384.158693	2526.860721
384.543618	2526.701925
384.928480	2526.283509
385.313280	2526.840557
385.698017	2527.629497
386.082692	2526.737213
386.467305	2526.570855
386.851856	2529.164529
387.236344	2530.898686
387.620770	2529.219981
388.005133	2530.087060
388.389435	2533.792308
388.773674	2529.474560
389.157851	2527.309384
389.541965	2530.495393
389.926018	2533.406660
390.310008	2532.297606
390.693936	2534.636701
391.077802	2537.074099
391.461606	2541.734646
391.845348	2541.285983
392.229027	2547.862168
392.612645	2549.808054
392.996200	2557.730227
393.379694	2563.910682
393.763125	2573.463668
394.146494	2581.101016
394.529801	2590.628797
394.913047	2606.339553
395.296230	2617.384721
395.679351	2635.598410
396.062410	2649.970739
396.445408	2663.972544
396.828343	2681.712365
397.211217	2700.563759
397.594028	2713.234700
397.976778	2737.457444
398.359466	2766.197062
398.742092	2788.592388
399.124656	2803.615026
399.507158	2838.051148
399.889598	2866.178266
400.271977	2908.337436
400.654294	2933.265942
401.036549	2963.540591
401.418742	2988.900115
401.800874	3046.084444
402.182944	3087.613469
402.564952	3140.714463
402.946898	3169.196983
403.328783	3205.021942
403.710606	3213.304558
404.092367	3319.587205
404.474067	3345.158458
404.855705	3387.365518
405.237282	3389.679408
405.618797	3481.123418
406.000250	3538.718601
406.381642	3616.332205
406.762972	3637.678971
407.144240	3688.458514
407.525447	3727.053588
407.906593	3801.571924
408.287677	3866.038199
408.668700	3860.785317
409.049661	3932.798200
409.430560	3998.791945
409.811399	3989.029750
410.192176	4135.119868
410.572891	4125.821460
410.953545	4239.524685
411.334138	4189.448383
411.714669	4274.076753
412.095139	4225.618662
412.475547	4366.231566
412.855894	4388.044639
413.236180	4423.768776
413.616405	4415.687806
413.996568	4513.219010
414.376670	4493.127491
414.756711	4476.506807
415.136691	4526.615876
415.516609	4614.533599
415.896466	4670.399666
416.276262	4723.354467
416.655997	4724.453438
417.035670	4907.472528
417.415283	5013.281307
417.794834	4976.667406
418.174324	4945.797901
418.553753	4876.202251
418.933121	5060.156476
419.312428	5139.254700
419.691674	5091.686372
420.070859	5227.676538
420.449983	5150.267101
420.829045	5270.002066
421.208047	5189.976269
421.586988	5265.306231
421.965867	5280.207882
422.344686	5421.587042
422.723444	5280.081853
423.102141	5104.690029
423.480777	5405.878806
423.859352	5181.938150
424.237866	5439.566317
424.616319	5430.283032
424.994712	5550.020518
425.373044	5420.714922
425.751314	5571.115227
426.129524	5375.336976
426.507673	5568.319907
426.885762	5654.107742
427.263789	5584.900262
427.641756	5471.716276
428.019662	5587.080561
428.397508	5598.864258
428.775292	5545.876690
429.153016	5645.426875
429.530679	5571.611780
429.908282	5663.494371
430.285824	5525.102095
430.663305	5803.794723
431.040726	5539.416451
431.418086	5541.654723
431.795385	5646.218337
432.172624	5663.128887
432.549802	5652.587834
432.926920	5669.261451
433.303977	5672.268499
433.680974	5712.174273
434.057910	5734.486420
434.434786	5735.555144
434.811601	5706.399631
435.188355	5941.529129
435.565050	5816.158153
435.941683	5797.725174
436.318257	6008.818450
436.694770	5994.390668
437.071222	6029.467017
437.447614	5959.838600
437.823946	5874.391042
438.200218	6025.764289
438.576429	5891.296551
438.952580	5994.292366
439.328670	6039.645106
439.704700	5945.574655
440.080670	5928.205359
440.456580	6200.127718
440.832429	6083.087249
441.208218	5930.957829
441.583947	6088.256953
441.959616	6090.485143
442.335224	6016.775912
442.710773	6152.642570
443.086261	6181.394791
443.461689	5975.045240
443.837057	6120.928671
444.212365	6280.576972
444.587612	6172.202247
444.962800	6327.673952
445.337927	6299.834180
445.712995	5909.840436
446.088002	6493.147306
446.462949	6324.331667
446.837837	6255.918168
447.212664	6427.821514
447.587431	6575.411375
447.962139	7113.335258
448.336786	8039.493522
448.711374	7779.304449
449.085901	6843.714186
449.460369	6777.246572
449.834776	6708.452466
450.209124	7097.866477
450.583412	7251.788028
450.957640	7394.868577
451.331808	7163.406519
451.705917	6708.172682
452.079965	6635.887577
452.453954	6849.201482
452.827883	6724.311936
453.201752	6820.174518
453.575562	6615.894361
453.949311	6819.834240
454.323001	6703.986004
454.696632	6783.721934
455.070202	6921.647904
455.443713	7080.257727
455.817164	7177.872110
456.190556	7259.168277
456.563888	7332.338105
456.937160	7382.124540
457.310373	7033.422887
457.683526	7058.293420
458.056619	6950.344672
458.429653	6937.628361
458.802628	6872.673094
459.175542	6981.486400
459.548398	7333.563105
459.921194	7498.623085
460.293930	7502.250195
460.666607	8028.511368
461.039224	8337.592073
461.411782	8467.190056
461.784280	8482.237900
462.156719	8367.965024
462.529099	8248.497240
462.901419	7836.818973
463.273680	7732.769558
463.645882	7745.269098
464.018024	7614.080631
464.390106	7779.191023
464.762130	8164.156216
465.134094	8635.546950
465.505999	9656.504112
465.877845	10877.668179
466.249631	11524.969977
466.621358	11136.632252
466.993026	10516.663590
467.364634	10259.718499
467.736184	9894.033199
468.107674	9558.128515
468.479105	9592.925080
468.850477	9357.571251
469.221790	9132.342579
469.593043	8807.130183
469.964238	8662.449067
470.335373	8676.173609
470.706449	8737.274914
471.077467	8706.975059
471.448425	10031.845742
471.819324	11096.406365
472.190164	11115.910589
472.560945	9865.152429
472.931667	9076.196728
473.302330	8945.691337
473.672934	8589.972399
474.043479	8953.013613
474.413965	8891.713183
474.784393	8769.923947
475.154761	8927.825488
475.525070	9012.426132
475.895321	8849.992593
476.265513	9026.291826
476.635645	9195.961941
477.005719	9193.065798
477.375734	9300.777612
477.745691	9543.241988
478.115588	9668.552470
478.485427	9915.153113
478.855207	10458.352563
479.224928	11274.376739
479.594591	11897.682645
479.964194	11709.619880
480.333739	11649.511682
480.703226	11558.959956
481.072653	11652.881694
481.442022	11889.402550
481.811333	12076.532701
482.180584	11883.312836
482.549777	11596.093096
482.918912	11421.149934
483.287988	11443.714138
483.657005	11451.250663
484.025964	11128.785696
484.394864	11268.937334
484.763706	11237.843497
485.132489	10994.118833
485.501213	10958.858482
485.869879	11039.229598
486.238487	10878.154650
486.607036	10984.407050
486.975527	10772.577765
487.343959	10961.313524
487.712333	11003.523105
488.080648	10935.923753
488.448905	10978.924795
488.817104	10916.570763
489.185244	11192.889008
489.553326	11343.773263
489.921350	11885.490614
490.289315	12949.065691
490.657222	13275.878654
491.025070	13184.535467
491.392861	13058.715828
491.760593	12679.399248
492.128267	12332.081393
492.495883	11996.857265
492.863440	11666.258395
493.230939	11334.684063
493.598380	11264.178485
493.965763	11131.172682
494.333088	11030.657116
494.700354	10952.864550
495.067563	11017.371155
495.434713	10845.800525
495.801805	10968.608073
496.168839	10900.600388
496.535815	10833.986581
496.902733	10830.603966
497.269593	10763.390262
497.636395	10869.549400
498.003139	10853.775630
498.369825	10723.557585
498.736453	10884.352749
499.103023	10814.293313
499.469535	10837.447333
499.835989	10827.359984
500.202385	10788.386823
500.568723	10638.765377
500.935003	10861.226455
501.301226	10666.879892
501.667390	10925.372618
502.033497	11014.641370
502.399546	10877.776563
502.765537	10786.282142
503.131470	10865.448422
503.497345	11040.981399
503.863163	10651.544702
504.228923	10961.714296
504.594625	11020.262256
504.960269	10771.758578
505.325856	10988.298820
505.691385	10789.074941
506.056856	10935.061715
506.422270	10967.133536
506.787625	10853.132883
507.152924	10971.899947
507.518164	10947.934302
507.883347	10873.988136
508.248472	10789.793305
508.613540	11027.040088
508.978550	10905.528115
509.343503	10884.970290
509.708398	11002.582930
510.073236	11112.585948
510.438016	11116.964190
510.802738	11057.473533
511.167403	11120.513162
511.532010	11013.174394
511.896561	11253.607186
512.261053	11323.596045
512.625488	11194.643330
512.989866	11179.426607
513.354186	11160.678556
513.718449	11063.149873
514.082655	11258.081210
514.446803	11152.169088
514.810894	11284.809407
515.174927	11134.983794
515.538904	11171.285143
515.902822	11311.890486
516.266684	11196.710203
516.630488	11141.817078
516.994235	11198.341016
517.357925	11259.507856
517.721558	11347.917092
518.085133	11362.385203
518.448651	11381.060158
518.812112	11255.099367
519.175516	11276.872111
519.538863	11385.876980
519.902152	11309.029631
520.265385	11472.133643
520.628560	11381.516382
520.991678	11360.320851
521.354739	11420.297979
521.717743	11354.805828
522.080690	11340.582213
522.443580	11472.491565
522.806413	11424.383834
523.169189	11461.156531
523.531908	11513.536640
523.894569	11340.998108
524.257174	11336.055257
524.619722	11459.160234
524.982213	11406.918756
525.344647	11454.121600
525.707025	11411.662482
526.069345	11498.503919
526.431608	11419.912330
526.793815	11529.043229
527.155964	11319.462299
527.518057	11369.286543
527.880093	11319.961373
528.242072	11387.767413
528.603995	11292.845007
528.965860	11211.069929
529.327669	11259.742270
529.689421	11217.189890
530.051117	11184.281238
530.412755	11287.902155
530.774337	11174.589620
531.135862	11158.533545
531.497331	11176.974085
531.858743	11033.815398
532.220098	11207.180679
532.581396	11072.533981
532.942638	11058.282639
533.303824	11018.502894
533.664953	11033.865810
534.026025	10946.742069
534.387040	11050.148737
534.747999	11045.392408
535.108902	11103.917684
535.469748	10865.811385
535.830537	10975.191820
536.191270	10945.073447
536.551947	10967.748557
536.912567	10969.810389
537.273131	10889.577905
537.633638	10873.010153
537.994089	10864.785510
538.354483	10809.544546
538.714821	10959.067690
539.075103	10965.772424
539.435328	10926.728688
539.795497	10759.984963
540.155609	10907.524412
540.515665	11001.337765
540.875665	10739.858156
541.235609	10804.964658
541.595496	10797.700355
541.955328	10956.811773
542.315102	10839.587302
542.674821	10788.202821
543.034483	10793.324634
543.394090	10798.713627
543.753640	10722.405681
544.113134	10942.704104
544.472571	10793.276743
544.831953	10941.489186
545.191278	10749.244784
545.550548	10774.392580
545.909761	10914.070351
546.268918	10888.504139
546.628019	10975.000257
546.987064	10828.320324
547.346053	10759.437998
547.704986	10859.368790
548.063863	10840.535039
548.422684	10838.319452
548.781449	10754.074210
549.140158	10855.587925
549.498811	10738.166849
549.857408	10586.440721
550.215949	10814.263066
550.574434	10668.392238
550.932864	10762.674418
551.291237	10822.580970
551.649555	10773.122210
552.007817	10786.370362
552.366022	10753.963304
552.724173	10740.228681
553.082267	10724.500281
553.440305	10864.311642
553.798288	10666.975674
554.156215	10815.551081
554.514086	10796.679522
554.871902	10643.861984
555.229661	10675.699391
555.587365	10651.859774
555.945014	10547.888497
556.302606	10678.114104
556.660143	10567.876672
557.017625	10727.530014
557.375050	10620.496236
557.732421	10758.810374
558.089735	10667.562969
558.446994	10668.160345
558.804197	10705.953876
559.161345	10706.306757
559.518437	10556.105578
559.875474	10652.348766
560.232455	10681.133755
560.589381	10621.484302
560.946251	10624.972780
561.303065	10733.113092
561.659825	10668.982053
562.016528	10593.679818
562.373177	10476.818310
562.729770	10585.303941
563.086307	10504.927784
563.442789	10600.011507
563.799216	10474.680861
564.155587	10524.633654
564.511904	10480.889042
564.868164	10471.918308
565.224370	10489.595114
565.580520	10420.478375
565.936615	10413.408156
566.292654	10285.627509
566.648638	10412.992261
567.004567	10374.555984
567.360441	10359.485454
567.716260	10267.214695
568.072023	10363.324293
568.427732	10312.234719
568.783385	10220.155524
569.138982	10287.931317
569.494525	10311.221447
569.850013	10184.822076
570.205445	10266.292164
570.560823	10160.490947
570.916145	10078.080685
571.271412	10147.164657
571.626625	10095.243293
571.981782	10070.975178
572.336884	10042.134737
572.691931	10048.355521
573.046923	9991.766049
573.401860	9947.504718
573.756743	9888.059432
574.111570	9931.524260
574.466342	9913.514738
574.821059	9944.502711
575.175722	9838.467081
575.530330	9840.617133
575.884882	9837.841978
576.239380	9767.593499
576.593823	9742.110466
576.948211	9758.920194
577.302544	9637.274631
577.656823	9655.296756
578.011047	9653.524790
578.365216	9625.715265
578.719330	9555.038288
579.073389	9562.211850
579.427394	9510.212348
579.781344	9490.866920
580.135239	9435.242829
580.489080	9448.826218
580.842866	9344.849899
581.196597	9351.005148
581.550273	9388.959995
581.903895	9364.643990
582.257463	9427.539946
582.610975	9303.774578
582.964434	9328.264503
583.317837	9249.733408
583.671186	9230.619873
584.024481	9233.846212
584.377721	9150.190784
584.730906	9122.812278
585.084037	9158.536415
585.437113	9093.006456
585.790135	9115.308520
586.143103	9012.504270
586.496016	8983.336154
586.848874	9044.129949
587.201679	9036.343887
587.554428	8919.623531
587.907124	8968.658834
588.259765	8936.347559
588.612352	8936.710522
588.964884	8819.649888
589.317362	8830.692536
589.669786	8830.374943
590.022155	8877.139207
590.374470	8892.660920
590.726731	8833.838216
591.078937	8677.806943
591.431090	8791.028737
591.783188	8666.648349
592.135232	8663.167432
592.487222	8653.097727
592.839157	8707.312816
593.191038	8643.937951
593.542866	8591.852749
593.894639	8492.378181
594.246358	8542.910707
594.598022	8563.455929
594.949633	8458.410886
595.301190	8426.079446
595.652692	8464.440106
596.004141	8573.727280
596.355535	8346.872837
596.706876	8331.482194
597.058162	8261.510979
597.409395	8339.255653
597.760573	8399.787308
598.111698	8306.594018
598.462768	8299.710322
598.813785	8261.009384
599.164748	8230.265907
599.515657	8226.185093
599.866511	8129.662120
600.217312	8255.292715
600.568060	8116.834904
600.918753	8220.813744
601.269392	8193.392387
601.619978	8100.660362
601.970510	8167.039756
602.320988	8159.198241
602.671412	8220.947334
603.021783	8157.960637
603.372100	8127.895196
603.722363	8126.818910
604.072572	8104.627750
604.422728	8111.410623
604.772830	8043.763379
605.122878	8053.389463
605.472872	8045.875623
605.822813	8079.870644
606.172701	8022.671192
606.522534	8099.395033
606.872314	8093.557377
607.222041	8064.928664
607.571714	8125.160370
607.921333	8073.546516
608.270899	8084.586643
608.620411	8169.404057
608.969870	8075.242865
609.319276	8069.926968
609.668627	8089.055626
610.017926	8128.462326
610.367171	8170.208121
610.716362	8149.801530
611.065500	8137.589335
611.414585	8168.700816
611.763616	8151.124833
612.112594	8133.720249
612.461518	8148.533680
612.810389	8215.548258
613.159207	8150.759349
613.507971	8102.961649
613.856682	8214.386273
614.205340	8174.339346
614.553945	8248.562775
614.902496	8152.823702
615.250994	8208.510808
615.599439	8189.442643
615.947830	8197.473201
616.296169	8169.212493
616.644454	8191.559928
616.992686	8181.560799
617.340864	8242.238648
617.688990	8143.419429
618.037063	8237.343687
618.385082	8189.193106
618.733048	8270.882484
619.080961	8210.063483
619.428821	8221.206954
619.776628	8230.003767
620.124382	8182.168258
620.472083	8172.040580
620.819731	8193.357099
621.167326	8083.439781
621.514868	8096.004857
621.862357	7979.735684
622.209793	7997.561204
622.557176	7938.284797
622.904506	7905.771875
623.251783	7835.856112
623.599007	7791.970348
623.946179	7799.756410
624.293297	7752.311590
624.640363	7674.075403
624.987376	7650.283678
625.334336	7601.422294
625.681243	7545.904067
626.028097	7535.655401
626.374899	7518.031527
626.721647	7513.055908
627.068343	7440.115453
627.414987	7414.518995
627.761577	7366.368414
628.108115	7408.651092
628.454600	7295.136910
628.801032	7349.536001
629.147412	7304.319372
629.493739	7293.725387
629.840014	7230.040490
630.186236	7290.640201
630.532405	7174.670977
630.878521	7221.120168
631.224585	7183.412338
631.570597	7105.571881
631.916556	7138.563712
632.262462	7132.922661
632.608316	7092.941270
632.954117	7074.440236
633.299866	7060.347690
633.645562	7051.084570
633.991206	6969.974925
634.336797	6917.395690
634.682336	6869.066148
635.027823	6839.880388
635.373257	6832.669018
635.718639	6768.472444
636.063968	6778.111130
636.409245	6673.121540
636.754470	6671.281518
637.099642	6629.848275
637.444762	6574.970274
637.789829	6579.519916
638.134845	6521.022366
638.479808	6506.937383
638.824719	6512.875862
639.169577	6443.507064
639.514383	6463.316278
639.859137	6388.681996
640.203839	6398.340846
640.548489	6384.767540
