Dividing Wavelength (nm)	Counts (n)	Blue Motor Position (mm): 42.400000	Red Motor Position (mm): 0.000000	
326.493990	2130.510083
326.888308	2130.510083
327.282561	2130.510083
327.676750	2097.170412
328.070874	2095.113621
328.464933	2099.577563
328.858929	2105.994951
329.252859	2114.012907
329.646726	2126.391460
330.040528	2140.869654
330.434265	2157.770122
330.827938	2175.462051
331.221547	2191.306398
331.615091	2210.198122
332.008571	2228.734445
332.401986	2250.240007
332.795338	2269.953439
333.188625	2290.551594
333.581847	2307.114305
333.975006	2323.616522
334.368100	2342.964470
334.761129	2360.187572
335.154095	2378.464276
335.546996	2398.795249
335.939833	2422.760894
336.332606	2443.061621
336.725315	2450.396500
337.117960	2463.621967
337.510540	2472.128914
337.903056	2482.233907
338.295508	2486.826398
338.687896	2495.290495
339.080220	2506.638133
339.472480	2511.649040
339.864676	2518.283198
340.256807	2521.393590
340.648875	2525.721421
341.040879	2526.366688
341.432818	2528.640249
341.824694	2531.019673
342.216506	2529.449354
342.608253	2531.924560
342.999937	2530.417255
343.391557	2530.422297
343.783113	2530.457585
344.174605	2529.504807
344.566033	2525.706297
344.957397	2528.894827
345.348697	2520.884433
345.739934	2523.901564
346.131106	2518.832684
346.522215	2519.782941
346.913260	2516.216325
347.304241	2514.943434
347.695159	2511.205418
348.086012	2512.818587
348.476802	2510.262722
348.867528	2506.875067
349.258191	2508.551251
349.648789	2502.819459
350.039324	2505.672752
350.429796	2505.650067
350.820203	2500.268635
351.210548	2501.327277
351.600828	2499.784684
351.991045	2499.827534
352.381198	2496.414673
352.771288	2499.509941
353.161314	2495.499703
353.551276	2498.048007
353.941175	2495.068685
354.331010	2497.866525
354.720782	2495.219919
355.110490	2497.047338
355.500135	2497.329642
355.889717	2497.561535
356.279235	2498.065651
356.668689	2499.424242
357.058080	2498.186638
357.447408	2499.192348
357.836672	2495.328304
358.225873	2497.616988
358.615010	2494.612460
359.004084	2503.147134
359.393095	2498.521875
359.782043	2500.180415
360.170927	2501.886845
360.559748	2503.278204
360.948505	2501.639829
361.337199	2502.965652
361.725830	2502.617812
362.114398	2507.066631
362.502903	2508.488236
362.891344	2507.149810
363.279722	2507.681652
363.668037	2507.704337
364.056289	2507.502691
364.444478	2510.910511
364.832603	2510.418998
365.220665	2508.606703
365.608665	2508.306755
365.996601	2513.375635
366.384474	2511.540655
366.772284	2510.136693
367.160031	2511.828001
367.547715	2512.228772
367.935336	2511.384379
368.322893	2512.357322
368.710388	2513.156345
369.097820	2518.023579
369.485189	2511.182733
369.872495	2516.039885
370.259738	2514.986283
370.646918	2515.800430
371.034035	2517.665657
371.421090	2517.128774
371.808081	2517.653054
372.195010	2518.114319
372.581875	2517.199350
372.968678	2518.608353
373.355418	2516.491068
373.742096	2519.331758
374.128710	2520.347551
374.515262	2519.818229
374.901751	2519.513240
375.288177	2520.642458
375.674540	2522.759743
376.060841	2521.375946
376.447079	2523.372243
376.833254	2522.835360
377.219367	2518.071470
377.605417	2519.024248
377.991404	2518.752025
378.377329	2521.338137
378.763191	2520.876872
379.148991	2527.785773
379.534727	2529.109076
379.920402	2527.105217
380.306013	2526.648993
380.691563	2532.766433
381.077049	2533.915816
381.462474	2538.364634
381.847835	2543.050387
382.233134	2550.546583
382.618371	2553.157900
383.003545	2563.966134
383.388657	2570.912844
383.773706	2579.671849
384.158693	2594.689446
384.543618	2607.156220
384.928480	2619.814557
385.313280	2638.741569
385.698017	2649.960657
386.082692	2672.882784
386.467305	2683.280163
386.851856	2709.877291
387.236344	2726.228274
387.620770	2752.001173
388.005133	2779.861109
388.389435	2803.085705
388.773674	2826.804334
389.157851	2858.780373
389.541965	2887.598129
389.926018	2900.493400
390.310008	2948.016358
390.693936	2977.355873
391.077802	3020.208201
391.461606	3045.744166
391.845348	3101.277517
392.229027	3128.819861
392.612645	3160.241373
392.996200	3228.685119
393.379694	3277.254115
393.763125	3344.339270
394.146494	3358.910725
394.529801	3425.494285
394.913047	3485.206753
395.296230	3496.516581
395.679351	3562.674164
396.062410	3611.648973
396.445408	3627.757981
396.828343	3683.525745
397.211217	3727.194740
397.594028	3695.306922
397.976778	3774.450516
398.359466	3822.850634
398.742092	3869.481307
399.124656	3833.227850
399.507158	3922.887291
399.889598	3961.913384
400.271977	4036.290568
400.654294	4033.936349
401.036549	4062.597829
401.418742	4053.256571
401.800874	4158.485616
402.182944	4193.781255
402.564952	4269.940487
402.946898	4271.520888
403.328783	4281.182260
403.710606	4211.392526
404.092367	4407.047268
404.474067	4382.769072
404.855705	4404.093152
405.237282	4339.062268
405.618797	4452.092499
406.000250	4488.721523
406.381642	4576.240994
406.762972	4547.024987
407.144240	4558.113005
407.525447	4561.742636
407.906593	4628.863079
408.287677	4666.649047
408.668700	4600.259572
409.049661	4657.070855
409.430560	4697.783214
409.811399	4627.902739
410.192176	4788.982728
410.572891	4729.552565
410.953545	4833.770859
411.334138	4715.714598
411.714669	4785.393426
412.095139	4681.482643
412.475547	4823.673428
412.855894	4803.193741
413.236180	4816.280576
413.616405	4769.118061
413.996568	4857.870095
414.376670	4798.787772
414.756711	4750.997634
415.136691	4784.692706
415.516609	4863.417885
415.896466	4898.453904
416.276262	4936.454122
416.655997	4916.218930
417.035670	5094.295169
417.415283	5184.521741
417.794834	5128.648112
418.174324	5080.981482
418.553753	4998.046940
418.933121	5176.589485
419.312428	5240.176079
419.691674	5186.147513
420.070859	5314.540660
420.449983	5219.968614
420.829045	5335.947920
421.208047	5249.580352
421.586988	5318.298841
421.965867	5333.026572
422.344686	5459.564574
422.723444	5319.405374
423.102141	5129.169872
423.480777	5430.497281
423.859352	5203.174010
424.237866	5460.630778
424.616319	5450.291372
424.994712	5558.582918
425.373044	5441.076142
425.751314	5575.231329
426.129524	5383.977513
426.507673	5575.395166
426.885762	5658.879194
427.263789	5594.238999
427.641756	5473.916739
428.019662	5593.760090
428.397508	5602.748467
428.775292	5548.462802
429.153016	5650.364686
429.530679	5575.637142
429.908282	5661.808105
430.285824	5530.299524
430.663305	5805.619621
431.040726	5542.000042
431.418086	5543.819899
431.795385	5650.699922
432.172624	5657.487836
432.549802	5650.851157
432.926920	5667.212222
433.303977	5673.553993
433.680974	5711.642431
434.057910	5725.636674
434.434786	5734.393158
434.811601	5705.676226
435.188355	5940.989725
435.565050	5816.059851
435.941683	5793.218383
436.318257	6009.320045
436.694770	5991.819680
437.071222	6028.289907
437.447614	5964.383200
437.823946	5869.274271
438.200218	6028.373086
438.576429	5889.282610
438.952580	5993.407643
439.328670	6035.052615
439.704700	5945.814110
440.080670	5928.386841
440.456580	6199.893305
440.832429	6081.247228
441.208218	5928.217962
441.583947	6084.612198
441.959616	6080.730510
442.335224	6015.762640
442.710773	6152.211551
443.086261	6179.559811
443.461689	5973.333768
443.837057	6120.711901
444.212365	6273.118585
444.587612	6168.605383
444.962800	6322.952911
445.337927	6299.377955
445.712995	5913.515437
446.088002	6487.395350
446.462949	6319.658517
446.837837	6254.264669
447.212664	6424.859836
447.587431	6566.047432
447.962139	7107.941223
448.336786	8034.535547
448.711374	7773.237420
449.085901	6846.660740
449.460369	6772.344050
449.834776	6706.166303
450.209124	7096.147444
450.583412	7249.133860
450.957640	7392.295068
451.331808	7155.633059
451.705917	6710.443722
452.079965	6634.256764
452.453954	6847.535380
452.827883	6724.785805
453.201752	6814.727551
453.575562	6623.309898
453.949311	6819.418345
454.323001	6709.432971
454.696632	6783.220340
455.070202	6924.022287
455.443713	7078.208498
455.817164	7182.320928
456.190556	7257.817248
456.563888	7334.324319
456.937160	7376.720423
457.310373	7034.685696
457.683526	7059.715025
458.056619	6949.144877
458.429653	6937.535100
458.802628	6870.016406
459.175542	6979.671584
459.548398	7328.194276
459.921194	7494.338104
460.293930	7503.823035
460.666607	8028.781070
461.039224	8337.024943
461.411782	8462.728634
461.784280	8475.727250
462.156719	8369.585755
462.529099	8250.180985
462.901419	7834.149682
463.273680	7730.967345
463.645882	7742.975373
464.018024	7618.789069
464.390106	7776.917462
464.762130	8165.948346
465.134094	8636.875294
465.505999	9657.913115
465.877845	10878.207582
466.249631	11527.868640
466.621358	11148.504169
466.993026	10512.686120
467.364634	10247.655018
467.736184	9889.297035
468.107674	9560.205471
468.479105	9589.134132
468.850477	9362.100727
469.221790	9131.694791
469.593043	8793.004870
469.964238	8661.486207
470.335373	8676.808794
470.706449	8731.180159
471.077467	8709.369607
471.448425	10022.156645
471.819324	11102.284350
472.190164	11114.914961
472.560945	9868.865238
472.931667	9078.724867
473.302330	8950.724930
473.672934	8590.121113
474.043479	8947.581770
474.413965	8891.851814
474.784393	8772.144575
475.154761	8929.075694
475.525070	9018.309159
475.895321	8843.013116
476.265513	9020.307976
476.635645	9193.401035
477.005719	9188.705200
477.375734	9304.132499
477.745691	9542.924395
478.115588	9675.612606
478.485427	9925.464793
478.855207	10462.849273
479.224928	11273.560072
479.594591	11906.116495
479.964194	11709.771115
480.333739	11649.604944
480.703226	11562.884495
481.072653	11654.779688
481.442022	11896.606359
481.811333	12092.331677
482.180584	11882.758309
482.549777	11597.852458
482.918912	11415.327401
483.287988	11446.368306
483.657005	11456.884153
484.025964	11133.544545
484.394864	11266.683939
484.763706	11238.771070
485.132489	10998.996149
485.501213	10955.745569
485.869879	11030.886488
486.238487	10876.927129
486.607036	10983.177008
486.975527	10771.947621
487.343959	10960.186826
487.712333	11007.684578
488.080648	10935.696901
488.448905	10974.203754
488.817104	10915.181925
489.185244	11175.338231
489.553326	11337.025679
489.921350	11884.646221
490.289315	12942.524794
490.657222	13276.619703
491.025070	13191.467053
491.392861	13064.878639
491.760593	12679.235411
492.128267	12327.599807
492.495883	12001.911021
492.863440	11666.956595
493.230939	11333.103661
493.598380	11258.227403
493.965763	11133.904987
494.333088	11027.869358
494.700354	10953.890425
495.067563	11008.644917
495.434713	10845.724907
495.801805	10968.252672
496.168839	10893.441949
496.535815	10829.126908
496.902733	10831.622279
497.269593	10762.883626
497.636395	10869.428413
498.003139	10852.722029
498.369825	10724.681762
498.736453	10882.979034
499.103023	10808.942128
499.469535	10833.984060
499.835989	10827.206229
500.202385	10797.234048
500.568723	10644.759309
500.935003	10863.459687
501.301226	10664.235807
501.667390	10925.352453
502.033497	11021.419201
502.399546	10878.933508
502.765537	10783.418766
503.131470	10864.173010
503.497345	11034.957220
503.863163	10648.071347
504.228923	10960.171702
504.594625	11021.406598
504.960269	10767.642475
505.325856	10991.326033
505.691385	10779.239650
506.056856	10931.099368
506.422270	10958.717330
506.787625	10847.060813
507.152924	10967.778804
507.518164	10952.310023
507.883347	10867.091838
508.248472	10791.439242
508.613540	11030.105109
508.978550	10902.752960
509.343503	10879.246060
509.708398	11004.337251
510.073236	11114.362955
510.438016	11120.346804
510.802738	11069.184134
511.167403	11123.868050
511.532010	11015.122800
511.896561	11250.940415
512.261053	11321.014974
512.625488	11190.807012
512.989866	11175.244970
513.354186	11159.904738
513.718449	11061.077958
514.082655	11251.862946
514.446803	11152.506845
514.810894	11271.800710
515.174927	11137.819443
515.538904	11157.308544
515.902822	11315.552884
516.266684	11193.619975
516.630488	11146.414611
516.994235	11199.931500
517.357925	11257.652712
517.721558	11342.034065
518.085133	11361.613907
518.448651	11373.989939
518.812112	11251.258008
519.175516	11274.916143
519.538863	11390.255222
519.902152	11311.565331
520.265385	11470.180196
520.628560	11380.530837
520.991678	11361.175326
521.354739	11424.867785
521.717743	11355.345232
522.080690	11332.092910
522.443580	11469.272788
522.806413	11421.996847
523.169189	11455.263422
523.531908	11510.509427
523.894569	11335.825884
524.257174	11341.028355
524.619722	11458.270470
524.982213	11405.189641
525.344647	11458.235182
525.707025	11407.190979
526.069345	11504.898623
526.431608	11418.594069
526.793815	11523.472754
527.155964	11314.542133
527.518057	11366.876871
527.880093	11318.887607
528.242072	11388.042156
528.603995	11296.812395
528.965860	11211.087573
529.327669	11261.098340
529.689421	11214.949097
530.051117	11177.982316
530.412755	11282.109869
530.774337	11179.310660
531.135862	11157.459779
531.497331	11181.884169
531.858743	11036.086438
532.220098	11206.890813
532.581396	11068.314535
532.942638	11052.823069
533.303824	11024.181753
533.664953	11032.537466
534.026025	10941.486666
534.387040	11042.251769
534.747999	11047.963397
535.108902	11098.642116
535.469748	10862.703513
535.830537	10966.626900
536.191270	10945.549836
536.551947	10971.383229
536.912567	10967.065480
537.273131	10892.806764
537.633638	10880.771009
537.994089	10859.144459
538.354483	10811.475308
538.714821	10955.004520
539.075103	10966.425254
539.435328	10925.276836
539.795497	10755.226113
540.155609	10911.292675
540.515665	10995.888277
540.875665	10735.500078
541.235609	10805.312498
541.595496	10801.881992
541.955328	10966.216046
542.315102	10838.054792
542.674821	10783.466657
543.034483	10785.213417
543.394090	10791.151896
543.753640	10715.766482
544.113134	10942.068919
544.472571	10792.301279
544.831953	10936.203537
545.191278	10739.374205
545.550548	10775.317632
545.909761	10917.702502
546.268918	10882.734538
546.628019	10967.894750
546.987064	10833.207722
547.346053	10753.333160
547.704986	10854.584735
548.063863	10836.350882
548.422684	10831.307207
548.781449	10753.340722
549.140158	10853.901659
549.498811	10728.394572
549.857408	10587.459034
550.215949	10814.489918
550.574434	10664.949130
550.932864	10759.430436
551.291237	10826.129942
551.649555	10767.841601
552.007817	10782.796184
552.366022	10747.961811
552.724173	10738.860008
553.082267	10724.374252
553.440305	10865.319872
553.798288	10660.245734
554.156215	10819.273973
554.514086	10790.166351
554.871902	10642.213527
555.229661	10683.102325
555.587365	10656.686679
555.945014	10550.845134
556.302606	10677.524289
556.660143	10563.352236
557.017625	10720.883253
557.375050	10620.140834
557.732421	10753.600341
558.089735	10667.873000
558.446994	10666.222022
558.804197	10704.444050
559.161345	10704.456653
559.518437	10551.687006
559.875474	10642.606737
560.232455	10668.573720
560.589381	10621.232244
560.946251	10626.016299
561.303065	10724.510363
561.659825	10658.776238
562.016528	10596.772566
562.373177	10468.510488
562.729770	10587.678324
563.086307	10504.857208
563.442789	10589.977090
563.799216	10475.883176
564.155587	10519.786585
564.511904	10484.901800
564.868164	10472.568617
565.224370	10485.363066
565.580520	10404.981868
565.936615	10414.184494
566.292654	10286.459300
566.648638	10415.084340
567.004567	10376.539678
567.360441	10352.387510
567.716260	10263.756463
568.072023	10355.664260
568.427732	10312.403598
568.783385	10217.208969
569.138982	10291.757552
569.494525	10310.664400
569.850013	10180.877373
570.205445	10263.325445
570.560823	10160.075052
570.916145	10072.069109
571.271412	10150.373352
571.626625	10089.443446
571.981782	10063.683149
572.336884	10035.392194
572.691931	10044.415859
573.046923	9987.072734
573.401860	9952.571078
573.756743	9886.451304
574.111570	9926.651985
574.466342	9913.832331
574.821059	9943.607906
575.175722	9834.227470
575.530330	9842.205096
575.884882	9832.594137
576.239380	9759.716696
576.593823	9739.874714
576.948211	9750.196477
577.302544	9631.401687
577.656823	9647.392227
578.011047	9653.008072
578.365216	9626.526891
578.719330	9549.054438
579.073389	9556.948885
579.427394	9507.449796
579.781344	9487.207043
580.135239	9433.554042
580.489080	9442.050907
580.842866	9347.478861
581.196597	9353.099747
581.550273	9391.231035
581.903895	9355.849697
582.257463	9425.513402
582.610975	9307.477305
582.964434	9333.671140
583.317837	9250.333306
583.671186	9233.757992
584.024481	9229.170542
584.377721	9144.068303
584.730906	9124.362433
585.084037	9156.845108
585.437113	9089.681815
585.790135	9110.584959
586.143103	9008.491512
586.496016	8982.101071
586.848874	9040.084423
587.201679	9032.704173
587.554428	8916.019106
587.907124	8964.812434
588.259765	8934.699102
588.612352	8934.615922
588.964884	8808.214031
589.317362	8828.194644
589.669786	8818.881112
590.022155	8873.708702
590.374470	8885.683963
590.726731	8827.723296
591.078937	8680.604783
591.431090	8796.876476
591.783188	8668.478288
592.135232	8657.554107
592.487222	8660.553594
592.839157	8709.566212
593.191038	8638.543916
593.542866	8586.562058
593.894639	8488.771235
594.246358	8545.942961
594.598022	8559.218840
594.949633	8451.575082
595.301190	8430.036752
595.652692	8453.523488
596.004141	8571.141168
596.355535	8343.553237
596.706876	8326.766195
597.058162	8255.872448
597.409395	8338.320519
597.760573	8398.315291
598.111698	8308.310530
598.462768	8289.602808
598.813785	8260.522913
599.164748	8227.790701
599.515657	8218.603198
599.866511	8126.665154
600.217312	8254.586954
600.568060	8110.024306
600.918753	8215.250830
601.269392	8188.726799
601.619978	8093.302798
601.970510	8160.942480
602.320988	8159.818303
602.671412	8212.178247
603.021783	8149.181468
603.372100	8123.131306
603.722363	8126.460988
604.072572	8104.771423
604.422728	8111.521528
604.772830	8042.752628
605.122878	8049.447280
605.472872	8039.763224
605.822813	8072.233296
606.172701	8016.669698
606.522534	8092.823889
606.872314	8091.608971
607.222041	8060.830206
607.571714	8114.432795
607.921333	8073.173471
608.270899	8081.204029
608.620411	8166.858274
608.969870	8071.494767
609.319276	8066.703150
609.668627	8084.624452
610.017926	8121.003939
610.367171	8173.898245
610.716362	8142.567474
611.065500	8138.189232
611.414585	8160.763519
611.763616	8149.919997
612.112594	8135.640929
612.461518	8145.007393
612.810389	8211.618679
613.159207	8145.388000
613.507971	8096.914785
613.856682	8213.269657
614.205340	8170.891197
614.553945	8248.247703
614.902496	8144.946899
615.250994	8197.790794
615.599439	8180.245058
615.947830	8196.142337
616.296169	8168.400867
616.644454	8177.477465
616.992686	8180.096344
617.340864	8241.280828
617.688990	8144.296590
618.037063	8236.544664
618.385082	8179.887136
618.733048	8264.820496
619.080961	8204.934109
619.428821	8226.994198
619.776628	8231.833706
620.124382	8180.403854
620.472083	8160.060278
620.819731	8191.091101
621.167326	8078.358298
621.514868	8085.841891
621.862357	7977.096640
622.209793	7999.028180
622.557176	7930.995288
622.904506	7899.588900
623.251783	7833.053231
623.599007	7784.592619
623.946179	7788.612939
624.293297	7749.947289
624.640363	7660.986047
624.987376	7648.141187
625.334336	7598.238805
625.681243	7551.368678
626.028097	7534.616923
626.374899	7512.922318
626.721647	7508.337388
627.068343	7440.498581
627.414987	7405.452479
627.761577	7364.510748
628.108115	7398.294041
628.454600	7298.794267
628.801032	7340.845052
629.147412	7304.518497
629.493739	7290.998122
629.840014	7227.136786
630.186236	7286.597195
630.532405	7168.137642
630.878521	7219.012966
631.224585	7182.245311
631.570597	7100.797908
631.916556	7139.970194
632.262462	7128.451158
632.608316	7095.393792
632.954117	7069.668783
633.299866	7054.688995
633.645562	7050.973664
633.991206	6969.637168
634.336797	6916.563900
634.682336	6870.709565
635.027823	6838.796540
635.373257	6830.403019
635.718639	6757.928871
636.063968	6773.967302
636.409245	6671.369739
636.754470	6669.370921
637.099642	6620.988447
637.444762	6567.095992
637.789829	6578.705769
638.134845	6517.831316
638.479808	6502.289439
638.824719	6506.445870
639.169577	6436.540190
639.514383	6458.184384
639.859137	6387.293158
640.203839	6391.260546
640.548489	6378.937445
