Dividing Wavelength (nm)	Counts (n)	Blue Motor Position (mm): 13.400000	Red Motor Position (mm): 0.000000	
326.493990	2063.939125
326.888308	2063.939125
327.282561	2063.939125
327.676750	2039.174457
328.070874	2038.882070
328.464933	2047.867927
328.858929	2055.492672
329.252859	2066.978941
329.646726	2077.905642
330.040528	2096.227716
330.434265	2111.744387
330.827938	2135.982255
331.221547	2154.400111
331.615091	2173.496001
332.008571	2193.685823
332.401986	2217.200285
332.795338	2234.017574
333.188625	2255.291243
333.581847	2275.460900
333.975006	2290.163425
334.368100	2307.885601
334.761129	2325.164156
335.154095	2341.560509
335.546996	2382.666077
335.939833	2456.569393
336.332606	2469.678913
336.725315	2480.716520
337.117960	2493.392501
337.510540	2502.217041
337.903056	2509.241889
338.295508	2514.363701
338.687896	2521.345699
339.080220	2525.779394
339.472480	2531.871628
339.864676	2536.040662
340.256807	2536.867412
340.648875	2540.502084
341.040879	2543.269677
341.432818	2542.750438
341.824694	2545.321427
342.216506	2542.299255
342.608253	2543.229348
342.999937	2538.256250
343.391557	2541.021323
343.783113	2543.456200
344.174605	2537.086702
344.566033	2535.909592
344.957397	2535.153419
345.348697	2532.000178
345.739934	2530.515558
346.131106	2530.268541
346.522215	2525.676050
346.913260	2527.367357
347.304241	2524.178828
347.695159	2522.106913
348.086012	2519.069618
348.476802	2518.983918
348.867528	2516.838908
349.258191	2509.642660
349.648789	2516.468383
350.039324	2509.294821
350.429796	2512.536283
350.820203	2511.913700
351.210548	2513.746160
351.600828	2512.427898
351.991045	2509.176354
352.381198	2512.561488
352.771288	2509.214162
353.161314	2509.930006
353.551276	2505.478667
353.941175	2508.457989
354.331010	2510.328257
354.720782	2510.776920
355.110490	2513.007631
355.500135	2511.454955
355.889717	2512.974863
356.279235	2510.892867
356.668689	2509.758607
357.058080	2509.251971
357.447408	2511.548217
357.836672	2513.549555
358.225873	2512.858917
358.615010	2512.775737
359.004084	2513.952847
359.393095	2514.419154
359.782043	2511.689369
360.170927	2515.533249
360.559748	2516.004597
360.948505	2516.186078
361.337199	2514.540141
361.725830	2517.590039
362.114398	2518.943589
362.502903	2517.012827
362.891344	2519.578775
363.279722	2515.500481
363.668037	2518.537776
364.056289	2517.705986
364.444478	2519.906450
364.832603	2519.309073
365.220665	2521.819568
365.608665	2521.088600
365.996601	2522.472397
366.384474	2521.988446
366.772284	2518.996521
367.160031	2521.859897
367.547715	2523.001718
367.935336	2519.117509
368.322893	2520.977695
368.710388	2516.919566
369.097820	2522.313601
369.485189	2519.886285
369.872495	2522.991636
370.259738	2522.495082
370.646918	2525.103879
371.034035	2524.758560
371.421090	2522.807634
371.808081	2523.173117
372.195010	2524.824095
372.581875	2525.867614
372.968678	2526.470032
373.355418	2526.812830
373.742096	2524.115813
374.128710	2525.408869
374.515262	2526.250742
374.901751	2525.328211
375.288177	2528.194107
375.674540	2526.487676
376.060841	2527.367357
376.447079	2527.327028
376.833254	2528.057995
377.219367	2526.432223
377.605417	2527.760567
377.991404	2529.335928
378.377329	2527.445495
378.763191	2527.170752
379.148991	2530.598737
379.534727	2530.475229
379.920402	2530.119827
380.306013	2532.438758
380.691563	2532.272400
381.077049	2532.106042
381.462474	2531.143182
381.847835	2530.097142
382.233134	2527.909281
382.618371	2532.063192
383.003545	2532.153933
383.388657	2531.972451
383.773706	2531.196114
384.158693	2530.321473
384.543618	2531.639735
384.928480	2534.440096
385.313280	2531.216278
385.698017	2531.236443
386.082692	2530.205527
386.467305	2535.546629
386.851856	2532.232071
387.236344	2535.125693
387.620770	2530.142513
388.005133	2529.459436
388.389435	2530.608819
388.773674	2527.327028
389.157851	2534.694674
389.541965	2534.626619
389.926018	2538.276414
390.310008	2536.418749
390.693936	2532.632842
391.077802	2533.540250
391.461606	2538.069727
391.845348	2536.159130
392.229027	2533.946063
392.612645	2533.827596
392.996200	2534.903882
393.379694	2534.724921
393.763125	2536.343132
394.146494	2535.690302
394.529801	2538.105015
394.913047	2534.303985
395.296230	2539.398071
395.679351	2535.397915
396.062410	2537.782381
396.445408	2537.585776
396.828343	2538.125180
397.211217	2539.322454
397.594028	2539.292207
397.976778	2537.812628
398.359466	2538.543595
398.742092	2538.019315
399.124656	2538.057124
399.507158	2536.065868
399.889598	2540.033256
400.271977	2541.444779
400.654294	2540.975952
401.036549	2540.562578
401.418742	2541.250695
401.800874	2540.174409
402.182944	2540.439069
402.564952	2543.115922
402.946898	2537.583256
403.328783	2540.355890
403.710606	2538.641898
404.092367	2541.215407
404.474067	2540.741538
404.855705	2541.505273
405.237282	2539.471168
405.618797	2544.020809
406.000250	2544.212373
406.381642	2542.657177
406.762972	2540.900335
407.144240	2539.992927
407.525447	2541.999306
407.906593	2537.684079
408.287677	2542.967208
408.668700	2543.655325
409.049661	2545.076931
409.430560	2541.417053
409.811399	2542.447969
410.192176	2542.984852
410.572891	2546.218752
410.953545	2543.564585
411.334138	2547.234545
411.714669	2544.882846
412.095139	2544.040974
412.475547	2545.114739
412.855894	2543.693134
413.236180	2544.814791
413.616405	2545.510470
413.996568	2544.429142
414.376670	2545.097095
414.756711	2545.318906
415.136691	2543.539379
415.516609	2543.378062
415.896466	2544.746735
416.276262	2544.628268
416.655997	2544.119112
417.035670	2546.924514
417.415283	2547.857127
417.794834	2547.216901
418.174324	2545.825542
418.553753	2547.713454
418.933121	2546.410316
419.312428	2548.295707
419.691674	2548.061294
420.070859	2549.024154
420.449983	2547.161448
420.829045	2544.736653
421.208047	2545.908721
421.586988	2547.191695
421.965867	2547.816798
422.344686	2548.479710
422.723444	2546.690100
423.102141	2549.709751
423.480777	2547.373176
423.859352	2546.816129
424.237866	2546.712785
424.616319	2547.516849
424.994712	2549.099772
425.373044	2548.071376
425.751314	2545.956612
426.129524	2546.178423
426.507673	2545.888557
426.885762	2539.922351
427.263789	2545.586087
427.641756	2548.394010
428.019662	2549.044319
428.397508	2547.141283
428.775292	2549.009031
429.153016	2547.383259
429.530679	2546.458207
429.908282	2545.535676
430.285824	2547.577343
430.663305	2549.195553
431.040726	2548.083979
431.418086	2547.055584
431.795385	2546.425439
432.172624	2547.950388
432.549802	2547.136242
432.926920	2547.625234
433.303977	2548.600697
433.680974	2549.803012
434.057910	2549.162786
434.434786	2546.748073
434.811601	2547.784030
435.188355	2547.819318
435.565050	2549.621531
435.941683	2546.680018
436.318257	2547.277394
436.694770	2547.544576
437.071222	2549.860986
437.447614	2549.364432
437.823946	2549.535831
438.200218	2547.925183
438.576429	2547.615152
438.952580	2548.232693
439.328670	2550.806202
439.704700	2547.640357
440.080670	2548.825029
440.456580	2549.959288
440.832429	2548.958619
441.208218	2551.217056
441.583947	2549.180430
441.959616	2548.731767
442.335224	2547.365615
442.710773	2548.451983
443.086261	2546.637168
443.461689	2549.586243
443.837057	2548.141952
444.212365	2547.995759
444.587612	2545.528114
444.962800	2546.095244
445.337927	2549.830739
445.712995	2545.036602
446.088002	2551.761501
446.462949	2547.632796
446.837837	2550.360060
447.212664	2549.480379
447.587431	2548.083979
447.962139	2551.595143
448.336786	2546.622044
448.711374	2548.822508
449.085901	2549.676984
449.460369	2548.099102
449.834776	2547.973074
450.209124	2549.180430
450.583412	2550.501212
450.957640	2549.656819
451.331808	2551.617828
451.705917	2551.602704
452.079965	2551.194371
452.453954	2550.791079
452.827883	2550.057591
453.201752	2551.806871
453.575562	2550.617159
453.949311	2551.310318
454.323001	2550.874258
454.696632	2549.775286
455.070202	2549.997097
455.443713	2550.075235
455.817164	2549.450132
456.190556	2549.795451
456.563888	2551.353167
456.937160	2548.930893
457.310373	2551.330482
457.683526	2551.232180
458.056619	2549.732436
458.429653	2551.411141
458.802628	2551.002807
459.175542	2550.002138
459.548398	2552.091696
459.921194	2552.273178
460.293930	2552.452139
460.666607	2548.141952
461.039224	2553.629248
461.411782	2552.631100
461.784280	2550.942313
462.156719	2552.066491
462.529099	2553.107489
462.901419	2551.358208
463.273680	2551.012889
463.645882	2548.441901
464.018024	2549.273691
464.390106	2547.496685
464.762130	2552.973898
465.134094	2553.939279
465.505999	2554.808878
465.877845	2553.445246
466.249631	2554.196378
466.621358	2554.876934
466.993026	2553.775442
467.364634	2555.257541
467.736184	2553.929197
468.107674	2552.996583
468.479105	2555.320555
468.850477	2549.898794
469.221790	2554.176213
469.593043	2553.407438
469.964238	2554.294681
470.335373	2553.016748
470.706449	2554.723179
471.077467	2552.474824
471.448425	2553.853580
471.819324	2556.966492
472.190164	2555.025648
472.560945	2553.936759
472.931667	2553.556152
473.302330	2553.241079
473.672934	2554.264434
474.043479	2554.965154
474.413965	2550.949875
474.784393	2553.730071
475.154761	2556.432130
475.525070	2555.756615
475.895321	2557.337017
476.265513	2550.508774
476.635645	2554.697973
477.005719	2554.829043
477.375734	2557.805844
477.745691	2555.731409
478.115588	2559.696277
478.485427	2555.330638
478.855207	2557.962120
479.224928	2557.331976
479.594591	2557.589075
479.964194	2558.188972
480.333739	2554.705535
480.703226	2558.982954
481.072653	2560.676781
481.442022	2560.603685
481.811333	2557.871379
482.180584	2558.050340
482.549777	2561.180897
482.918912	2557.578992
483.287988	2558.214178
483.657005	2558.574620
484.025964	2558.912377
484.394864	2558.501523
484.763706	2557.029507
485.132489	2559.451781
485.501213	2559.214847
485.869879	2558.380536
486.238487	2561.574107
486.607036	2559.111503
486.975527	2560.243242
487.343959	2560.341545
487.712333	2560.457491
488.080648	2559.086297
488.448905	2562.912533
488.817104	2558.867007
489.185244	2561.826164
489.553326	2562.494117
489.921350	2563.681309
490.289315	2562.695763
490.657222	2564.104766
491.025070	2562.957903
491.392861	2564.538305
491.760593	2568.387226
492.128267	2565.178532
492.495883	2564.601320
492.863440	2562.713407
493.230939	2566.098542
493.598380	2563.696432
493.965763	2560.805331
494.333088	2565.433110
494.700354	2561.090156
495.067563	2561.695094
495.434713	2566.151474
495.801805	2560.820454
496.168839	2565.435631
496.535815	2565.443192
496.902733	2565.980075
497.269593	2567.915878
497.636395	2566.043090
498.003139	2565.236505
498.369825	2567.436969
498.736453	2567.769685
499.103023	2566.045610
499.469535	2566.418656
499.835989	2568.334294
500.202385	2567.941084
500.568723	2565.738100
500.935003	2564.865980
501.301226	2563.212482
501.667390	2570.628019
502.033497	2570.416291
502.399546	2571.971487
502.765537	2572.163050
503.131470	2571.222875
503.497345	2571.802608
503.863163	2574.182032
504.228923	2571.422001
504.594625	2572.674727
504.960269	2572.231106
505.325856	2577.904925
505.691385	2576.478278
506.056856	2579.898701
506.422270	2577.889801
506.787625	2580.917014
507.152924	2579.359297
507.518164	2578.958526
507.883347	2579.361818
508.248472	2581.635378
508.613540	2579.371900
508.978550	2582.719227
509.343503	2583.152766
509.708398	2583.934145
510.073236	2584.861717
510.438016	2585.307859
510.802738	2586.053950
511.167403	2591.642069
511.532010	2589.396235
511.896561	2592.012594
512.261053	2592.899837
512.625488	2593.850094
512.989866	2595.801021
513.354186	2597.837647
513.718449	2595.501072
514.082655	2600.015425
514.446803	2597.620877
514.810894	2601.994078
515.174927	2601.936105
515.538904	2603.987855
515.902822	2603.481219
516.266684	2606.233689
516.630488	2607.103288
516.994235	2605.162443
517.357925	2610.001951
517.721558	2610.758124
518.085133	2612.547734
518.448651	2613.084617
518.812112	2609.858278
519.175516	2614.423043
519.538863	2614.085286
519.902152	2619.040740
520.265385	2622.365381
520.628560	2623.832357
520.991678	2623.565176
521.354739	2622.345216
521.717743	2628.823099
522.080690	2629.773357
522.443580	2631.537760
522.806413	2630.831999
523.169189	2632.858543
523.531908	2637.451034
523.894569	2637.486322
524.257174	2640.962197
524.619722	2641.236940
524.982213	2643.956643
525.344647	2645.569812
525.707025	2647.427477
526.069345	2648.697848
526.431608	2649.663229
526.793815	2651.412509
527.155964	2654.469969
527.518057	2650.842859
527.880093	2654.583395
528.242072	2658.076915
528.603995	2657.114054
528.965860	2661.262924
529.327669	2662.384581
529.689421	2663.397853
530.051117	2666.465395
530.412755	2668.784326
530.774337	2670.115190
531.135862	2670.914213
531.497331	2674.221210
531.858743	2673.510407
532.220098	2677.918896
532.581396	2678.470903
532.942638	2677.036694
533.303824	2682.226562
533.664953	2680.623475
534.026025	2684.336285
534.387040	2685.639423
534.747999	2688.495237
535.108902	2689.490865
535.469748	2690.035310
535.830537	2694.395908
536.191270	2697.745754
536.551947	2696.155270
536.912567	2694.491690
537.273131	2699.726928
537.633638	2697.297092
537.994089	2706.146837
538.354483	2704.309337
538.714821	2707.107177
539.075103	2711.513146
539.435328	2714.200081
539.795497	2711.619010
540.155609	2715.067159
540.515665	2718.401882
540.875665	2718.832901
541.235609	2721.202243
541.595496	2723.997563
541.955328	2727.173490
542.315102	2726.618963
542.674821	2727.367574
543.034483	2728.401011
543.394090	2731.150960
543.753640	2733.895869
544.113134	2737.737228
544.472571	2736.761765
544.831953	2745.729977
545.191278	2744.126890
545.550548	2742.445666
545.909761	2745.145203
546.268918	2750.947572
546.628019	2752.817840
546.987064	2752.951430
547.346053	2751.849938
547.704986	2758.358068
548.063863	2760.213212
548.422684	2760.866042
548.781449	2762.708583
549.140158	2769.221754
549.498811	2769.715787
549.857408	2767.359048
550.215949	2777.022940
550.574434	2776.256684
550.932864	2781.121398
551.291237	2788.156328
551.649555	2791.327214
552.007817	2793.691515
552.366022	2791.891823
552.724173	2796.512041
553.082267	2804.219965
553.440305	2811.322951
553.798288	2809.147693
554.156215	2816.961481
554.514086	2819.797130
554.871902	2820.487768
555.229661	2829.518995
555.587365	2829.645024
555.945014	2840.884277
556.302606	2843.939216
556.660143	2850.419619
557.017625	2856.156452
557.375050	2861.043851
557.732421	2872.174719
558.089735	2878.622354
558.446994	2888.739950
558.804197	2898.255128
559.161345	2901.433576
559.518437	2907.578742
559.875474	2916.274733
560.232455	2929.434665
560.589381	2933.097063
560.946251	2941.656942
561.303065	2959.653861
561.659825	2965.854481
562.016528	2974.434524
562.373177	2978.535503
562.729770	2998.223729
563.086307	3002.692712
563.442789	3020.152749
563.799216	3032.465767
564.155587	3044.148641
564.511904	3057.237997
564.868164	3068.709142
565.224370	3088.901484
565.580520	3100.186107
565.936615	3118.515743
566.292654	3128.797176
566.648638	3149.846514
567.004567	3168.980213
567.360441	3185.938655
567.716260	3201.467929
568.072023	3223.200343
568.427732	3239.238774
568.783385	3255.158738
569.138982	3279.888118
569.494525	3304.788898
569.850013	3317.336330
570.205445	3344.011595
570.560823	3363.775439
570.916145	3384.915518
571.271412	3412.243613
571.626625	3429.847322
571.981782	3455.864717
572.336884	3473.342397
572.691931	3506.548477
573.046923	3528.926159
573.401860	3549.005075
573.756743	3581.659149
574.111570	3616.266670
574.466342	3640.554950
574.821059	3673.662728
575.175722	3690.643854
575.530330	3727.151890
575.884882	3748.075199
576.239380	3778.274232
576.593823	3813.403512
576.948211	3846.158409
577.302544	3869.786297
577.656823	3903.138571
578.011047	3948.019964
578.365216	3977.031804
578.719330	4007.417359
579.073389	4044.179973
579.427394	4087.516252
579.781344	4125.287098
580.135239	4157.182478
580.489080	4199.165207
580.842866	4221.815112
581.196597	4283.322230
581.550273	4330.731761
581.903895	4374.519223
582.257463	4441.737969
582.610975	4462.608346
582.964434	4522.822408
583.317837	4552.842479
583.671186	4593.499385
584.024481	4655.606400
584.377721	4684.560267
584.730906	4743.077981
585.084037	4801.688956
585.437113	4837.473587
585.790135	4891.184560
586.143103	4922.631278
586.496016	4981.700998
586.848874	5042.872880
587.201679	5104.866469
587.554428	5125.978821
587.907124	5200.575295
588.259765	5244.037603
588.612352	5313.476977
588.964884	5333.455070
589.317362	5413.193521
589.669786	5472.099403
590.022155	5518.125138
590.374470	5610.481597
590.726731	5643.614581
591.078937	5652.048431
591.431090	5734.627572
591.783188	5762.099340
592.135232	5806.181710
592.487222	5889.663218
592.839157	5967.415454
593.191038	5998.826883
593.542866	6042.838677
593.894639	6054.587086
594.246358	6147.954297
594.598022	6210.797320
594.949633	6239.715899
595.301190	6297.873171
595.652692	6357.580597
596.004141	6470.688966
596.355535	6435.473986
596.706876	6496.731567
597.058162	6529.766248
597.409395	6645.251521
597.760573	6736.314924
598.111698	6763.511949
598.462768	6823.746175
598.813785	6890.637246
599.164748	6921.743686
599.515657	7020.353696
599.866511	7039.477313
600.217312	7189.134047
600.568060	7139.140925
600.918753	7310.325906
601.269392	7374.527521
601.619978	7411.292656
601.970510	7512.856783
602.320988	7612.336392
602.671412	7720.892599
603.021783	7784.731251
603.372100	7805.117677
603.722363	7900.014877
604.072572	7980.789286
604.422728	8060.442037
604.772830	8106.109850
605.122878	8208.198256
605.472872	8268.694623
605.822813	8393.241370
606.172701	8438.052186
606.522534	8570.080006
606.872314	8687.254065
607.222041	8749.696317
607.571714	8880.688179
607.921333	8890.036999
608.270899	9008.912448
608.620411	9161.493051
608.969870	9207.470895
609.319276	9311.666504
609.668627	9403.992716
610.017926	9563.338548
610.367171	9680.212659
610.716362	9789.724164
611.065500	9861.421975
611.414585	10005.273820
611.763616	10130.871648
612.112594	10211.734276
612.461518	10335.577782
612.810389	10504.673206
613.159207	10575.753475
613.507971	10665.859059
613.856682	10870.731551
614.205340	10943.286358
614.553945	11190.234841
614.902496	11158.604121
615.250994	11350.961949
615.599439	11469.807151
615.947830	11609.681526
616.296169	11727.697458
616.644454	11849.254801
616.992686	11993.225113
617.340864	12218.940256
617.688990	12226.353273
618.037063	12506.217970
618.385082	12593.006474
618.733048	12807.121922
619.080961	12896.378072
619.428821	13019.387267
619.776628	13135.464875
620.124382	13193.806149
620.472083	13349.640817
620.819731	13488.643073
621.167326	13482.762567
621.514868	13587.870624
621.862357	13553.316035
622.209793	13675.657277
622.557176	13668.566894
622.904506	13705.447976
623.251783	13706.030229
623.599007	13727.560997
623.946179	13805.456907
624.293297	13841.874202
624.640363	13793.748827
624.987376	13851.515409
625.334336	13893.767840
625.681243	13888.051171
626.028097	13961.462974
626.374899	14021.301470
626.721647	14120.266882
627.068343	14163.404035
627.414987	14181.302652
627.761577	14209.782651
628.108115	14430.592751
628.454600	14296.838337
628.801032	14476.351304
629.147412	14559.714345
629.493739	14642.797602
629.840014	14606.491212
630.186236	14855.249469
630.532405	14780.053097
630.878521	14973.043590
631.224585	15005.369989
631.570597	14988.582947
631.916556	15156.375232
632.262462	15228.713269
632.608316	15313.051773
632.954117	15377.697009
633.299866	15469.478777
633.645562	15538.020825
633.991206	15445.518172
634.336797	15395.966151
634.682336	15463.807479
635.027823	15475.334077
635.373257	15521.243865
635.718639	15491.826212
636.063968	15561.706686
636.409245	15398.564866
636.754470	15481.829604
637.099642	15495.821326
637.444762	15366.654362
637.789829	15519.648340
638.134845	15476.498583
638.479808	15533.332552
638.824719	15607.760147
639.169577	15486.890922
639.514383	15627.269413
639.859137	15568.519806
640.203839	15730.613067
640.548489	15693.585792
640.893086	15800.554035
641.237632	15769.750064
641.582125	15909.717701
641.926566	15911.068730
642.270955	16021.641399
642.615292	16084.343270
642.959576	16130.956299
