Dividing Wavelength (nm)	Counts (n)	Blue Motor Position (mm): 49.700000	Red Motor Position (mm): 0.000000	
326.493990	2128.899434
326.888308	2128.899434
327.282561	2128.899434
327.676750	2095.721080
328.070874	2094.390215
328.464933	2097.886255
328.858929	2104.774992
329.252859	2113.811260
329.646726	2128.513786
330.040528	2138.185239
330.434265	2154.435399
330.827938	2173.165806
331.221547	2190.620801
331.615091	2209.676363
332.008571	2228.626060
332.401986	2249.264544
332.795338	2269.255239
333.188625	2289.770215
333.581847	2306.292597
333.975006	2325.832109
334.368100	2342.409943
334.761129	2361.059692
335.154095	2375.805067
335.546996	2396.425907
335.939833	2422.385328
336.332606	2439.618513
336.725315	2455.097376
337.117960	2459.279013
337.510540	2469.575570
337.903056	2480.325830
338.295508	2487.257417
338.687896	2495.797131
339.080220	2505.455982
339.472480	2512.891684
339.864676	2517.625328
340.256807	2523.213447
340.648875	2524.350227
341.040879	2526.313756
341.432818	2527.183355
341.824694	2527.558921
342.216506	2530.812986
342.608253	2532.937832
342.999937	2528.652852
343.391557	2530.175280
343.783113	2530.497914
344.174605	2528.693181
344.566033	2523.611698
344.957397	2524.430885
345.348697	2523.876358
345.739934	2522.681605
346.131106	2519.682118
346.522215	2518.875534
346.913260	2518.958713
347.304241	2513.607528
347.695159	2513.539472
348.086012	2512.763135
348.476802	2507.253153
348.867528	2508.868843
349.258191	2506.295334
349.648789	2504.699809
350.039324	2503.142093
350.429796	2503.852895
350.820203	2502.143944
351.210548	2500.389622
351.600828	2501.889366
351.991045	2499.250322
352.381198	2500.553460
352.771288	2497.765702
353.161314	2499.131855
353.551276	2498.433655
353.941175	2493.941987
354.331010	2497.773264
354.720782	2498.970538
355.110490	2495.996257
355.500135	2500.066989
355.889717	2495.345948
356.279235	2500.772750
356.668689	2496.102121
357.058080	2499.603202
357.447408	2500.742503
357.836672	2496.102121
358.225873	2495.625732
358.615010	2497.649755
359.004084	2501.907010
359.393095	2499.242760
359.782043	2502.610251
360.170927	2503.505056
360.559748	2504.041938
360.948505	2506.640653
361.337199	2507.565705
361.725830	2508.026971
362.114398	2507.860613
362.502903	2508.122753
362.891344	2508.904131
363.279722	2507.996724
363.668037	2510.829852
364.056289	2509.405726
364.444478	2510.025788
364.832603	2509.524193
365.220665	2512.125429
365.608665	2512.246416
365.996601	2511.986797
366.384474	2511.906138
366.772284	2515.404699
367.160031	2514.923269
367.547715	2516.808661
367.935336	2518.527694
368.322893	2524.650175
368.710388	2523.828467
369.097820	2530.790301
369.485189	2532.900024
369.872495	2538.828421
370.259738	2545.291180
370.646918	2550.470965
371.034035	2557.324414
371.421090	2569.178687
371.808081	2578.645974
372.195010	2587.034454
372.581875	2598.440065
372.968678	2610.493464
373.355418	2622.836729
373.742096	2640.332053
374.128710	2654.744712
374.515262	2668.098729
374.901751	2683.484330
375.288177	2698.592668
375.674540	2718.207798
376.060841	2737.853174
376.447079	2756.258427
376.833254	2776.675100
377.219367	2788.743622
377.605417	2825.644869
377.991404	2837.027794
378.377329	2859.758357
378.763191	2876.535317
379.148991	2912.740884
379.534727	2941.906479
379.920402	2970.346149
380.306013	2979.982314
380.691563	3029.665406
381.077049	3052.269940
381.462474	3070.735686
381.847835	3108.294803
382.233134	3132.885552
382.618371	3131.756333
383.003545	3200.721838
383.388657	3210.156358
383.773706	3243.095257
384.158693	3261.540839
384.543618	3284.992287
384.928480	3322.528718
385.313280	3367.062271
385.698017	3366.578320
386.082692	3421.451280
386.467305	3424.430602
386.851856	3457.404789
387.236344	3481.113336
387.620770	3510.956967
388.005133	3538.811862
388.389435	3564.554514
388.773674	3575.662697
389.157851	3619.772793
389.541965	3633.154536
389.926018	3600.767643
390.310008	3670.925381
390.693936	3690.842980
391.077802	3728.606263
391.461606	3720.263154
391.845348	3783.113739
392.229027	3783.522073
392.612645	3797.024803
392.996200	3873.446175
393.379694	3913.538472
393.763125	3977.334273
394.146494	3947.273873
394.529801	4010.953728
394.913047	4054.242117
395.296230	4019.201056
395.679351	4074.436979
396.062410	4099.476390
396.445408	4082.465016
396.828343	4113.662197
397.211217	4136.349910
397.594028	4058.678332
397.976778	4124.848517
398.359466	4151.107888
398.742092	4180.129810
399.124656	4102.675002
399.507158	4184.208104
399.889598	4207.125189
400.271977	4268.160959
400.654294	4240.384202
401.036549	4249.944750
401.418742	4220.080955
401.800874	4320.107529
402.182944	4340.556970
402.564952	4403.896547
402.946898	4395.840783
403.328783	4387.260740
403.710606	4299.711021
404.092367	4493.457687
404.474067	4461.426195
404.855705	4470.986743
405.237282	4396.289446
405.618797	4508.039224
406.000250	4539.692629
406.381642	4619.909990
406.762972	4584.180812
407.144240	4593.101133
407.525447	4594.943675
407.906593	4653.100947
408.287677	4693.606618
408.668700	4625.258654
409.049661	4672.511909
409.430560	4714.053538
409.811399	4646.060975
410.192176	4805.462260
410.572891	4742.498248
410.953545	4848.798539
411.334138	4725.239858
411.714669	4794.583450
412.095139	4688.757028
412.475547	4828.679294
412.855894	4810.934432
413.236180	4821.972039
413.616405	4776.382364
413.996568	4864.660529
414.376670	4808.802024
414.756711	4759.494498
415.136691	4791.783089
415.516609	4868.340572
415.896466	4904.808279
416.276262	4941.553249
416.655997	4919.435187
417.035670	5105.279844
417.415283	5190.223286
417.794834	5136.431654
418.174324	5092.419860
418.553753	4997.290767
418.933121	5182.006205
419.312428	5246.371658
419.691674	5189.930899
420.070859	5321.810004
420.449983	5229.314913
420.829045	5343.446637
421.208047	5246.195217
421.586988	5325.159851
421.965867	5335.864741
422.344686	5467.713599
422.723444	5323.123225
423.102141	5139.718486
423.480777	5436.055153
423.859352	5208.104259
424.237866	5469.609073
424.616319	5456.431497
424.994712	5566.883178
425.373044	5444.617553
425.751314	5587.463688
426.129524	5385.076485
426.507673	5583.587041
426.885762	5667.731461
427.263789	5596.343681
427.641756	5481.881762
428.019662	5601.420123
428.397508	5608.260969
428.775292	5556.115273
429.153016	5657.966746
429.530679	5582.808183
429.908282	5666.546789
430.285824	5536.593405
430.663305	5814.113965
431.040726	5542.244538
431.418086	5546.045568
431.795385	5650.906610
432.172624	5662.894473
432.549802	5660.678886
432.926920	5670.244476
433.303977	5683.537998
433.680974	5718.455551
434.057910	5733.110185
434.434786	5740.530763
434.811601	5707.307039
435.188355	5939.505106
435.565050	5821.668134
435.941683	5799.101409
436.318257	6018.305902
436.694770	5993.553837
437.071222	6035.665115
437.447614	5963.432942
437.823946	5879.064192
438.200218	6029.255288
438.576429	5893.318054
438.952580	5992.895966
439.328670	6039.667791
439.704700	5949.171518
440.080670	5937.128202
440.456580	6206.124171
440.832429	6088.027580
441.208218	5934.663077
441.583947	6087.238640
441.959616	6093.222489
442.335224	6018.232805
442.710773	6157.293034
443.086261	6183.532240
443.461689	5976.928111
443.837057	6127.446883
444.212365	6284.105780
444.587612	6178.556621
444.962800	6326.690927
445.337927	6307.146373
445.712995	5919.060706
446.088002	6492.134034
446.462949	6328.959446
446.837837	6259.457058
447.212664	6427.942502
447.587431	6573.798206
447.962139	7117.653006
448.336786	8039.725415
448.711374	7783.508771
449.085901	6861.506938
449.460369	6775.688856
449.834776	6716.102417
450.209124	7111.361646
450.583412	7249.554797
450.957640	7399.408136
451.331808	7164.303844
451.705917	6717.607202
452.079965	6638.234234
452.453954	6852.170721
452.827883	6730.759572
453.201752	6820.562687
453.575562	6618.624146
453.949311	6820.275341
454.323001	6712.117385
454.696632	6785.735875
455.070202	6927.994716
455.443713	7079.360402
455.817164	7185.519540
456.190556	7262.462671
456.563888	7342.168355
456.937160	7379.871144
457.310373	7041.660133
457.683526	7061.030766
458.056619	6957.465302
458.429653	6942.626665
458.802628	6877.346244
459.175542	6983.830536
459.548398	7342.838828
459.921194	7506.177254
460.293930	7503.172726
460.666607	8035.997482
461.039224	8349.516922
461.411782	8471.613668
461.784280	8490.245773
462.156719	8376.466930
462.529099	8259.829754
462.901419	7845.852721
463.273680	7744.361691
463.645882	7750.390911
464.018024	7624.195707
464.390106	7787.072867
464.762130	8165.950866
465.134094	8646.375348
465.505999	9668.590278
465.877845	10888.385672
466.249631	11539.465814
466.621358	11154.329222
466.993026	10526.282112
467.364634	10269.354665
467.736184	9907.062061
468.107674	9567.149660
468.479105	9605.865722
468.850477	9368.863435
469.221790	9135.402560
469.593043	8811.826018
469.964238	8671.243360
470.335373	8682.762397
470.706449	8739.863547
471.077467	8725.559272
471.448425	10042.895952
471.819324	11109.478077
472.190164	11131.848197
472.560945	9875.204489
472.931667	9089.560827
473.302330	8952.348181
473.672934	8602.171991
474.043479	8962.183472
474.413965	8900.825068
474.784393	8785.853993
475.154761	8943.503477
475.525070	9032.893217
475.895321	8855.689097
476.265513	9026.591774
476.635645	9200.209113
477.005719	9201.844967
477.375734	9320.687649
477.745691	9558.937621
478.115588	9686.264564
478.485427	9930.115258
478.855207	10475.784873
479.224928	11292.671087
479.594591	11914.696539
479.964194	11729.066131
480.333739	11662.225472
480.703226	11581.766136
481.072653	11676.232318
481.442022	11908.659757
481.811333	12106.462032
482.180584	11907.903584
482.549777	11612.885179
482.918912	11434.831625
483.287988	11455.938936
483.657005	11466.835390
484.025964	11153.255457
484.394864	11280.247163
484.763706	11246.027811
485.132489	11006.578044
485.501213	10982.093160
485.869879	11052.618902
486.238487	10886.613706
486.607036	11010.260607
486.975527	10779.048086
487.343959	10972.265431
487.712333	11028.007989
488.080648	10953.393871
488.448905	10988.215641
488.817104	10931.427043
489.185244	11194.645850
489.553326	11349.787360
489.921350	11892.613765
490.289315	12953.048203
490.657222	13298.831027
491.025070	13209.716030
491.392861	13081.537132
491.760593	12706.503012
492.128267	12351.998991
492.495883	12012.900737
492.863440	11682.349758
493.230939	11347.788542
493.598380	11277.282965
493.965763	11149.772019
494.333088	11046.856863
494.700354	10970.117899
495.067563	11033.525532
495.434713	10854.589776
495.801805	10984.127266
496.168839	10906.755636
496.535815	10849.692295
496.902733	10847.446461
497.269593	10775.257138
497.636395	10876.244053
498.003139	10869.735923
498.369825	10729.594367
498.736453	10895.730633
499.103023	10824.284880
499.469535	10844.837664
499.835989	10845.545946
500.202385	10806.524895
500.568723	10652.530248
500.935003	10873.872190
501.301226	10687.394868
501.667390	10937.909967
502.033497	11033.089472
502.399546	10897.936138
502.765537	10807.389453
503.131470	10876.130627
503.497345	11050.751155
503.863163	10660.714561
504.228923	10971.244597
504.594625	11046.325022
504.960269	10789.294231
505.325856	11001.012610
505.691385	10799.346292
506.056856	10954.046701
506.422270	10974.516306
506.787625	10860.649243
507.152924	10983.509724
507.518164	10961.915942
507.883347	10883.563808
508.248472	10807.361727
508.613540	11040.709176
508.978550	10920.016392
509.343503	10899.370346
509.708398	11016.912410
510.073236	11128.909204
510.438016	11133.703341
510.802738	11081.005640
511.167403	11136.924639
511.532010	11026.725016
511.896561	11262.499781
512.261053	11335.233549
512.625488	11206.923580
512.989866	11183.905672
513.354186	11177.160608
513.718449	11074.086656
514.082655	11278.273551
514.446803	11166.170893
514.810894	11290.407609
515.174927	11154.760241
515.538904	11175.595330
515.902822	11325.604945
516.266684	11216.889942
516.630488	11150.296299
516.994235	11208.193951
517.357925	11272.531677
517.721558	11359.552075
518.085133	11377.075126
518.448651	11387.270859
518.812112	11268.602098
519.175516	11292.870212
519.538863	11405.025803
519.902152	11317.181177
520.265385	11486.475726
520.628560	11397.738815
520.991678	11377.478418
521.354739	11428.525142
521.717743	11362.496109
522.080690	11357.288597
522.443580	11480.023049
522.806413	11436.280957
523.169189	11464.849176
523.531908	11528.536593
523.894569	11343.266627
524.257174	11348.113697
524.619722	11474.747481
524.982213	11418.387381
525.344647	11467.165586
525.707025	11421.764954
526.069345	11513.897082
526.431608	11429.740060
526.793815	11532.130936
527.155964	11331.190543
527.518057	11377.924560
527.880093	11326.497229
528.242072	11399.102447
528.603995	11306.866976
528.965860	11222.596528
529.327669	11278.944025
529.689421	11220.701054
530.051117	11199.775224
530.412755	11291.461210
530.774337	11188.455313
531.135862	11171.885041
531.497331	11196.324554
531.858743	11048.444827
532.220098	11208.715711
532.581396	11079.972203
532.942638	11067.946531
533.303824	11029.227948
533.664953	11044.255628
534.026025	10955.682555
534.387040	11054.862216
534.747999	11053.173429
535.108902	11113.440423
535.469748	10875.923939
535.830537	10982.582152
536.191270	10955.140631
536.551947	10987.499797
536.912567	10984.364200
537.273131	10908.625904
537.633638	10883.132789
537.994089	10872.281706
538.354483	10821.335805
538.714821	10972.220060
539.075103	10975.955555
539.435328	10938.396438
539.795497	10764.343040
540.155609	10923.706516
540.515665	11010.754640
540.875665	10742.141799
541.235609	10816.760958
541.595496	10809.297530
541.955328	10968.262754
542.315102	10852.152378
542.674821	10803.953907
543.034483	10806.499689
543.394090	10804.989864
543.753640	10731.517567
544.113134	10961.739501
544.472571	10808.400204
544.831953	10949.126534
545.191278	10758.815415
545.550548	10784.767275
545.909761	10921.627040
546.268918	10897.671477
546.628019	10981.891514
546.987064	10847.970741
547.346053	10765.817578
547.704986	10865.430778
548.063863	10858.053049
548.422684	10853.924344
548.781449	10765.096693
549.140158	10862.312824
549.498811	10738.860008
549.857408	10598.516805
550.215949	10827.362504
550.574434	10682.830103
550.932864	10779.285020
551.291237	10838.639566
551.649555	10783.270052
552.007817	10802.126488
552.366022	10761.882957
552.724173	10757.734088
553.082267	10739.374205
553.440305	10877.252283
553.798288	10680.017139
554.156215	10829.993987
554.514086	10809.398353
554.871902	10656.243058
555.229661	10690.782523
555.587365	10663.320838
555.945014	10558.369056
556.302606	10687.657008
556.660143	10578.710112
557.017625	10743.439896
557.375050	10635.100458
557.732421	10770.289081
558.089735	10684.554178
558.446994	10678.184680
558.804197	10716.326050
559.161345	10716.227747
559.518437	10570.281302
559.875474	10656.434622
560.232455	10688.476195
560.589381	10637.119441
560.946251	10628.642740
561.303065	10745.267314
561.659825	10674.691160
562.016528	10605.050140
562.373177	10483.361728
562.729770	10604.389749
563.086307	10515.615030
563.442789	10612.526172
563.799216	10491.437656
564.155587	10538.859790
564.511904	10493.176854
564.868164	10479.066665
565.224370	10500.660447
565.580520	10419.671790
565.936615	10426.668912
566.292654	10296.281988
566.648638	10431.944479
567.004567	10380.900276
567.360441	10373.144461
567.716260	10286.189598
568.072023	10377.477332
568.427732	10327.315331
568.783385	10227.810516
569.138982	10309.293206
569.494525	10322.846348
569.850013	10196.530156
570.205445	10278.627867
570.560823	10177.668679
570.916145	10090.802037
571.271412	10153.781172
571.626625	10104.952555
571.981782	10079.378782
572.336884	10056.784330
572.691931	10056.920442
573.046923	10014.058031
573.401860	9958.522160
573.756743	9897.559486
574.111570	9948.833062
574.466342	9926.251213
574.821059	9955.936048
575.175722	9850.797743
575.530330	9858.959371
575.884882	9845.428914
576.239380	9770.613150
576.593823	9749.362166
576.948211	9767.303633
577.302544	9646.815014
577.656823	9664.753960
578.011047	9663.216408
578.365216	9639.732193
578.719330	9562.907529
579.073389	9570.658303
579.427394	9522.853041
579.781344	9500.876131
580.135239	9453.514491
580.489080	9462.467580
580.842866	9364.359164
581.196597	9368.697077
581.550273	9404.877438
581.903895	9370.711018
582.257463	9439.981513
582.610975	9317.549530
582.964434	9344.943160
583.317837	9265.416438
583.671186	9248.909180
584.024481	9242.365762
584.377721	9159.612701
584.730906	9137.189649
585.084037	9169.584103
585.437113	9095.801776
585.790135	9124.979974
586.143103	9025.147484
586.496016	8997.597578
586.848874	9057.236949
587.201679	9048.114981
587.554428	8935.546015
587.907124	8972.369124
588.259765	8946.311399
588.612352	8951.090413
588.964884	8825.674067
589.317362	8844.255760
589.669786	8836.880552
590.022155	8888.428871
590.374470	8900.671313
590.726731	8841.838527
591.078937	8695.541722
591.431090	8803.462743
591.783188	8677.857354
592.135232	8664.609202
592.487222	8672.435593
592.839157	8723.321000
593.191038	8659.910847
593.542866	8596.059592
593.894639	8497.557966
594.246358	8555.853869
594.598022	8571.373062
594.949633	8466.975807
595.301190	8440.227444
595.652692	8470.524779
596.004141	8577.727436
596.355535	8360.579734
596.706876	8335.510076
597.058162	8274.769213
597.409395	8351.535904
597.760573	8416.067714
598.111698	8322.778642
598.462768	8306.437742
598.813785	8272.263760
599.164748	8248.315758
599.515657	8233.346052
599.866511	8135.968604
600.217312	8270.222092
600.568060	8129.861246
600.918753	8225.701142
601.269392	8193.727624
601.619978	8112.965819
601.970510	8178.921755
602.320988	8174.009151
602.671412	8225.416317
603.021783	8164.993047
603.372100	8141.428173
603.722363	8141.400447
604.072572	8116.663505
604.422728	8126.125751
604.772830	8058.758292
605.122878	8061.062099
605.472872	8056.893065
605.822813	8085.579751
606.172701	8031.440279
606.522534	8105.152030
606.872314	8109.074048
607.222041	8075.116836
607.571714	8128.812686
607.921333	8093.741379
608.270899	8095.412521
608.620411	8187.731172
608.969870	8091.682067
609.319276	8085.443639
609.668627	8100.062986
610.017926	8136.021536
610.367171	8179.320006
610.716362	8155.069536
611.065500	8148.838670
611.414585	8177.003596
611.763616	8165.151843
612.112594	8145.554358
612.461518	8162.553129
612.810389	8220.173517
613.159207	8159.846029
613.507971	8108.401054
613.856682	8228.504024
614.205340	8182.760594
614.553945	8263.739169
614.902496	8159.687233
615.250994	8217.310142
615.599439	8198.410856
615.947830	8212.770583
616.296169	8186.967437
616.644454	8197.135444
616.992686	8200.906227
617.340864	8249.800378
617.688990	8156.423086
618.037063	8248.678722
618.385082	8197.533695
618.733048	8281.877240
619.080961	8220.566727
619.428821	8239.675221
619.776628	8246.231241
620.124382	8187.814351
620.472083	8175.090478
620.819731	8202.128707
621.167326	8093.819517
621.514868	8105.583049
621.862357	7993.775298
622.209793	8010.015375
622.557176	7949.450953
622.904506	7911.387721
623.251783	7846.772731
623.599007	7806.922410
623.946179	7806.186402
624.293297	7761.461285
624.640363	7679.958430
624.987376	7660.224833
625.334336	7613.059798
625.681243	7554.932773
626.028097	7545.301649
626.374899	7524.295161
626.721647	7514.553131
627.068343	7448.282123
627.414987	7426.582476
627.761577	7373.589867
628.108115	7415.534787
628.454600	7306.015720
628.801032	7357.042279
629.147412	7319.150446
629.493739	7309.610062
629.840014	7245.453818
630.186236	7300.919113
630.532405	7181.582399
630.878521	7236.651963
631.224585	7187.142792
631.570597	7115.374405
631.916556	7147.146277
632.262462	7144.870196
632.608316	7109.796368
632.954117	7084.686381
633.299866	7075.017448
633.645562	7064.667959
633.991206	6984.755588
634.336797	6930.003616
634.682336	6876.983281
635.027823	6847.348858
635.373257	6840.167734
635.718639	6774.559637
636.063968	6790.018336
636.409245	6681.815009
636.754470	6677.212436
637.099642	6640.066694
637.444762	6577.563948
637.789829	6595.112204
638.134845	6527.137286
638.479808	6522.774167
638.824719	6521.632346
639.169577	6451.071316
639.514383	6469.584953
639.859137	6399.354118
640.203839	6406.240334
640.548489	6389.864146
