Dividing Wavelength (nm)	Counts (n)	Blue Motor Position (mm): 40.800000	Red Motor Position (mm): 0.000000	
326.493990	2128.685185
326.888308	2128.685185
327.282561	2128.685185
327.676750	2096.126893
328.070874	2095.322829
328.464933	2096.643611
328.858929	2104.117122
329.252859	2113.516353
329.646726	2125.037910
330.040528	2136.677934
330.434265	2155.763743
330.827938	2174.042967
331.221547	2190.058712
331.615091	2209.066383
332.008571	2231.355845
332.401986	2247.979049
332.795338	2267.697523
333.188625	2286.952210
333.581847	2305.607000
333.975006	2323.372026
334.368100	2343.345077
334.761129	2359.101204
335.154095	2374.529655
335.546996	2399.601834
335.939833	2425.742737
336.332606	2439.830241
336.725315	2449.181582
337.117960	2460.735906
337.510540	2470.220837
337.903056	2481.024030
338.295508	2487.464104
338.687896	2494.735968
339.080220	2505.118225
339.472480	2512.783299
339.864676	2512.853875
340.256807	2521.139012
340.648875	2523.888961
341.040879	2526.754857
341.432818	2528.161339
341.824694	2527.173273
342.216506	2530.565969
342.608253	2530.215609
342.999937	2529.840043
343.391557	2527.092614
343.783113	2526.636390
344.174605	2526.578417
344.566033	2524.808972
344.957397	2524.763601
345.348697	2520.118178
345.739934	2517.852179
346.131106	2518.184896
346.522215	2517.448887
346.913260	2514.043588
347.304241	2514.295645
347.695159	2509.246930
348.086012	2510.083761
348.476802	2509.148627
348.867528	2506.945643
349.258191	2502.479181
349.648789	2503.978924
350.039324	2499.867863
350.429796	2503.943636
350.820203	2498.471463
351.210548	2500.838285
351.600828	2498.078253
351.991045	2498.647904
352.381198	2496.137409
352.771288	2496.434837
353.161314	2496.152533
353.551276	2493.079949
353.941175	2496.492811
354.331010	2494.725886
354.720782	2492.664054
355.110490	2493.362254
355.500135	2492.464929
355.889717	2494.773777
356.279235	2496.066833
356.668689	2496.860815
357.058080	2496.374343
357.447408	2495.242604
357.836672	2489.520895
358.225873	2493.442913
358.615010	2493.894096
359.004084	2496.946514
359.393095	2497.566576
359.782043	2500.147647
360.170927	2497.964827
360.559748	2501.007164
360.948505	2503.147134
361.337199	2502.232164
361.725830	2502.519510
362.114398	2504.452792
362.502903	2501.861639
362.891344	2501.990189
363.279722	2503.535303
363.668037	2504.808194
364.056289	2504.694768
364.444478	2507.296003
364.832603	2506.605365
365.220665	2508.926817
365.608665	2509.151148
365.996601	2510.411436
366.384474	2507.641322
366.772284	2507.578308
367.160031	2509.403206
367.547715	2509.249450
367.935336	2507.903462
368.322893	2513.143742
368.710388	2508.649553
369.097820	2515.346726
369.485189	2511.916221
369.872495	2511.822959
370.259738	2514.068793
370.646918	2509.854389
371.034035	2512.926972
371.421090	2515.031654
371.808081	2514.623320
372.195010	2514.278001
372.581875	2516.370080
372.968678	2517.431243
373.355418	2514.595594
373.742096	2515.810512
374.128710	2518.515091
374.515262	2517.143897
374.901751	2516.765811
375.288177	2517.219515
375.674540	2517.743795
376.060841	2517.380832
376.447079	2518.250431
376.833254	2521.771677
377.219367	2516.654905
377.605417	2520.181192
377.991404	2515.699607
378.377329	2516.647344
378.763191	2516.874196
379.148991	2524.478776
379.534727	2522.674043
379.920402	2524.141019
380.306013	2523.556245
380.691563	2524.907274
381.077049	2522.535411
381.462474	2526.822913
381.847835	2523.667150
382.233134	2525.350896
382.618371	2524.877027
383.003545	2526.921215
383.388657	2526.210412
383.773706	2528.173942
384.158693	2526.787625
384.543618	2529.812317
384.928480	2533.202493
385.313280	2536.345652
385.698017	2536.083512
386.082692	2542.405119
386.467305	2547.700851
386.851856	2552.202602
387.236344	2560.946483
387.620770	2569.377813
388.005133	2581.416088
388.389435	2593.504775
388.773674	2602.858636
389.157851	2619.343209
389.541965	2633.022380
389.926018	2643.334060
390.310008	2666.372133
390.693936	2683.111285
391.077802	2707.729760
391.461606	2727.453274
391.845348	2758.385794
392.229027	2774.898093
392.612645	2799.889614
392.996200	2839.815552
393.379694	2877.160420
393.763125	2916.993097
394.146494	2938.372630
394.529801	2981.073724
394.913047	3030.749254
395.296230	3046.986811
395.679351	3099.795418
396.062410	3138.773619
396.445408	3164.513751
396.828343	3212.452603
397.211217	3257.702000
397.594028	3254.757966
397.976778	3320.366063
398.359466	3371.498487
398.742092	3419.757452
399.124656	3412.755290
399.507158	3492.002228
399.889598	3538.509393
400.271977	3612.778192
400.654294	3629.933238
401.036549	3669.591996
401.418742	3686.404244
401.800874	3788.979122
402.182944	3833.714321
402.564952	3913.505704
402.946898	3935.512861
403.328783	3961.699135
403.710606	3927.353754
404.092367	4107.559880
404.474067	4106.279427
404.855705	4138.416783
405.237282	4105.286320
405.618797	4216.468968
406.000250	4272.047689
406.381642	4363.524467
406.762972	4352.575081
407.144240	4382.222106
407.525447	4402.479983
407.906593	4479.604596
408.287677	4530.815157
408.668700	4481.313547
409.049661	4544.373340
409.430560	4595.795630
409.811399	4539.674985
410.192176	4703.580541
410.572891	4658.033716
410.953545	4766.715951
411.334138	4659.394827
411.714669	4731.485848
412.095139	4639.585613
412.475547	4782.474598
412.855894	4770.005304
413.236180	4783.480308
413.616405	4740.222167
413.996568	4829.405220
414.376670	4775.479997
414.756711	4731.904263
415.136691	4770.574955
415.516609	4848.712839
415.896466	4887.078541
416.276262	4921.675979
416.655997	4907.507817
417.035670	5084.845527
417.415283	5174.638559
417.794834	5123.622082
418.174324	5074.979988
418.553753	4988.178881
418.933121	5166.885264
419.312428	5235.013938
419.691674	5174.719217
420.070859	5306.850380
420.449983	5214.824117
420.829045	5331.332744
421.208047	5238.051233
421.586988	5313.285413
421.965867	5325.679090
422.344686	5456.862516
422.723444	5313.340866
423.102141	5129.898318
423.480777	5425.446045
423.859352	5200.187127
424.237866	5457.656497
424.616319	5445.144354
424.994712	5556.274070
425.373044	5432.909473
425.751314	5572.836781
426.129524	5381.154467
426.507673	5573.847532
426.885762	5658.082692
427.263789	5587.942598
427.641756	5472.195185
428.019662	5592.068782
428.397508	5598.113126
428.775292	5548.107400
429.153016	5646.898892
429.530679	5571.878961
429.908282	5661.863557
430.285824	5523.488926
430.663305	5798.935051
431.040726	5536.013672
431.418086	5536.137181
431.795385	5645.341176
432.172624	5657.671838
432.549802	5648.433924
432.926920	5658.173433
433.303977	5670.325134
433.680974	5711.395415
434.057910	5726.806222
434.434786	5731.444083
434.811601	5703.049784
435.188355	5932.318941
435.565050	5808.079704
435.941683	5787.705881
436.318257	6008.606722
436.694770	5989.150389
437.071222	6021.479308
437.447614	5953.529596
437.823946	5867.277974
438.200218	6022.628691
438.576429	5890.555502
438.952580	5983.791642
439.328670	6030.029105
439.704700	5936.639210
440.080670	5926.561943
440.456580	6196.823242
440.832429	6078.648513
441.208218	5928.888436
441.583947	6079.979378
441.959616	6085.275110
442.335224	6010.439181
442.710773	6145.549666
443.086261	6172.759294
443.461689	5971.322348
443.837057	6113.810562
444.212365	6274.517505
444.587612	6165.144631
444.962800	6320.918806
445.337927	6300.005579
445.712995	5911.582154
446.088002	6484.342931
446.462949	6318.652807
446.837837	6248.802579
447.212664	6423.622233
447.587431	6563.637760
447.962139	7105.055163
448.336786	8029.446502
448.711374	7770.931092
449.085901	6846.396080
449.460369	6765.528410
449.834776	6700.555499
450.209124	7093.883966
450.583412	7246.507419
450.957640	7386.959007
451.331808	7151.985785
451.705917	6705.972219
452.079965	6631.839531
452.453954	6837.500964
452.827883	6718.935546
453.201752	6811.034906
453.575562	6607.974708
453.949311	6811.458363
454.323001	6702.808895
454.696632	6779.469721
455.070202	6914.318066
455.443713	7070.475368
455.817164	7173.829104
456.190556	7256.662824
456.563888	7329.071437
456.937160	7368.883949
457.310373	7028.590941
457.683526	7052.584313
458.056619	6942.009124
458.429653	6931.523524
458.802628	6871.533793
459.175542	6978.686039
459.548398	7330.868608
459.921194	7491.399111
460.293930	7493.750810
460.666607	8026.099176
461.039224	8324.343920
461.411782	8451.476779
461.784280	8468.662073
462.156719	8358.200309
462.529099	8242.278977
462.901419	7830.121800
463.273680	7722.523412
463.645882	7737.984631
464.018024	7598.016995
464.390106	7772.995445
464.762130	8164.451123
465.134094	8630.286506
465.505999	9649.358277
465.877845	10867.119564
466.249631	11510.310301
466.621358	11132.601849
466.993026	10497.398821
467.364634	10245.144523
467.736184	9880.379234
468.107674	9557.064832
468.479105	9583.611548
468.850477	9346.374848
469.221790	9119.084345
469.593043	8792.893964
469.964238	8650.609918
470.335373	8669.872167
470.706449	8728.788132
471.077467	8708.968835
471.448425	10018.025419
471.819324	11081.532440
472.190164	11101.346695
472.560945	9858.525832
472.931667	9070.109535
473.302330	8939.218496
473.672934	8584.212880
474.043479	8941.555071
474.413965	8881.729177
474.784393	8762.105117
475.154761	8918.569930
475.525070	9007.213579
475.895321	8836.240326
476.265513	9013.439404
476.635645	9184.828553
477.005719	9185.930045
477.375734	9293.871231
477.745691	9531.801089
478.115588	9673.026494
478.485427	9911.800746
478.855207	10449.275966
479.224928	11262.363670
479.594591	11882.707898
479.964194	11693.120184
480.333739	11636.210598
480.703226	11552.608103
481.072653	11648.763071
481.442022	11882.717980
481.811333	12063.758417
482.180584	11873.661547
482.549777	11583.976682
482.918912	11406.155022
483.287988	11438.249527
483.657005	11446.504417
484.025964	11127.112033
484.394864	11260.369893
484.763706	11230.546427
485.132489	10984.926288
485.501213	10947.347007
485.869879	11022.089675
486.238487	10865.365243
486.607036	10977.339352
486.975527	10752.332491
487.343959	10945.935484
487.712333	10989.450724
488.080648	10921.997565
488.448905	10970.710235
488.817104	10902.352188
489.185244	11175.023159
489.553326	11331.606438
489.921350	11876.068698
490.289315	12929.705140
490.657222	13269.105864
491.025070	13174.914425
491.392861	13054.493862
491.760593	12669.448011
492.128267	12316.269813
492.495883	11986.989206
492.863440	11660.259422
493.230939	11321.216620
493.598380	11254.101219
493.965763	11125.151024
494.333088	11020.058090
494.700354	10940.748137
495.067563	11000.437919
495.434713	10835.992960
495.801805	10960.217073
496.168839	10882.454754
496.535815	10822.754890
496.902733	10818.590897
497.269593	10754.288459
497.636395	10855.081289
498.003139	10844.078971
498.369825	10715.403519
498.736453	10873.504186
499.103023	10794.806733
499.469535	10824.284880
499.835989	10814.527727
500.202385	10777.195462
500.568723	10625.446649
500.935003	10850.544250
501.301226	10656.616103
501.667390	10912.177397
502.033497	11011.120124
502.399546	10873.259690
502.765537	10774.735379
503.131470	10856.447442
503.497345	11029.537979
503.863163	10636.552311
504.228923	10949.960845
504.594625	11010.273210
504.960269	10755.372307
505.325856	10979.713735
505.691385	10768.557445
506.056856	10926.448904
506.422270	10950.901021
506.787625	10842.798517
507.152924	10956.045518
507.518164	10933.942579
507.883347	10858.973060
508.248472	10770.221026
508.613540	11014.966524
508.978550	10894.228369
509.343503	10874.272962
509.708398	10992.306538
510.073236	11100.071283
510.438016	11116.455033
510.802738	11060.578884
511.167403	11110.430855
511.532010	11012.105669
511.896561	11235.542211
512.261053	11309.374950
512.625488	11180.666731
512.989866	11156.199490
513.354186	11144.478808
513.718449	11056.069572
514.082655	11241.006822
514.446803	11129.872064
514.810894	11262.265367
515.174927	11131.709565
515.538904	11154.304017
515.902822	11305.606687
516.266684	11185.763337
516.630488	11129.746036
516.994235	11186.237206
517.357925	11252.306568
517.721558	11336.990391
518.085133	11355.448576
518.448651	11367.615400
518.812112	11243.950855
519.175516	11263.661767
519.538863	11390.308154
519.902152	11295.360542
520.265385	11457.383227
520.628560	11368.326203
520.991678	11354.447907
521.354739	11409.577965
521.717743	11342.727224
522.080690	11329.232055
522.443580	11455.202928
522.806413	11411.939746
523.169189	11444.553490
523.531908	11502.499033
523.894569	11327.485295
524.257174	11329.491674
524.619722	11443.124323
524.982213	11393.950388
525.344647	11443.545260
525.707025	11397.269988
526.069345	11490.730460
526.431608	11408.184086
526.793815	11515.124603
527.155964	11308.177676
527.518057	11363.458969
527.880093	11302.776080
528.242072	11375.000691
528.603995	11279.680033
528.965860	11193.710716
529.327669	11253.750858
529.689421	11201.418640
530.051117	11170.511326
530.412755	11278.651638
530.774337	11168.240286
531.135862	11147.473253
531.497331	11176.711945
531.858743	11023.319716
532.220098	11190.713750
532.581396	11057.841538
532.942638	11040.391584
533.303824	11006.378919
533.664953	11014.986689
534.026025	10936.122878
534.387040	11031.902281
534.747999	11034.972343
535.108902	11087.561660
535.469748	10854.597338
535.830537	10956.080806
536.191270	10935.933835
536.551947	10957.129366
536.912567	10959.458379
537.273131	10878.452078
537.633638	10864.707372
537.994089	10842.463281
538.354483	10797.024841
538.714821	10946.147213
539.075103	10959.372680
539.435328	10917.195866
539.795497	10742.625749
540.155609	10901.472507
540.515665	10994.927938
540.875665	10723.580270
541.235609	10796.200612
541.595496	10785.679724
541.955328	10943.233426
542.315102	10824.405868
542.674821	10783.181832
543.034483	10773.593558
543.394090	10780.031111
543.753640	10707.625018
544.113134	10939.308887
544.472571	10792.001331
544.831953	10928.082238
545.191278	10732.614018
545.550548	10766.132650
545.909761	10903.713300
546.268918	10872.758095
546.628019	10956.176588
546.987064	10822.369242
547.346053	10748.944836
547.704986	10844.857829
548.063863	10837.147384
548.422684	10825.668677
548.781449	10742.441747
549.140158	10839.597385
549.498811	10722.030115
549.857408	10578.478218
550.215949	10803.777466
550.574434	10662.118523
550.932864	10756.541855
551.291237	10817.048304
551.649555	10761.633420
552.007817	10779.834506
552.366022	10733.586961
552.724173	10730.940355
553.082267	10715.237161
553.440305	10852.346463
553.798288	10655.890177
554.156215	10805.466253
554.514086	10783.690989
554.871902	10634.389656
555.229661	10672.387353
555.587365	10646.337190
555.945014	10547.976717
556.302606	10665.768318
556.660143	10558.243027
557.017625	10712.270442
557.375050	10608.576428
557.732421	10746.686399
558.089735	10655.665846
558.446994	10662.284881
558.804197	10704.471777
559.161345	10701.968844
559.518437	10552.226410
559.875474	10641.328804
560.232455	10666.627835
560.589381	10613.496594
560.946251	10613.872160
561.303065	10720.099353
561.659825	10653.125104
562.016528	10590.297204
562.373177	10469.095262
562.729770	10587.073386
563.086307	10496.667853
563.442789	10591.980949
563.799216	10469.929573
564.155587	10514.122848
564.511904	10473.692795
564.868164	10457.034302
565.224370	10473.339914
565.580520	10398.085569
565.936615	10404.162680
566.292654	10272.313822
566.648638	10410.290203
567.004567	10355.659218
567.360441	10351.520431
567.716260	10259.466441
568.072023	10350.252581
568.427732	10304.375560
568.783385	10216.162930
569.138982	10281.947467
569.494525	10296.642430
569.850013	10180.703454
570.205445	10262.377708
570.560823	10152.750256
570.916145	10067.607688
571.271412	10140.913626
571.626625	10082.819369
571.981782	10060.643334
572.336884	10037.907730
572.691931	10039.835971
573.046923	9987.821346
573.401860	9942.360220
573.756743	9876.800015
574.111570	9921.943547
574.466342	9904.919571
574.821059	9934.034755
575.175722	9820.802878
575.530330	9836.503551
575.884882	9826.315379
576.239380	9755.620758
576.593823	9739.514272
576.948211	9747.310416
577.302544	9635.293457
577.656823	9650.583277
578.011047	9648.702927
578.365216	9623.020768
578.719330	9541.364158
579.073389	9556.598525
579.427394	9497.669957
579.781344	9484.479778
580.135239	9432.709649
580.489080	9443.263304
580.842866	9342.828396
581.196597	9347.093212
581.550273	9385.312720
581.903895	9356.658802
582.257463	9416.119212
582.610975	9291.837125
582.964434	9320.715375
583.317837	9246.970856
583.671186	9235.565245
584.024481	9225.235921
584.377721	9143.007140
584.730906	9123.394531
585.084037	9155.184047
585.437113	9085.832894
585.790135	9107.164536
586.143103	9010.777675
586.496016	8978.937747
586.848874	9042.849496
587.201679	9031.027990
587.554428	8913.536338
587.907124	8961.046692
588.259765	8931.974358
588.612352	8931.371940
588.964884	8807.074730
589.317362	8825.963934
589.669786	8821.799941
590.022155	8876.340184
590.374470	8888.771669
590.726731	8824.862442
591.078937	8676.251747
591.431090	8793.604767
591.783188	8658.751381
592.135232	8658.378336
592.487222	8653.412799
592.839157	8712.142242
593.191038	8641.765213
593.542866	8585.042150
593.894639	8478.154565
594.246358	8538.981128
594.598022	8551.324393
594.949633	8452.931152
595.301190	8427.435516
595.652692	8455.325700
596.004141	8565.167401
596.355535	8344.995007
596.706876	8320.162283
597.058162	8259.224815
597.409395	8335.953697
597.760573	8396.213130
598.111698	8303.712998
598.462768	8291.082387
598.813785	8257.954445
599.164748	8227.314312
599.515657	8213.446097
599.866511	8127.875031
600.217312	8248.398938
600.568060	8109.381558
600.918753	8217.385759
601.269392	8180.045933
601.619978	8093.993436
601.970510	8163.150505
602.320988	8155.611460
602.671412	8212.652116
603.021783	8152.009555
603.372100	8115.612425
603.722363	8124.898230
604.072572	8104.206814
604.422728	8111.544213
604.772830	8039.717853
605.122878	8041.237761
605.472872	8042.999645
605.822813	8069.823624
606.172701	8012.934203
606.522534	8091.510668
606.872314	8090.971265
607.222041	8057.198054
607.571714	8122.067622
607.921333	8076.172957
608.270899	8078.428874
608.620411	8165.363572
608.969870	8078.575067
609.319276	8073.823780
609.668627	8086.492199
610.017926	8112.774255
610.367171	8165.227461
610.716362	8140.677042
611.065500	8129.004250
611.414585	8164.660331
611.763616	8147.222980
612.112594	8133.624467
612.461518	8146.308010
612.810389	8205.057617
613.159207	8147.054101
613.507971	8090.522602
613.856682	8214.688742
614.205340	8173.923451
614.553945	8251.683249
614.902496	8148.110223
615.250994	8197.543777
615.599439	8180.907970
615.947830	8196.969086
616.296169	8169.998913
616.644454	8179.435953
616.992686	8179.017537
617.340864	8237.489881
617.688990	8143.575705
618.037063	8237.162206
618.385082	8181.059204
618.733048	8270.277545
619.080961	8205.942340
619.428821	8224.584527
619.776628	8227.568890
620.124382	8181.220521
620.472083	8163.057244
620.819731	8189.863580
621.167326	8082.265192
621.514868	8087.581089
621.862357	7979.592012
622.209793	7998.329980
622.557176	7925.818023
622.904506	7896.148312
623.251783	7835.110022
623.599007	7788.008001
623.946179	7790.659648
624.293297	7745.995025
624.640363	7669.924013
624.987376	7647.208574
625.334336	7595.539268
625.681243	7548.830457
626.028097	7531.892180
626.374899	7510.384097
626.721647	7504.135587
627.068343	7434.784433
627.414987	7411.660660
627.761577	7361.486056
628.108115	7398.689772
628.454600	7292.626415
628.801032	7343.627769
629.147412	7305.761142
629.493739	7295.300747
629.840014	7232.377065
630.186236	7285.054602
630.532405	7171.139649
630.878521	7219.973306
631.224585	7180.846390
631.570597	7105.413085
631.916556	7136.658156
632.262462	7130.843185
632.608316	7091.502021
632.954117	7074.914104
633.299866	7060.745941
633.645562	7048.420320
633.991206	6971.235213
634.336797	6909.884371
634.682336	6876.073352
635.027823	6838.872158
635.373257	6827.627864
635.718639	6757.702019
636.063968	6770.922445
636.409245	6672.488875
636.754470	6663.200549
637.099642	6625.424663
637.444762	6566.967443
637.789829	6577.558907
638.134845	6522.716194
638.479808	6504.522670
638.824719	6508.132136
639.169577	6439.035561
639.514383	6459.437110
639.859137	6386.889865
640.203839	6395.961422
640.548489	6383.245111
