Dividing Wavelength (nm)	Counts (n)	Blue Motor Position (mm): 11.000000	Red Motor Position (mm): 0.000000	
326.493990	2105.301793
326.888308	2105.301793
327.282561	2105.301793
327.676750	2081.578123
328.070874	2080.776579
328.464933	2091.025245
328.858929	2101.334405
329.252859	2110.232041
329.646726	2125.126130
330.040528	2142.445014
330.434265	2161.858498
330.827938	2180.717454
331.221547	2199.488191
331.615091	2221.649103
332.008571	2242.501836
332.401986	2261.625453
332.795338	2283.110851
333.188625	2303.172122
333.581847	2320.571665
333.975006	2339.705364
334.368100	2356.981398
334.761129	2374.663246
335.154095	2390.966337
335.546996	2421.954310
335.939833	2471.783595
336.332606	2482.727940
336.725315	2493.916781
337.117960	2500.513131
337.510540	2508.896570
337.903056	2517.854700
338.295508	2523.810823
338.687896	2529.424148
339.080220	2539.829090
339.472480	2543.027702
339.864676	2545.674308
340.256807	2548.814946
340.648875	2551.716130
341.040879	2548.676315
341.432818	2554.665205
341.824694	2555.451625
342.216506	2554.095555
342.608253	2554.990360
342.999937	2553.031872
343.391557	2550.823846
343.783113	2549.843342
344.174605	2547.116077
344.566033	2545.719678
344.957397	2543.829245
345.348697	2541.260777
345.739934	2543.539379
346.131106	2541.774975
346.522215	2537.522762
346.913260	2536.937988
347.304241	2536.905220
347.695159	2533.966228
348.086012	2533.426824
348.476802	2531.498583
348.867528	2532.965559
349.258191	2529.063706
349.648789	2529.835002
350.039324	2522.989115
350.429796	2527.392563
350.820203	2523.223529
351.210548	2524.844260
351.600828	2524.705628
351.991045	2524.715710
352.381198	2520.168590
352.771288	2521.557427
353.161314	2520.937366
353.551276	2523.440298
353.941175	2521.728827
354.331010	2522.767304
354.720782	2525.907943
355.110490	2523.231091
355.500135	2522.787469
355.889717	2520.612211
356.279235	2524.698066
356.668689	2522.893333
357.058080	2524.995494
357.447408	2523.871317
357.836672	2521.023065
358.225873	2522.961389
358.615010	2519.553569
359.004084	2525.912984
359.393095	2526.901051
359.782043	2527.513551
360.170927	2528.047913
360.559748	2529.383819
360.948505	2529.754344
361.337199	2526.800227
361.725830	2529.250228
362.114398	2529.403983
362.502903	2529.640918
362.891344	2530.326515
363.279722	2531.811134
363.668037	2532.025383
364.056289	2532.544622
364.444478	2533.036135
364.832603	2531.763243
365.220665	2534.344314
365.608665	2532.088398
365.996601	2535.690302
366.384474	2533.033614
366.772284	2533.278110
367.160031	2533.938501
367.547715	2534.757689
367.935336	2533.908254
368.322893	2536.048224
368.710388	2535.990251
369.097820	2539.629964
369.485189	2535.833975
369.872495	2537.432021
370.259738	2536.277597
370.646918	2537.507638
371.034035	2539.196425
371.421090	2535.309695
371.808081	2539.463606
372.195010	2539.950077
372.581875	2535.347504
372.968678	2538.704912
373.355418	2538.755324
373.742096	2539.249357
374.128710	2538.110056
374.515262	2539.229192
374.901751	2536.905220
375.288177	2537.989068
375.674540	2541.202804
376.060841	2537.101825
376.447079	2539.950077
376.833254	2542.584080
377.219367	2537.563091
377.605417	2538.457896
377.991404	2539.307330
378.377329	2539.859337
378.763191	2534.581248
379.148991	2541.926210
379.534727	2542.969728
379.920402	2542.052238
380.306013	2542.440407
380.691563	2542.624409
381.077049	2544.066179
381.462474	2542.836138
381.847835	2542.117773
382.233134	2542.707588
382.618371	2546.125491
383.003545	2544.618186
383.388657	2545.858310
383.773706	2542.798329
384.158693	2545.029040
384.543618	2543.821683
384.928480	2544.124153
385.313280	2547.990718
385.698017	2545.296221
386.082692	2547.320244
386.467305	2546.140614
386.851856	2545.850748
387.236344	2546.165820
387.620770	2546.243958
388.005133	2547.264792
388.389435	2547.824360
388.773674	2546.649771
389.157851	2548.225131
389.541965	2547.216901
389.926018	2547.655481
390.310008	2548.159596
390.693936	2550.458362
391.077802	2547.342929
391.461606	2550.743188
391.845348	2550.355019
392.229027	2548.641027
392.612645	2550.634803
392.996200	2549.674463
393.379694	2552.179917
393.763125	2551.088507
394.146494	2551.824515
394.529801	2552.936090
394.913047	2551.549772
395.296230	2550.329813
395.679351	2548.550286
396.062410	2551.764021
396.445408	2551.758980
396.828343	2551.615307
397.211217	2549.727395
397.594028	2549.414844
397.976778	2549.495502
398.359466	2550.725544
398.742092	2549.724875
399.124656	2554.609753
399.507158	2553.344423
399.889598	2553.422561
400.271977	2553.835936
400.654294	2557.142932
401.036549	2557.349620
401.418742	2555.446584
401.800874	2553.878785
402.182944	2556.419527
402.564952	2552.394166
402.946898	2556.414486
403.328783	2559.512275
403.710606	2559.497151
404.092367	2556.782490
404.474067	2557.561348
404.855705	2556.996739
405.237282	2556.495144
405.618797	2557.750392
406.000250	2559.081256
406.381642	2557.420196
406.762972	2555.607901
407.144240	2557.531101
407.525447	2560.122254
407.906593	2556.779969
408.287677	2558.141081
408.668700	2556.391801
409.049661	2558.105793
409.430560	2557.921791
409.811399	2560.056719
410.192176	2557.652089
410.572891	2560.344065
410.953545	2559.991184
411.334138	2558.738458
411.714669	2561.987481
412.095139	2561.783315
412.475547	2557.896585
412.855894	2560.230639
413.236180	2564.243398
413.616405	2561.984961
413.996568	2556.815257
414.376670	2560.964127
414.756711	2559.078736
415.136691	2560.341545
415.516609	2561.543860
415.896466	2562.458829
416.276262	2561.750547
416.655997	2561.364899
417.035670	2559.439178
417.415283	2559.333314
417.794834	2557.480690
418.174324	2562.121072
418.553753	2561.107800
418.933121	2564.573593
419.312428	2560.785166
419.691674	2563.605692
420.070859	2560.664178
420.449983	2561.412790
420.829045	2562.736093
421.208047	2563.449416
421.586988	2562.000084
421.965867	2565.377657
422.344686	2562.819272
422.723444	2563.746844
423.102141	2564.881104
423.480777	2564.563511
423.859352	2565.604509
424.237866	2564.971844
424.616319	2564.150136
424.994712	2564.654252
425.373044	2564.732390
425.751314	2564.230795
426.129524	2565.279355
426.507673	2566.138872
426.885762	2564.258521
427.263789	2562.584858
427.641756	2566.143913
428.019662	2566.438820
428.397508	2566.716084
428.775292	2563.046124
429.153016	2564.321536
429.530679	2563.933367
429.908282	2565.838923
430.285824	2565.428069
430.663305	2564.364385
431.040726	2564.689540
431.418086	2565.360013
431.795385	2567.802452
432.172624	2566.287586
432.549802	2566.965621
432.926920	2567.071485
433.303977	2567.799932
433.680974	2565.294478
434.057910	2567.747000
434.434786	2568.472926
434.811601	2571.129614
435.188355	2566.746331
435.565050	2569.327401
435.941683	2568.084757
436.318257	2564.538305
436.694770	2563.792214
437.071222	2567.487380
437.447614	2563.124262
437.823946	2566.461505
438.200218	2564.303892
438.576429	2567.124417
438.952580	2566.690878
439.328670	2568.921588
439.704700	2566.211968
440.080670	2569.087947
440.456580	2569.178687
440.832429	2568.399829
441.208218	2569.844120
441.583947	2566.769016
441.959616	2568.722463
442.335224	2568.563667
442.710773	2571.469892
443.086261	2569.776064
443.461689	2568.445199
443.837057	2568.026784
444.212365	2570.186918
444.587612	2569.193811
444.962800	2570.484346
445.337927	2571.439645
445.712995	2570.118862
446.088002	2568.102401
446.462949	2571.308575
446.837837	2572.483164
447.212664	2565.884293
447.587431	2571.522824
447.962139	2572.853688
448.336786	2572.352094
448.711374	2570.862433
449.085901	2573.735890
449.460369	2571.089285
449.834776	2573.307392
450.209124	2570.257494
450.583412	2572.238668
450.957640	2572.160530
451.331808	2571.875705
451.705917	2570.628019
452.079965	2572.173133
452.453954	2571.273287
452.827883	2572.261353
453.201752	2573.083061
453.575562	2571.984089
453.949311	2570.501990
454.323001	2572.296641
454.696632	2572.420149
455.070202	2572.934347
455.443713	2574.492063
455.817164	2569.529048
456.190556	2569.216496
456.563888	2571.916034
456.937160	2570.438976
457.310373	2574.476940
457.683526	2573.067937
458.056619	2575.535582
458.429653	2574.587845
458.802628	2576.175809
459.175542	2575.603638
459.548398	2576.997517
459.921194	2576.662280
460.293930	2580.070100
460.666607	2581.340471
461.039224	2582.290728
461.411782	2580.312076
461.784280	2581.342992
462.156719	2581.519432
462.529099	2581.443815
462.901419	2579.969277
463.273680	2580.029771
463.645882	2579.087075
464.018024	2578.653536
464.390106	2582.313414
464.762130	2583.913980
465.134094	2585.857345
465.505999	2586.910946
465.877845	2586.351378
466.249631	2591.198447
466.621358	2585.239803
466.993026	2591.382449
467.364634	2589.769280
467.736184	2584.902046
468.107674	2587.137798
468.479105	2585.728795
468.850477	2585.983374
469.221790	2588.514033
469.593043	2583.656881
469.964238	2586.684094
470.335373	2582.230235
470.706449	2586.321131
471.077467	2587.546131
471.448425	2592.572162
471.819324	2590.631317
472.190164	2590.149887
472.560945	2589.207192
472.931667	2588.539239
473.302330	2584.387848
473.672934	2587.200812
474.043479	2586.578230
474.413965	2587.863724
474.784393	2583.881212
475.154761	2585.012952
475.525070	2586.860534
475.895321	2584.655030
476.265513	2583.636717
476.635645	2588.297263
477.005719	2590.404466
477.375734	2589.076122
477.745691	2591.924373
478.115588	2592.241966
478.485427	2591.074939
478.855207	2596.852101
479.224928	2594.016452
479.594591	2596.378233
479.964194	2597.701536
480.333739	2597.804879
480.703226	2595.879159
481.072653	2597.388984
481.442022	2597.036103
481.811333	2597.736824
482.180584	2594.374374
482.549777	2597.734303
482.918912	2595.990064
483.287988	2596.973089
483.657005	2598.341762
484.025964	2597.633480
484.394864	2598.069540
484.763706	2598.548450
485.132489	2596.126175
485.501213	2595.755650
485.869879	2596.685743
486.238487	2596.342945
486.607036	2597.033583
486.975527	2597.426793
487.343959	2597.177256
487.712333	2597.807400
488.080648	2596.045517
488.448905	2598.888727
488.817104	2599.012236
489.185244	2599.728080
489.553326	2602.578852
489.921350	2601.772267
490.289315	2606.468102
490.657222	2608.371138
491.025070	2607.216714
491.392861	2608.260232
491.760593	2606.284100
492.128267	2608.580346
492.495883	2599.528954
492.863440	2605.727053
493.230939	2604.572628
493.598380	2603.070365
493.965763	2600.622884
494.333088	2602.258739
494.700354	2602.795622
495.067563	2604.345777
495.434713	2600.663214
495.801805	2608.487084
496.168839	2606.599172
496.535815	2606.636981
496.902733	2609.205449
497.269593	2611.234513
497.636395	2611.116046
498.003139	2613.044287
498.369825	2612.860285
498.736453	2614.912035
499.103023	2615.280039
499.469535	2617.379680
499.835989	2618.597118
500.202385	2619.033178
500.568723	2618.934876
500.935003	2624.593571
501.301226	2626.103397
501.667390	2624.225567
502.033497	2629.302009
502.399546	2627.585496
502.765537	2632.956845
503.131470	2634.338121
503.497345	2633.450878
503.863163	2636.019346
504.228923	2636.442803
504.594625	2640.516055
504.960269	2639.389357
505.325856	2642.711478
505.691385	2642.212404
506.056856	2647.475368
506.422270	2650.157262
506.787625	2653.270175
507.152924	2655.490803
507.518164	2657.224960
507.883347	2656.486431
508.248472	2658.071874
508.613540	2661.323418
508.978550	2663.223933
509.343503	2666.571259
509.708398	2668.870025
510.073236	2672.910510
510.438016	2675.526869
510.802738	2673.424708
511.167403	2680.371418
511.532010	2680.898218
511.896561	2687.255113
512.261053	2693.612008
512.625488	2688.832994
512.989866	2689.861390
513.354186	2693.173428
513.718449	2696.016639
514.082655	2702.083667
514.446803	2704.241281
514.810894	2708.382589
515.174927	2712.085317
515.538904	2712.276880
515.902822	2719.747870
516.266684	2718.648899
516.630488	2724.501678
516.994235	2723.763149
517.357925	2730.036865
517.721558	2732.920405
518.085133	2739.138669
518.448651	2738.216137
518.812112	2741.094636
519.175516	2742.554050
519.538863	2744.578074
519.902152	2750.264495
520.265385	2751.010586
520.628560	2758.453850
520.991678	2759.144488
521.354739	2762.728748
521.717743	2764.104983
522.080690	2766.950714
522.443580	2774.482198
522.806413	2774.832558
523.169189	2776.496139
523.531908	2780.917231
523.894569	2781.660801
524.257174	2788.650361
524.619722	2792.471556
524.982213	2791.511216
525.344647	2793.807462
525.707025	2798.611681
526.069345	2799.871970
526.431608	2804.749286
526.793815	2808.358752
527.155964	2812.704227
527.518057	2813.402427
527.880093	2812.560554
528.242072	2816.515339
528.603995	2816.490133
528.965860	2819.847542
529.327669	2820.931390
529.689421	2825.113027
530.051117	2826.915239
530.412755	2825.448264
530.774337	2830.633090
531.135862	2832.707525
531.497331	2835.218020
531.858743	2834.108966
532.220098	2841.668176
532.581396	2839.954184
532.942638	2841.108608
533.303824	2848.141018
533.664953	2847.314268
534.026025	2849.887777
534.387040	2854.056812
534.747999	2854.863396
535.108902	2861.502596
535.469748	2858.024200
535.830537	2865.036445
536.191270	2863.884541
536.551947	2863.806403
536.912567	2868.434183
537.273131	2872.772095
537.633638	2868.504759
537.994089	2873.498022
538.354483	2872.232692
538.714821	2877.384751
539.075103	2884.235679
539.435328	2885.390103
539.795497	2885.594270
540.155609	2886.305073
540.515665	2893.650034
540.875665	2894.018038
541.235609	2895.658934
541.595496	2900.669841
541.955328	2906.908269
542.315102	2906.010943
542.674821	2902.739234
543.034483	2908.256777
543.394090	2910.802560
543.753640	2914.815318
544.113134	2922.787903
544.472571	2916.584763
544.831953	2932.187135
545.191278	2926.651948
545.550548	2930.231167
545.909761	2935.521858
546.268918	2941.805656
546.628019	2949.425360
546.987064	2948.409568
547.346053	2943.040739
547.704986	2955.474745
548.063863	2958.156639
548.422684	2960.682257
548.781449	2960.160497
549.140158	2969.106025
549.498811	2974.313537
549.857408	2973.811942
550.215949	2981.416523
550.574434	2987.385249
550.932864	2990.450270
551.291237	3000.008298
551.649555	3004.565501
552.007817	3013.195956
552.366022	3014.121008
552.724173	3018.002697
553.082267	3028.082484
553.440305	3037.738814
553.798288	3035.089688
554.156215	3046.399516
554.514086	3053.378994
554.871902	3058.001732
555.229661	3064.678740
555.587365	3068.212589
555.945014	3077.243816
556.302606	3082.138776
556.660143	3091.187647
557.017625	3097.174018
557.375050	3102.815069
557.732421	3113.653550
558.089735	3115.584312
558.446994	3123.675363
558.804197	3135.796818
559.161345	3143.441728
559.518437	3141.425266
559.875474	3148.729898
560.232455	3160.679953
560.589381	3170.006088
560.946251	3175.513548
561.303065	3190.349664
561.659825	3196.376364
562.016528	3197.394677
562.373177	3198.186138
562.729770	3215.752038
563.086307	3218.519632
563.442789	3230.918350
563.799216	3241.663569
564.155587	3250.498191
564.511904	3259.607556
564.868164	3268.676592
565.224370	3285.498923
565.580520	3286.542441
565.936615	3302.192703
566.292654	3308.232006
566.648638	3322.621979
567.004567	3333.972137
567.360441	3348.793130
567.716260	3356.957278
568.072023	3377.016029
568.427732	3386.780744
568.783385	3392.328534
569.138982	3414.315527
569.494525	3425.514450
569.850013	3435.004422
570.205445	3455.506795
570.560823	3469.218733
570.916145	3484.659788
571.271412	3502.870956
571.626625	3514.072400
571.981782	3531.340872
572.336884	3544.883932
572.691931	3573.701688
573.046923	3583.836928
573.401860	3596.712035
573.756743	3615.654170
574.111570	3640.895227
574.466342	3657.760408
574.821059	3681.070703
575.175722	3690.275850
575.530330	3710.132955
575.884882	3730.526943
576.239380	3748.075199
576.593823	3771.355248
576.948211	3794.370636
577.302544	3809.925116
577.656823	3834.420082
578.011047	3865.955020
578.365216	3887.639544
578.719330	3910.755755
579.073389	3933.231739
579.427394	3966.493272
579.781344	3998.628107
580.135239	4019.064945
580.489080	4055.096592
580.842866	4070.371288
581.196597	4124.556130
581.550273	4153.351201
581.903895	4189.992828
582.257463	4240.956373
582.610975	4259.893467
582.964434	4311.570335
583.317837	4334.353830
583.671186	4369.402452
584.024481	4417.096809
584.377721	4436.676650
584.730906	4489.129856
585.084037	4527.213253
585.437113	4557.434970
585.790135	4599.226135
586.143103	4620.630875
586.496016	4667.198533
586.848874	4716.238878
587.201679	4768.694604
587.554428	4784.191111
587.907124	4851.639229
588.259765	4877.341552
588.612352	4948.464671
588.964884	4965.985201
589.317362	5035.525398
589.669786	5080.298406
590.022155	5113.776708
590.374470	5186.664231
590.726731	5208.585689
591.078937	5228.210901
591.431090	5282.020177
591.783188	5307.084794
592.135232	5333.976829
592.487222	5402.735647
592.839157	5464.386438
593.191038	5492.223689
593.542866	5527.486561
593.894639	5538.856883
594.246358	5608.482779
594.598022	5661.687117
594.949633	5685.660324
595.301190	5730.226645
595.652692	5773.346154
596.004141	5850.541343
596.355535	5825.711140
596.706876	5867.456935
597.058162	5908.441516
597.409395	6003.527759
597.760573	6063.404064
598.111698	6091.034628
598.462768	6144.657382
598.813785	6203.165013
599.164748	6212.413010
599.515657	6303.569675
599.866511	6316.916129
600.217312	6430.838645
600.568060	6393.682820
600.918753	6527.991762
601.269392	6591.906031
601.619978	6615.508713
601.970510	6696.764551
602.320988	6781.355113
602.671412	6879.213991
603.021783	6914.895278
603.372100	6939.407889
603.722363	7011.372880
604.072572	7087.227122
604.422728	7157.694891
604.772830	7198.109822
605.122878	7282.138295
605.472872	7339.988056
605.822813	7441.179137
606.172701	7488.253431
606.522534	7596.161850
606.872314	7704.493726
607.222041	7739.431442
607.571714	7861.636573
607.921333	7865.699743
608.270899	7979.140828
608.620411	8104.105991
608.969870	8154.063826
609.319276	8231.558963
609.668627	8318.765883
610.017926	8463.343655
610.367171	8575.090912
610.716362	8671.066920
611.065500	8744.574505
611.414585	8854.166669
611.763616	8992.032144
612.112594	9068.450995
612.461518	9188.337196
612.810389	9329.224843
613.159207	9393.217250
613.507971	9491.766766
613.856682	9663.813785
614.205340	9739.789015
614.553945	9954.620307
614.902496	9953.256674
615.250994	10134.864242
615.599439	10247.592003
615.947830	10386.387572
616.296169	10510.856181
616.644454	10626.585950
616.992686	10776.199834
617.340864	10989.884263
617.688990	11041.104907
618.037063	11282.447627
618.385082	11390.421580
618.733048	11563.529762
619.080961	11671.397852
619.428821	11780.637135
619.776628	11898.521997
620.124382	11963.749487
620.472083	12083.731469
620.819731	12196.451669
621.167326	12210.685367
621.514868	12298.174592
621.862357	12271.148966
622.209793	12366.086496
622.557176	12359.149868
622.904506	12377.056047
623.251783	12391.751010
623.599007	12415.661203
623.946179	12456.900362
624.293297	12532.091692
624.640363	12477.541366
624.987376	12571.198443
625.334336	12598.569388
625.681243	12594.889345
626.028097	12682.673478
626.374899	12744.415010
626.721647	12846.810927
627.068343	12920.341197
627.414987	12961.156899
627.761577	12999.915810
628.108115	13195.648690
628.454600	13146.787307
628.801032	13299.788847
629.147412	13393.909709
629.493739	13495.579700
629.840014	13501.044311
630.186236	13701.465464
630.532405	13689.316284
630.878521	13849.647661
631.224585	13924.493672
631.570597	13943.163586
631.916556	14098.040435
632.262462	14182.439432
632.608316	14292.018993
632.954117	14357.276730
633.299866	14443.218321
633.645562	14501.796528
633.991206	14443.112457
634.336797	14388.239497
634.682336	14469.238236
635.027823	14477.480523
635.373257	14499.840561
635.718639	14510.860523
636.063968	14551.582964
636.409245	14437.113483
636.754470	14536.411611
637.099642	14545.326892
637.444762	14464.998626
637.789829	14607.282673
638.134845	14578.180092
638.479808	14636.382733
638.824719	14693.120920
639.169577	14643.957067
639.514383	14760.347227
639.859137	14732.383947
640.203839	14911.478499
640.548489	14858.609398
640.893086	14960.541528
641.237632	14971.269104
641.582125	15098.417086
641.926566	15154.086548
642.270955	15232.892386
642.615292	15332.238404
642.959576	15415.414922
643.303809	15496.559855
