Dividing Wavelength (nm)	Counts (n)	Blue Motor Position (mm): 32.500000	Red Motor Position (mm): 0.000000	
326.493990	2098.967583
326.888308	2098.967583
327.282561	2098.967583
327.676750	2077.151990
328.070874	2075.289283
328.464933	2081.928483
328.858929	2093.523137
329.252859	2106.241968
329.646726	2120.876438
330.040528	2137.338325
330.434265	2158.395225
330.827938	2177.027330
331.221547	2194.308405
331.615091	2215.771118
332.008571	2237.483367
332.401986	2256.801069
332.795338	2276.776641
333.188625	2296.812707
333.581847	2318.313228
333.975006	2334.326453
334.368100	2351.547035
334.761129	2371.535210
335.154095	2386.300749
335.546996	2429.223654
335.939833	2512.712723
336.332606	2524.345186
336.725315	2537.106867
337.117960	2546.397713
337.510540	2553.669577
337.903056	2564.142575
338.295508	2567.862946
338.687896	2577.146231
339.080220	2581.007755
339.472480	2585.237283
339.864676	2594.263469
340.256807	2595.289344
340.648875	2595.813624
341.040879	2595.324632
341.432818	2599.927205
341.824694	2600.837133
342.216506	2599.723038
342.608253	2599.667586
342.999937	2597.739344
343.391557	2598.777822
343.783113	2594.686926
344.174605	2592.879672
344.566033	2595.004518
344.957397	2590.228025
345.348697	2588.125864
345.739934	2588.047726
346.131106	2586.021182
346.522215	2584.987746
346.913260	2580.662436
347.304241	2581.751325
347.695159	2577.418453
348.086012	2580.085224
348.476802	2580.175964
348.867528	2574.875191
349.258191	2574.058524
349.648789	2573.889646
350.039324	2571.931157
350.429796	2572.518452
350.820203	2571.071641
351.210548	2571.429562
351.600828	2567.613409
351.991045	2568.994685
352.381198	2567.313460
352.771288	2566.965621
353.161314	2567.119376
353.551276	2569.836558
353.941175	2569.667679
354.331010	2569.213975
354.720782	2572.009295
355.110490	2571.046435
355.500135	2571.356466
355.889717	2567.661300
356.279235	2571.696744
356.668689	2571.510221
357.058080	2572.896538
357.447408	2566.519479
357.836672	2567.361351
358.225873	2568.679613
358.615010	2567.449572
359.004084	2571.958884
359.393095	2574.567681
359.782043	2573.274625
360.170927	2574.608010
360.559748	2576.392578
360.948505	2576.551375
361.337199	2577.312589
361.725830	2580.072621
362.114398	2576.979873
362.502903	2577.582291
362.891344	2577.181519
363.279722	2579.311407
363.668037	2581.683269
364.056289	2581.161510
364.444478	2580.649833
364.832603	2580.178485
365.220665	2581.839545
365.608665	2581.098496
365.996601	2585.441450
366.384474	2584.266861
366.772284	2586.361460
367.160031	2585.892633
367.547715	2583.571182
367.935336	2581.952971
368.322893	2585.272571
368.710388	2586.976481
369.097820	2589.575196
369.485189	2587.347006
369.872495	2587.228539
370.259738	2587.543611
370.646918	2587.745257
371.034035	2589.592840
371.421090	2589.693663
371.808081	2592.073087
372.195010	2588.937490
372.581875	2591.387491
372.968678	2590.747264
373.355418	2591.568972
373.742096	2591.286667
374.128710	2591.692480
374.515262	2592.579723
374.901751	2595.445619
375.288177	2592.826740
375.674540	2598.601382
376.060841	2598.004005
376.447079	2596.206834
376.833254	2594.263469
377.219367	2591.437902
377.605417	2596.632811
377.991404	2594.487800
378.377329	2592.599888
378.763191	2595.412852
379.148991	2597.767071
379.534727	2600.433841
379.920402	2602.084819
380.306013	2601.449634
380.691563	2601.008533
381.077049	2602.198245
381.462474	2604.013060
381.847835	2601.875611
382.233134	2601.673965
382.618371	2605.033894
383.003545	2603.813935
383.388657	2605.585900
383.773706	2602.546085
384.158693	2604.499532
384.543618	2606.959615
384.928480	2606.117742
385.313280	2605.724532
385.698017	2607.735952
386.082692	2607.569594
386.467305	2609.752414
386.851856	2611.415995
387.236344	2609.754935
387.620770	2613.745008
388.005133	2610.526231
388.389435	2612.943464
388.773674	2611.078237
389.157851	2614.508743
389.541965	2615.590070
389.926018	2614.465893
390.310008	2614.554113
390.693936	2615.774072
391.077802	2614.793568
391.461606	2618.130812
391.845348	2615.451438
392.229027	2617.475462
392.612645	2619.307921
392.996200	2623.156842
393.379694	2621.851183
393.763125	2621.142901
394.146494	2620.648868
394.529801	2624.903602
394.913047	2624.318828
395.296230	2625.458129
395.679351	2625.843777
396.062410	2626.330248
396.445408	2627.376288
396.828343	2625.253962
397.211217	2622.201543
397.594028	2626.037862
397.976778	2623.955865
398.359466	2628.134982
398.742092	2626.864611
399.124656	2628.293778
399.507158	2629.228912
399.889598	2635.104377
400.271977	2634.673358
400.654294	2637.940026
401.036549	2634.796866
401.418742	2635.805097
401.800874	2637.375417
402.182944	2637.496404
402.564952	2636.692340
402.946898	2638.713843
403.328783	2640.304327
403.710606	2642.179636
404.092367	2642.892959
404.474067	2644.629637
404.855705	2646.401602
405.237282	2644.478402
405.618797	2649.196922
406.000250	2646.905718
406.381642	2650.570637
406.762972	2649.514515
407.144240	2653.522232
407.525447	2657.013231
407.906593	2655.831081
408.287677	2656.851914
408.668700	2657.779487
409.049661	2660.368119
409.430560	2659.591782
409.811399	2663.390291
410.192176	2661.038593
410.572891	2662.815599
410.953545	2668.454130
411.334138	2668.769202
411.714669	2671.080571
412.095139	2674.793381
412.475547	2675.365552
412.855894	2679.096006
413.236180	2683.181861
413.616405	2684.326203
413.996568	2689.934487
414.376670	2692.112265
414.756711	2694.146371
415.136691	2702.103832
415.516609	2704.939481
415.896466	2717.202088
416.276262	2726.150136
416.655997	2731.173646
417.035670	2741.071951
417.415283	2755.802203
417.794834	2766.270159
418.174324	2782.127108
418.553753	2796.494397
418.933121	2814.660194
419.312428	2834.219871
419.691674	2849.061028
420.070859	2879.902808
420.449983	2898.842422
420.829045	2938.581838
421.208047	2966.517392
421.586988	3008.737056
421.965867	3055.602143
422.344686	3093.201588
422.723444	3161.481497
423.102141	3159.754902
423.480777	3253.953902
423.859352	3288.735343
424.237866	3403.431676
424.616319	3455.211887
424.994712	3559.604101
425.373044	3625.749081
425.751314	3759.737909
426.129524	3779.272380
426.507673	3950.490129
426.885762	4028.244886
427.263789	4146.984224
427.641756	4269.214561
428.019662	4386.799474
428.397508	4498.534128
428.775292	4659.326772
429.153016	4781.403353
429.530679	4920.143469
429.908282	5056.935178
430.285824	5146.967665
430.663305	5397.341612
431.040726	5477.508561
431.418086	5595.789154
431.795385	5861.641964
432.172624	6104.958295
432.549802	6177.810530
432.926920	6376.797475
433.303977	6526.355907
433.680974	6751.302274
434.057910	7004.350553
434.434786	7192.410797
434.811601	7357.211158
435.188355	7844.720982
435.565050	7949.521529
435.941683	8131.610526
436.318257	8604.274152
436.694770	8748.499043
437.071222	9157.268564
437.447614	9057.141167
437.823946	9268.809134
438.200218	9547.705930
438.576429	9673.984313
438.952580	10001.193006
439.328670	10200.401762
439.704700	10592.979097
440.080670	10619.412388
440.456580	11101.792837
440.832429	11404.899774
441.208218	11163.826756
441.583947	11585.693195
441.959616	11854.611027
442.335224	12195.105681
442.710773	12494.154489
443.086261	13015.359385
443.461689	12879.855690
443.837057	13183.534798
444.212365	13771.038429
444.587612	13999.836237
444.962800	13977.264471
445.337927	14450.407006
445.712995	13872.353018
446.088002	15240.761627
446.462949	15602.734117
446.837837	15950.374607
447.212664	16185.032757
447.587431	18426.720446
447.962139	20704.848116
448.336786	22549.219786
448.711374	21628.135443
449.085901	19224.573783
449.460369	19487.109513
449.834776	19721.810513
450.209124	21842.986899
450.583412	21662.180875
450.957640	22228.791444
451.331808	21422.814288
451.705917	20561.313863
452.079965	20796.491252
452.453954	21297.473559
452.827883	21427.331162
453.201752	21435.384405
453.575562	21751.028691
453.949311	22877.630794
454.323001	23118.688689
454.696632	23093.475358
455.070202	24626.215499
455.443713	24932.667242
455.817164	25607.662618
456.190556	26256.527174
456.563888	25907.328968
456.937160	26435.795646
457.310373	25087.075263
457.683526	25642.249975
458.056619	25785.055781
458.429653	25882.839042
458.802628	26566.361530
459.175542	26813.186505
459.548398	28188.259519
459.921194	29815.491048
460.293930	30581.925394
460.666607	32617.916363
461.039224	34413.434210
461.411782	34894.299793
461.784280	33829.441743
462.156719	33451.463589
462.529099	33045.849830
462.901419	31886.964178
463.273680	30979.634624
463.645882	31190.793435
464.018024	31267.572729
464.390106	32226.460684
464.762130	35078.264100
465.134094	39287.519177
465.505999	44650.341488
465.877845	49174.716571
466.249631	50306.886628
466.621358	48614.742681
466.993026	46569.349961
467.364634	44572.932050
467.736184	42704.834190
468.107674	41482.253559
468.479105	40758.628692
468.850477	40104.808682
469.221790	38695.012201
469.593043	36982.565007
469.964238	36128.790150
470.335373	36110.044619
470.706449	38015.784775
471.077467	40805.130816
471.448425	45395.338327
471.819324	48081.464222
472.190164	46093.694410
472.560945	42557.700553
472.931667	39473.167229
473.302330	38402.889938
473.672934	37576.954854
474.043479	38136.480081
474.413965	37348.366253
474.784393	36986.928125
475.154761	37917.540249
475.525070	37983.163469
475.895321	37504.382403
476.265513	38131.214596
476.635645	39141.141713
477.005719	39001.103500
477.375734	39504.218216
477.745691	40227.759904
478.115588	41612.285082
478.485427	43731.334101
478.855207	47186.319136
479.224928	49814.590229
479.594591	51386.248078
479.964194	50311.070786
480.333739	50466.537450
480.703226	50559.145967
481.072653	51205.028680
481.442022	51676.883200
481.811333	51881.478429
482.180584	50600.617019
482.549777	50076.306772
482.918912	49557.143543
483.287988	49255.669940
483.657005	48430.506152
484.025964	47754.487422
484.394864	47775.599774
484.763706	47362.431846
485.132489	46448.483256
485.501213	46292.330995
485.869879	46437.594364
486.238487	46029.323917
486.607036	46229.188023
486.975527	45673.073136
487.343959	45893.812660
487.712333	45953.744418
488.080648	45861.224121
488.448905	46326.086562
488.817104	46138.353992
489.185244	47160.316865
489.553326	48917.854659
489.921350	51673.422448
490.289315	54433.877636
490.657222	54933.040087
491.025070	55174.465986
491.392861	54269.919148
491.760593	53042.355337
492.128267	51375.265925
492.495883	49838.583601
492.863440	48455.530440
493.230939	47076.389215
493.598380	45970.201265
493.965763	45647.353169
494.333088	44812.265870
494.700354	44332.993292
495.067563	44020.358574
495.434713	43875.319537
495.801805	43937.809680
496.168839	43566.896703
496.535815	43215.467787
496.902733	43238.014347
497.269593	42799.953201
497.636395	42734.309817
498.003139	43140.140345
498.369825	42582.114861
498.736453	42899.180753
499.103023	42410.629931
499.469535	42298.239927
499.835989	42378.585837
500.202385	42039.593446
500.568723	42057.005592
500.935003	42244.445774
501.301226	42049.239694
501.667390	42672.875795
502.033497	42910.747681
502.399546	42343.731299
502.765537	41637.936993
503.131470	42020.893286
503.497345	42400.719023
503.863163	41035.861907
504.228923	41684.676051
504.594625	42078.380084
504.960269	41332.821156
505.325856	42039.303580
505.691385	41391.845506
506.056856	41531.813143
506.422270	41989.938081
506.787625	41535.977136
507.152924	41750.886565
507.518164	41840.848476
507.883347	41032.305373
508.248472	41291.710547
508.613540	41774.590071
508.978550	42070.641913
509.343503	41824.706702
509.708398	42023.791949
510.073236	42565.474012
510.438016	42563.190370
510.802738	42003.287056
511.167403	42650.067095
511.532010	42870.655384
511.896561	43178.914380
512.261053	44036.588569
512.625488	43564.030807
512.989866	43443.796768
513.354186	43292.050475
513.718449	43262.405970
514.082655	43966.783712
514.446803	43622.367040
514.810894	44162.766129
515.174927	44062.250563
515.538904	43961.803052
515.902822	44637.446217
516.266684	44075.223972
516.630488	44495.504968
516.994235	44352.615983
517.357925	44925.643941
517.721558	45106.528102
518.085133	45428.093224
518.448651	45536.722528
518.812112	45319.642881
519.175516	45400.281178
519.538863	45737.637714
519.902152	45704.673609
520.265385	46188.475664
520.628560	46194.230142
520.991678	45991.742115
521.354739	46218.135293
521.717743	46538.482976
522.080690	46435.134281
522.443580	46966.358470
522.806413	47016.724638
523.169189	46967.898543
523.531908	47148.434865
523.894569	46990.682038
524.257174	47152.404774
524.619722	47452.910475
524.982213	47422.739169
525.344647	47350.920371
525.707025	47394.266732
526.069345	47788.074109
526.431608	47699.367445
526.793815	48037.835556
527.155964	47571.276767
527.518057	47704.776603
527.880093	47498.122063
528.242072	48045.679591
528.603995	47726.685458
528.965860	47737.700379
529.327669	47822.333791
529.689421	47724.439624
530.051117	47671.441974
530.412755	47831.859051
530.774337	47889.023215
531.135862	47694.568267
531.497331	47880.173469
531.858743	47770.145245
532.220098	48122.209348
532.581396	47824.136003
532.942638	47469.319431
533.303824	47781.991957
533.664953	47783.625291
534.026025	47469.609297
534.387040	47954.946384
534.747999	47897.202487
535.108902	48060.780367
535.469748	47559.263698
535.830537	47680.863890
536.191270	47864.687045
536.551947	47523.930250
536.912567	47830.011468
537.273131	47952.309860
537.633638	47452.000547
537.994089	47764.526879
538.354483	47348.843416
538.714821	47941.851987
539.075103	48287.168504
539.435328	48046.339982
539.795497	47901.036284
540.155609	47903.347653
540.515665	48383.895644
540.875665	47810.736616
541.235609	48147.581475
541.595496	48119.098956
541.955328	48820.361264
542.315102	48154.697064
542.674821	47923.623174
543.034483	47968.751583
543.394090	47944.949776
543.753640	47897.557888
544.113134	48893.387419
544.472571	47880.480980
544.831953	49140.411519
545.191278	48327.825410
545.550548	48055.230057
545.909761	48519.840440
546.268918	48709.907063
546.628019	49019.068426
546.987064	48568.205270
547.346053	47830.026591
547.704986	48707.888081
548.063863	48257.546684
548.422684	48437.715002
548.781449	48262.088764
549.140158	48671.120425
549.498811	48501.656998
549.857408	47921.679809
550.215949	48772.586249
550.574434	48702.864571
550.932864	48444.684397
551.291237	49159.910702
551.649555	48771.270508
552.007817	48992.128499
552.366022	48648.699894
552.724173	48801.225044
553.082267	49202.684893
553.440305	49476.054063
553.798288	48752.076315
554.156215	49091.918140
554.514086	49287.507347
554.871902	49000.640488
555.229661	49037.766065
555.587365	48855.808138
555.945014	48950.463363
556.302606	48865.252739
556.660143	49084.011090
557.017625	49172.949647
557.375050	48942.561354
557.732421	49278.760945
558.089735	49246.873127
558.446994	49170.638278
558.804197	49625.304984
559.161345	49552.538449
559.518437	48787.629053
559.875474	49101.640005
560.232455	49269.185274
560.589381	49437.552250
560.946251	49112.672570
561.303065	49777.119332
561.659825	49572.662735
562.016528	49244.029916
562.373177	48952.767170
562.729770	49428.417680
563.086307	48936.043142
563.442789	49398.095139
563.799216	49423.656310
564.155587	49212.646213
564.511904	49227.492411
564.868164	49307.561057
565.224370	49543.625689
565.580520	49264.716291
565.936615	49471.141458
566.292654	49162.774078
566.648638	49431.840623
567.004567	49382.709538
567.360441	49418.206822
567.716260	49275.630389
568.072023	49563.571014
568.427732	49512.279794
568.783385	49035.941167
569.138982	49431.086971
569.494525	49389.588192
569.850013	49141.722219
570.205445	49110.167117
570.560823	49056.882121
570.916145	48918.628476
571.271412	48963.923244
571.626625	48674.167803
571.981782	48729.754086
572.336884	48396.004495
572.691931	48714.446622
573.046923	48325.476233
573.401860	48150.031476
573.756743	48110.186196
574.111570	48221.245336
574.466342	48061.367662
574.821059	48178.161114
575.175722	47662.569543
575.530330	47695.188329
575.884882	47390.218686
576.239380	47324.744180
576.593823	47299.208215
576.948211	47228.354797
577.302544	46723.984835
577.656823	46732.436329
578.011047	46967.649006
578.365216	46680.146961
578.719330	46453.710933
579.073389	46291.579863
579.427394	46364.117026
579.781344	46334.250710
580.135239	45967.910060
580.489080	46028.915583
580.842866	45509.502818
581.196597	45944.088088
581.550273	45883.455610
581.903895	45743.490494
582.257463	46135.173024
582.610975	45511.052972
582.964434	45796.513350
583.317837	45424.037616
583.671186	45245.243012
584.024481	45465.049923
584.377721	44977.444317
584.730906	45255.937820
585.084037	45305.021015
585.437113	45009.478329
585.790135	45009.390109
586.143103	44601.588489
586.496016	44713.950767
586.848874	44714.918669
587.201679	44732.461884
587.554428	44206.936719
587.907124	44399.627263
588.259765	44136.058096
588.612352	44362.068147
588.964884	43752.045681
589.317362	44038.670566
589.669786	43963.219616
590.022155	43730.976179
590.374470	44135.788394
590.726731	43660.510930
591.078937	43168.857278
591.431090	43279.137560
591.783188	42912.875047
592.135232	42578.142432
592.487222	42851.786345
592.839157	42910.732557
593.191038	42572.088006
593.542866	42329.167405
593.894639	41725.206928
594.246358	41996.325223
594.598022	41963.101498
594.949633	41566.869327
595.301190	41511.033507
595.652692	41357.336288
596.004141	41665.474296
596.355535	40682.277897
596.706876	40606.952976
597.058162	40442.099683
597.409395	40902.533470
597.760573	40982.405511
598.111698	40565.499568
598.462768	40570.502913
598.813785	40607.134457
599.164748	40054.434952
599.515657	40427.450090
599.866511	39911.790463
600.217312	40522.642198
600.568060	39491.895115
600.918753	40230.015820
601.269392	40179.581597
601.619978	39843.306388
601.970510	40064.693701
602.320988	40225.410726
602.671412	40545.546681
603.021783	40275.386205
603.372100	39930.934245
603.722363	40005.502993
604.072572	40097.761149
604.422728	40108.521492
604.772830	39924.257237
605.122878	40011.630515
605.472872	39946.176174
605.822813	40222.769162
606.172701	40030.139112
606.522534	40287.361466
606.872314	40538.118541
607.222041	40302.386625
607.571714	40665.432881
607.921333	40120.995827
608.270899	40404.336400
608.620411	40755.548547
608.969870	40525.513135
609.319276	40552.269059
609.668627	40582.263925
610.017926	41065.430795
610.367171	41213.794473
610.716362	41305.004069
611.065500	41233.908677
611.414585	41413.593044
611.763616	41714.988509
612.112594	41652.788232
612.461518	41872.804351
612.810389	42168.775534
613.159207	42042.522357
613.507971	42102.839762
613.856682	42578.434819
614.205340	42470.254178
614.553945	43149.655523
614.902496	42603.103705
615.250994	43086.777211
615.599439	43147.520594
615.947830	43347.417468
616.296169	43418.717027
616.644454	43508.550389
616.992686	43688.292729
617.340864	44211.816556
617.688990	43922.943317
618.037063	44527.337334
618.385082	44475.403367
618.733048	44777.008040
619.080961	44782.507939
619.428821	44812.255788
619.776628	44912.461323
620.124382	44759.101862
620.472083	44898.197379
620.819731	45018.025606
621.167326	44693.622314
621.514868	44672.457030
621.862357	44227.131582
622.209793	44279.756187
622.557176	43948.499447
622.904506	43678.089434
623.251783	43323.996267
623.599007	43107.866878
623.946179	42890.076429
624.293297	42834.964015
624.640363	42240.314548
624.987376	42220.475087
625.334336	41982.935918
625.681243	41623.037863
626.028097	41581.871800
626.374899	41447.830040
626.721647	41431.859665
627.068343	41307.761581
627.414987	41069.930024
627.761577	40842.314367
628.108115	41188.576101
628.454600	40618.494698
628.801032	40805.816413
629.147412	40770.571186
629.493739	40759.571388
629.840014	40411.822513
630.186236	40758.618610
630.532405	40326.332106
630.878521	40556.337271
631.224585	40418.408781
631.570597	40127.221652
631.916556	40297.592488
632.262462	40252.948029
632.608316	40259.486406
632.954117	40167.906284
633.299866	40153.937247
633.645562	40073.603940
633.991206	39595.468142
634.336797	39150.304010
634.682336	39155.874485
635.027823	38913.074872
635.373257	38720.757373
635.718639	38491.142898
636.063968	38344.634364
636.409245	37772.377703
