Dividing Wavelength (nm)	Counts (n)	Blue Motor Position (mm): 7.500000	Red Motor Position (mm): 0.000000	
326.493990	2103.071082
326.888308	2103.071082
327.282561	2103.071082
327.676750	2081.101734
328.070874	2080.995869
328.464933	2087.067939
328.858929	2098.985227
329.252859	2108.644078
329.646726	2126.492283
330.040528	2140.746145
330.434265	2160.961172
330.827938	2181.549245
331.221547	2199.936853
331.615091	2220.139277
332.008571	2241.299521
332.401986	2261.756523
332.795338	2281.633793
333.188625	2300.656587
333.581847	2318.295584
333.975006	2338.520693
334.368100	2355.572396
334.761129	2375.885725
335.154095	2390.288302
335.546996	2413.938875
335.939833	2438.327977
336.332606	2453.111161
336.725315	2462.757409
337.117960	2470.669500
337.510540	2479.751139
337.903056	2486.995277
338.295508	2492.595999
338.687896	2500.719818
339.080220	2509.309944
339.472480	2510.703823
339.864676	2513.995697
340.256807	2520.163548
340.648875	2521.592716
341.040879	2523.112623
341.432818	2524.446009
341.824694	2526.225536
342.216506	2519.853517
342.608253	2521.622963
342.999937	2521.214629
343.391557	2520.304701
343.783113	2518.908301
344.174605	2516.075173
344.566033	2515.296314
344.957397	2512.264060
345.348697	2511.729698
345.739934	2509.105778
346.131106	2508.546209
346.522215	2506.996055
346.913260	2508.652074
347.304241	2501.791063
347.695159	2504.432628
348.086012	2501.642349
348.476802	2497.798469
348.867528	2500.094715
349.258191	2497.085146
349.648789	2495.887872
350.039324	2493.296719
350.429796	2495.955928
350.820203	2493.931904
351.210548	2493.087511
351.600828	2492.114568
351.991045	2491.517192
352.381198	2490.887048
352.771288	2491.597850
353.161314	2493.326966
353.551276	2492.568272
353.941175	2488.394197
354.331010	2489.810761
354.720782	2492.560711
355.110490	2493.102635
355.500135	2490.864362
355.889717	2493.591627
356.279235	2492.989209
356.668689	2495.101452
357.058080	2493.178252
357.447408	2492.742192
357.836672	2490.662716
358.225873	2491.267655
358.615010	2489.571306
359.004084	2495.482059
359.393095	2493.954590
359.782043	2498.625219
360.170927	2497.604385
360.559748	2495.865187
360.948505	2497.506083
361.337199	2497.697646
361.725830	2500.180415
362.114398	2497.450630
362.502903	2498.988182
362.891344	2500.193017
363.279722	2500.636639
363.668037	2501.107987
364.056289	2503.129490
364.444478	2502.587566
364.832603	2502.315343
365.220665	2502.138903
365.608665	2503.855416
365.996601	2503.996568
366.384474	2501.745693
366.772284	2507.837927
367.160031	2505.145951
367.547715	2504.500683
367.935336	2503.663852
368.322893	2503.623523
368.710388	2503.336177
369.097820	2507.414470
369.485189	2506.784326
369.872495	2505.960097
370.259738	2506.754079
370.646918	2505.942453
371.034035	2504.898935
371.421090	2506.323061
371.808081	2505.115704
372.195010	2506.948164
372.581875	2506.519666
372.968678	2506.648215
373.355418	2505.450941
373.742096	2510.824811
374.128710	2506.197032
374.515262	2509.312465
374.901751	2509.188957
375.288177	2511.396982
375.674540	2506.819614
376.060841	2511.041581
376.447079	2509.456138
376.833254	2507.858092
377.219367	2505.080416
377.605417	2507.797598
377.991404	2508.820952
378.377329	2508.636950
378.763191	2505.534120
379.148991	2510.429080
379.534727	2509.509070
379.920402	2512.715244
380.306013	2513.635254
380.691563	2517.428722
381.077049	2512.536283
381.462474	2514.315810
381.847835	2512.339678
382.233134	2514.366222
382.618371	2511.132321
383.003545	2512.954698
383.388657	2513.849503
383.773706	2513.133659
384.158693	2511.328926
384.543618	2514.469565
384.928480	2514.814884
385.313280	2514.678773
385.698017	2516.546521
386.082692	2514.865296
386.467305	2513.262209
386.851856	2515.205574
387.236344	2519.573733
387.620770	2515.697086
388.005133	2514.683814
388.389435	2517.968126
388.773674	2519.059536
389.157851	2515.233300
389.541965	2516.163393
389.926018	2516.397807
390.310008	2515.422343
390.693936	2519.135153
391.077802	2518.966274
391.461606	2516.483506
391.845348	2517.171624
392.229027	2518.540297
392.612645	2519.324196
392.996200	2517.658095
393.379694	2518.134484
393.763125	2518.608352
394.146494	2517.083403
394.529801	2520.526512
394.913047	2519.493075
395.296230	2518.142046
395.679351	2519.200688
396.062410	2520.163548
396.445408	2521.481810
396.828343	2519.964423
397.211217	2517.965605
397.594028	2516.659947
397.976778	2515.888650
398.359466	2517.925276
398.742092	2518.285719
399.124656	2521.063394
399.507158	2520.034999
399.889598	2519.001562
400.271977	2523.785617
400.654294	2523.231091
401.036549	2524.299815
401.418742	2522.202695
401.800874	2524.183869
402.182944	2523.631862
402.564952	2521.948117
402.946898	2521.386028
403.328783	2523.604136
403.710606	2522.432068
404.092367	2524.176307
404.474067	2523.369722
404.855705	2522.409383
405.237282	2524.098169
405.618797	2523.188241
406.000250	2527.657224
406.381642	2525.822244
406.762972	2526.681760
407.144240	2523.765453
407.525447	2527.107738
407.906593	2523.407531
408.287677	2527.942049
408.668700	2524.932480
409.049661	2529.993798
409.430560	2526.046575
409.811399	2526.364168
410.192176	2527.004394
410.572891	2527.006915
410.953545	2528.458767
411.334138	2527.639580
411.714669	2525.590351
412.095139	2530.119827
412.475547	2528.594878
412.855894	2527.223684
413.236180	2528.937677
413.616405	2530.535723
413.996568	2528.184024
414.376670	2528.809127
414.756711	2528.536905
415.136691	2527.483304
415.516609	2531.828778
415.896466	2529.298119
416.276262	2529.950949
416.655997	2527.022038
417.035670	2527.379960
417.415283	2524.481297
417.794834	2525.547501
418.174324	2529.847605
418.553753	2528.209230
418.933121	2528.539426
419.312428	2531.060002
419.691674	2528.108407
420.070859	2530.916330
420.449983	2529.598068
420.829045	2530.707122
421.208047	2531.783408
421.586988	2530.792821
421.965867	2532.519417
422.344686	2530.833151
422.723444	2534.069571
423.102141	2527.632018
423.480777	2530.850795
423.859352	2532.776515
424.237866	2531.380116
424.616319	2532.012781
424.994712	2531.075126
425.373044	2533.958666
425.751314	2532.171577
426.129524	2530.959179
426.507673	2531.790970
426.885762	2532.007739
427.263789	2533.237781
427.641756	2531.911957
428.019662	2533.310878
428.397508	2531.780887
428.775292	2531.924560
429.153016	2532.194262
429.530679	2532.695857
429.908282	2533.820034
430.285824	2532.799201
430.663305	2533.383974
431.040726	2532.615198
431.418086	2530.525640
431.795385	2532.773995
432.172624	2532.910106
432.549802	2534.341794
432.926920	2531.901875
433.303977	2535.405477
433.680974	2531.720394
434.057910	2532.446320
434.434786	2534.228368
434.811601	2534.969417
435.188355	2536.322967
435.565050	2532.957997
435.941683	2532.922709
436.318257	2533.031094
436.694770	2528.783922
437.071222	2531.922040
437.447614	2528.751154
437.823946	2531.236443
438.200218	2532.428676
438.576429	2532.579910
438.952580	2535.007226
439.328670	2534.782895
439.704700	2534.309026
440.080670	2532.297606
440.456580	2533.731814
440.832429	2534.354397
441.208218	2536.123842
441.583947	2536.804397
441.959616	2533.825075
442.335224	2536.078471
442.710773	2537.018646
443.086261	2534.855991
443.461689	2537.363965
443.837057	2538.099974
444.212365	2536.753986
444.587612	2537.515200
444.962800	2534.833306
445.337927	2535.304654
445.712995	2533.653676
446.088002	2536.005374
446.462949	2536.958152
446.837837	2537.074099
447.212664	2537.394212
447.587431	2535.649973
447.962139	2538.669624
448.336786	2537.139634
448.711374	2537.956301
449.085901	2537.222813
449.460369	2536.169212
449.834776	2536.212062
450.209124	2535.705426
450.583412	2537.595858
450.957640	2538.258770
451.331808	2537.779861
451.705917	2538.422608
452.079965	2535.234078
452.453954	2538.868750
452.827883	2536.159130
453.201752	2536.295241
453.575562	2539.060314
453.949311	2541.044008
454.323001	2538.026877
454.696632	2536.446475
455.070202	2540.214738
455.443713	2537.679037
455.817164	2536.660724
456.190556	2534.825744
456.563888	2535.561753
456.937160	2535.223996
457.310373	2540.958308
457.683526	2538.062165
458.056619	2537.691640
458.429653	2539.682896
458.802628	2540.156765
459.175542	2538.795653
459.548398	2541.071734
459.921194	2538.407484
460.293930	2540.348328
460.666607	2540.176929
461.039224	2540.489481
461.411782	2540.587783
461.784280	2541.033925
462.156719	2540.348328
462.529099	2541.898483
462.901419	2541.727084
463.273680	2539.665252
463.645882	2541.175078
464.018024	2538.697351
464.390106	2541.477547
464.762130	2540.363452
465.134094	2541.321271
465.505999	2539.811446
465.877845	2542.198432
466.249631	2540.451672
466.621358	2543.252033
466.993026	2540.612989
467.364634	2544.996272
467.736184	2543.254554
468.107674	2543.282280
468.479105	2542.803370
468.850477	2543.083154
469.221790	2544.582898
469.593043	2543.683052
469.964238	2544.824873
470.335373	2542.092568
470.706449	2542.016950
471.077467	2544.015768
471.448425	2542.795809
471.819324	2544.827394
472.190164	2542.964687
472.560945	2543.834286
472.931667	2543.967877
473.302330	2541.908566
473.672934	2543.365459
474.043479	2543.988042
474.413965	2544.076262
474.784393	2541.459903
475.154761	2544.227496
475.525070	2542.563916
475.895321	2538.974614
476.265513	2542.417722
476.635645	2545.455017
477.005719	2542.546272
477.375734	2545.197918
477.745691	2545.008875
478.115588	2545.104657
478.485427	2543.352856
478.855207	2546.032229
479.224928	2545.996941
479.594591	2547.816798
479.964194	2544.872764
480.333739	2547.726057
480.703226	2546.236396
481.072653	2547.589946
481.442022	2545.029040
481.811333	2549.256047
482.180584	2547.456355
482.549777	2550.879299
482.918912	2548.031047
483.287988	2550.201264
483.657005	2547.375697
484.025964	2547.239586
484.394864	2548.252858
484.763706	2547.877292
485.132489	2546.627086
485.501213	2546.531304
485.869879	2548.804864
486.238487	2546.783361
486.607036	2545.092054
486.975527	2545.691952
487.343959	2547.158927
487.712333	2550.765873
488.080648	2546.170861
488.448905	2547.678166
488.817104	2550.060111
489.185244	2551.070863
489.553326	2547.274874
489.921350	2549.412323
490.289315	2550.281922
490.657222	2550.559186
491.025070	2550.566747
491.392861	2552.071532
491.760593	2551.726213
492.128267	2548.908208
492.495883	2552.142108
492.863440	2548.613300
493.230939	2549.026675
493.598380	2548.542724
493.965763	2545.419729
494.333088	2546.236396
494.700354	2544.373690
495.067563	2546.722868
495.434713	2545.220604
495.801805	2549.208156
496.168839	2549.261088
496.535815	2549.140101
496.902733	2546.705223
497.269593	2550.924669
497.636395	2549.210677
498.003139	2547.257230
498.369825	2550.418033
498.736453	2551.174206
499.103023	2549.084648
499.469535	2549.654298
499.835989	2551.854762
500.202385	2549.765204
500.568723	2549.079607
500.935003	2551.038095
501.301226	2549.833259
501.667390	2550.798640
502.033497	2552.409289
502.399546	2551.955585
502.765537	2548.333516
503.131470	2551.431305
503.497345	2551.824515
503.863163	2550.536500
504.228923	2549.203115
504.594625	2551.683363
504.960269	2552.005997
505.325856	2550.511295
505.691385	2550.692776
506.056856	2549.697148
506.422270	2549.566078
506.787625	2550.559186
507.152924	2549.717313
507.518164	2551.290153
507.883347	2553.440205
508.248472	2551.101110
508.613540	2550.738147
508.978550	2552.386604
509.343503	2552.590771
509.708398	2551.469114
510.073236	2551.327962
510.438016	2553.132695
510.802738	2552.295863
511.167403	2551.695966
511.532010	2552.931048
511.896561	2553.324258
512.261053	2556.621173
512.625488	2553.026830
512.989866	2548.482230
513.354186	2550.972560
513.718449	2548.567930
514.082655	2554.549259
514.446803	2555.670916
514.810894	2559.482028
515.174927	2559.802141
515.538904	2558.854404
515.902822	2556.779969
516.266684	2559.043447
516.630488	2561.024621
516.994235	2560.800290
517.357925	2563.262893
517.721558	2561.889179
518.085133	2561.566545
518.448651	2565.919581
518.812112	2563.613253
519.175516	2567.721794
519.538863	2567.767164
519.902152	2567.434448
520.265385	2567.005950
520.628560	2570.696075
520.991678	2574.923082
521.354739	2572.311764
521.717743	2572.014336
522.080690	2572.941909
522.443580	2575.318813
522.806413	2577.915007
523.169189	2574.809656
523.531908	2581.658064
523.894569	2578.746797
524.257174	2582.857858
524.619722	2582.172261
524.982213	2583.351891
525.344647	2586.288363
525.707025	2586.850452
526.069345	2586.041347
526.431608	2589.842377
526.793815	2589.368508
527.155964	2591.798345
527.518057	2592.531832
527.880093	2591.193406
528.242072	2594.727255
528.603995	2597.409149
528.965860	2594.129878
529.327669	2597.467122
529.689421	2600.224633
530.051117	2598.608943
530.412755	2599.181114
530.774337	2602.251177
531.135862	2602.553646
531.497331	2602.387288
531.858743	2602.445262
532.220098	2607.206631
532.581396	2602.288986
532.942638	2608.522372
533.303824	2608.361056
533.664953	2612.280553
534.026025	2614.284411
534.387040	2612.925820
534.747999	2615.217025
535.108902	2616.646192
535.469748	2616.018568
535.830537	2616.948661
536.191270	2617.251130
536.551947	2619.875051
536.912567	2622.012500
537.273131	2621.069804
537.633638	2619.622993
537.994089	2625.571555
538.354483	2622.125926
538.714821	2625.453088
539.075103	2626.388222
539.435328	2627.005763
539.795497	2627.850156
540.155609	2629.990126
540.515665	2630.537091
540.875665	2629.110445
541.235609	2631.608337
541.595496	2633.045065
541.955328	2634.154119
542.315102	2635.094294
542.674821	2632.120014
543.034483	2635.553039
543.394090	2636.536064
543.753640	2638.391209
544.113134	2640.798360
544.472571	2639.815335
544.831953	2639.298617
545.191278	2641.587301
545.550548	2640.833648
545.909761	2640.551343
546.268918	2642.933289
546.628019	2643.412198
546.987064	2644.952271
547.346053	2642.219965
547.704986	2647.177940
548.063863	2646.119298
548.422684	2647.747591
548.781449	2648.687766
549.140158	2646.827580
549.498811	2652.758497
549.857408	2648.125677
550.215949	2646.925882
550.574434	2648.473517
550.932864	2649.300266
551.291237	2650.527787
551.649555	2655.503406
552.007817	2654.406955
552.366022	2654.991729
552.724173	2654.757315
553.082267	2657.996256
553.440305	2658.870897
553.798288	2659.987512
554.156215	2659.112872
554.514086	2658.913746
554.871902	2663.433141
555.229661	2662.896258
555.587365	2661.860301
555.945014	2663.355003
556.302606	2664.121258
556.660143	2665.502534
557.017625	2665.658810
557.375050	2667.818945
557.732421	2668.265087
558.089735	2668.648214
558.446994	2670.808349
558.804197	2670.747855
559.161345	2672.872701
559.518437	2672.701302
559.875474	2673.046621
560.232455	2672.817249
560.589381	2675.466375
560.946251	2675.315140
561.303065	2677.984431
561.659825	2678.730522
562.016528	2677.843279
562.373177	2676.915707
562.729770	2678.715399
563.086307	2681.200687
563.442789	2682.062725
563.799216	2682.355112
564.155587	2682.927283
564.511904	2681.503157
564.868164	2683.839732
565.224370	2686.670339
565.580520	2684.167407
565.936615	2684.530370
566.292654	2685.563806
566.648638	2687.129084
567.004567	2684.152283
567.360441	2686.423323
567.716260	2683.254958
568.072023	2685.563806
568.427732	2679.441325
568.783385	2680.537776
569.138982	2680.527693
569.494525	2680.787313
569.850013	2680.580626
570.205445	2684.041378
570.560823	2680.794875
570.916145	2682.034998
571.271412	2679.751356
571.626625	2678.223886
571.981782	2677.268587
572.336884	2677.538289
572.691931	2676.033505
573.046923	2675.630212
573.401860	2676.144410
573.756743	2672.960922
574.111570	2673.386899
574.466342	2671.486384
574.821059	2669.941270
575.175722	2670.190807
575.530330	2668.007988
575.884882	2665.994047
576.239380	2666.029335
576.593823	2664.643018
576.948211	2663.407935
577.302544	2660.075732
577.656823	2660.219405
578.011047	2660.947852
578.365216	2659.584220
578.719330	2656.851914
579.073389	2654.817809
579.427394	2655.084990
579.781344	2652.435864
580.135239	2655.483241
580.489080	2652.607263
580.842866	2650.058960
581.196597	2653.534835
581.550273	2651.578867
581.903895	2651.420071
582.257463	2648.551655
582.610975	2647.452683
582.964434	2651.551141
583.317837	2648.823877
583.671186	2649.423774
584.024481	2649.033085
584.377721	2646.220121
584.730906	2648.052580
585.084037	2645.748773
585.437113	2644.249030
585.790135	2646.721716
586.143103	2644.359935
586.496016	2643.702065
586.848874	2639.462454
587.201679	2642.172074
587.554428	2639.064203
587.907124	2641.519245
588.259765	2640.639564
588.612352	2643.760038
588.964884	2642.686272
589.317362	2646.630975
589.669786	2644.231386
590.022155	2642.978659
590.374470	2643.336581
590.726731	2643.853299
591.078937	2643.112250
591.431090	2644.100316
591.783188	2641.199132
592.135232	2641.950264
592.487222	2645.355563
592.839157	2643.316416
593.191038	2644.589308
593.542866	2644.438073
593.894639	2646.033598
594.246358	2641.597383
594.598022	2646.394041
594.949633	2645.562250
595.301190	2642.764410
595.652692	2648.329844
596.004141	2647.513177
596.355535	2646.552837
596.706876	2643.613844
597.058162	2644.153248
597.409395	2643.780202
597.760573	2649.005358
598.111698	2649.673311
598.462768	2649.837149
598.813785	2650.384114
599.164748	2652.072901
599.515657	2650.731954
599.866511	2650.172386
600.217312	2652.574495
600.568060	2652.403096
600.918753	2657.860145
601.269392	2656.274702
601.619978	2658.462563
601.970510	2658.485248
602.320988	2659.627070
602.671412	2663.092863
603.021783	2661.388953
603.372100	2662.288799
603.722363	2662.687050
604.072572	2666.223419
604.422728	2669.127124
604.772830	2666.299037
605.122878	2666.533450
605.472872	2667.221568
605.822813	2667.657628
606.172701	2673.654080
606.522534	2676.386386
606.872314	2681.646830
607.222041	2683.020544
607.571714	2685.856193
607.921333	2683.126408
608.270899	2686.050277
608.620411	2687.469362
608.969870	2691.461956
609.319276	2693.065043
609.668627	2697.465970
610.017926	2700.591486
610.367171	2705.342773
610.716362	2707.265973
611.065500	2709.353011
611.414585	2712.319730
611.763616	2716.723178
612.112594	2719.311811
612.461518	2725.663664
612.810389	2732.529716
613.159207	2731.095508
613.507971	2735.246898
613.856682	2741.487846
614.205340	2743.537075
614.553945	2752.328848
614.902496	2750.025040
615.250994	2757.140629
615.599439	2761.823861
615.947830	2772.357352
616.296169	2774.545213
616.644454	2782.532921
616.992686	2791.354940
617.340864	2798.823410
617.688990	2800.577731
618.037063	2814.846717
618.385082	2824.019097
618.733048	2830.844819
619.080961	2835.608709
619.428821	2843.422498
619.776628	2849.066069
620.124382	2853.968592
620.472083	2859.990250
620.819731	2862.036958
621.167326	2862.130220
621.514868	2868.421580
621.862357	2866.662217
622.209793	2868.232536
622.557176	2873.404760
622.904506	2873.651777
623.251783	2868.746734
623.599007	2875.428783
623.946179	2874.191180
624.293297	2878.584546
624.640363	2882.095709
624.987376	2890.461504
625.334336	2891.179869
625.681243	2895.598440
626.028097	2901.985582
626.374899	2907.157806
626.721647	2914.207859
627.068343	2920.184147
627.414987	2926.402411
627.761577	2931.693102
628.108115	2940.331119
628.454600	2944.663990
628.801032	2956.490537
629.147412	2962.335755
629.493739	2972.947384
629.840014	2979.032057
630.186236	2989.623521
630.532405	2999.509224
630.878521	3011.197139
631.224585	3020.213243
631.570597	3025.589633
631.916556	3042.842982
632.262462	3050.742470
632.608316	3064.812331
632.954117	3067.332908
633.299866	3080.707089
633.645562	3087.424426
633.991206	3087.931062
634.336797	3087.381576
634.682336	3091.462390
635.027823	3093.924994
635.373257	3094.802155
635.718639	3095.598657
636.063968	3101.516972
636.409245	3099.966817
636.754470	3110.286059
637.099642	3113.656070
637.444762	3111.679938
637.789829	3122.969602
638.134845	3127.577217
638.479808	3132.202475
638.824719	3142.670431
639.169577	3144.462561
639.514383	3155.815240
639.859137	3158.595436
640.203839	3174.991789
640.548489	3175.448013
640.893086	3187.370342
641.237632	3190.684901
641.582125	3201.732590
641.926566	3207.247612
642.270955	3221.211608
642.615292	3233.713670
642.959576	3241.940833
643.303809	3258.014552
643.647990	3271.119031
643.992118	3280.377110
644.336195	3290.288019
