Dividing Wavelength (nm)	Counts (n)	Blue Motor Position (mm): 4.400000	Red Motor Position (mm): 0.000000	
326.493990	2143.034829
326.888308	2143.034829
327.282561	2143.034829
327.676750	2112.122474
328.070874	2107.698861
328.464933	2113.012238
328.858929	2118.804523
329.252859	2127.561008
329.646726	2139.871505
330.040528	2154.914308
330.434265	2168.366627
330.827938	2189.237004
331.221547	2202.969107
331.615091	2225.238404
332.008571	2244.251116
332.401986	2263.687285
332.795338	2281.865686
333.188625	2303.305713
333.581847	2321.963023
333.975006	2339.012206
334.368100	2355.670698
334.761129	2377.768596
335.154095	2390.638662
335.546996	2412.434091
335.939833	2422.823909
336.332606	2439.404264
336.725315	2450.406582
337.117960	2463.369909
337.510540	2469.986424
337.903056	2481.366828
338.295508	2486.060143
338.687896	2494.095742
339.080220	2503.953718
339.472480	2511.475120
339.864676	2515.422343
340.256807	2519.530884
340.648875	2522.679084
341.040879	2525.454239
341.432818	2527.311905
341.824694	2528.115969
342.216506	2527.770650
342.608253	2528.693181
342.999937	2529.199817
343.391557	2529.288037
343.783113	2527.866432
344.174605	2527.180835
344.566033	2527.662265
344.957397	2524.602284
345.348697	2521.325534
345.739934	2522.023734
346.131106	2515.825636
346.522215	2518.144566
346.913260	2513.100892
347.304241	2510.940757
347.695159	2512.352281
348.086012	2509.872033
348.476802	2507.427073
348.867528	2503.739469
349.258191	2505.193842
349.648789	2504.304078
350.039324	2500.707215
350.429796	2503.011022
350.820203	2498.983141
351.210548	2496.389467
351.600828	2495.729076
351.991045	2496.061792
352.381198	2493.692450
352.771288	2496.553304
353.161314	2494.859477
353.551276	2496.618839
353.941175	2494.400732
354.331010	2494.814106
354.720782	2495.335866
355.110490	2493.616832
355.500135	2495.154384
355.889717	2492.618684
356.279235	2494.367964
356.668689	2493.523571
357.058080	2494.413335
357.447408	2495.756802
357.836672	2492.739672
358.225873	2495.509786
358.615010	2492.343941
359.004084	2499.308295
359.393095	2500.172853
359.782043	2500.046824
360.170927	2497.783346
360.559748	2499.663696
360.948505	2499.958604
361.337199	2501.770899
361.725830	2499.734273
362.114398	2502.622854
362.502903	2500.346773
362.891344	2505.367762
363.279722	2504.387257
363.668037	2503.575632
364.056289	2501.125631
364.444478	2505.897083
364.832603	2504.762823
365.220665	2505.793739
365.608665	2503.799963
365.996601	2507.129645
366.384474	2504.750221
366.772284	2507.366579
367.160031	2504.667042
367.547715	2507.298524
367.935336	2505.846672
368.322893	2506.754079
368.710388	2508.762979
369.097820	2511.568381
369.485189	2506.539830
369.872495	2506.849861
370.259738	2508.871364
370.646918	2509.065448
371.034035	2507.084275
371.421090	2512.826149
371.808081	2509.027640
372.195010	2509.146107
372.581875	2513.053001
372.968678	2510.330778
373.355418	2510.885305
373.742096	2514.013341
374.128710	2513.393279
374.515262	2513.405882
374.901751	2512.410254
375.288177	2513.219359
375.674540	2511.691889
376.060841	2512.659791
376.447079	2511.228103
376.833254	2515.298835
377.219367	2509.408247
377.605417	2512.243896
377.991404	2508.102588
378.377329	2510.693741
378.763191	2509.793895
379.148991	2512.390089
379.534727	2514.328413
379.920402	2515.528208
380.306013	2515.346726
380.691563	2513.816736
381.077049	2513.821777
381.462474	2516.289422
381.847835	2515.112312
382.233134	2516.541479
382.618371	2517.005266
383.003545	2516.423012
383.388657	2517.864782
383.773706	2519.752694
384.158693	2517.280008
384.543618	2522.011131
384.928480	2517.436284
385.313280	2515.341685
385.698017	2517.844618
386.082692	2519.369567
386.467305	2519.283867
386.851856	2517.753877
387.236344	2519.704803
387.620770	2520.448374
388.005133	2518.847807
388.389435	2521.617921
388.773674	2518.487365
389.157851	2518.739423
389.541965	2518.507529
389.926018	2518.560462
390.310008	2518.978877
390.693936	2520.902078
391.077802	2519.684639
391.461606	2519.997190
391.845348	2519.651871
392.229027	2521.489372
392.612645	2522.048940
392.996200	2519.636748
393.379694	2522.298477
393.763125	2520.302180
394.146494	2521.547345
394.529801	2523.160514
394.913047	2523.364681
395.296230	2523.510875
395.679351	2523.538601
396.062410	2521.685977
396.445408	2523.818385
396.828343	2525.560104
397.211217	2520.435771
397.594028	2521.139012
397.976778	2521.166738
398.359466	2522.479959
398.742092	2519.515760
399.124656	2525.683612
399.507158	2524.201513
399.889598	2526.268386
400.271977	2523.818385
400.654294	2527.503468
401.036549	2527.049765
401.418742	2528.456247
401.800874	2523.594054
402.182944	2526.507841
402.564952	2527.014477
402.946898	2527.780732
403.328783	2524.254445
403.710606	2528.347862
404.092367	2527.841226
404.474067	2527.563962
404.855705	2526.369209
405.237282	2526.036493
405.618797	2526.192768
406.000250	2530.676875
406.381642	2527.526154
406.762972	2528.594878
407.144240	2526.530526
407.525447	2530.407173
407.906593	2528.010104
408.287677	2530.223171
408.668700	2528.436082
409.049661	2526.217974
409.430560	2528.804086
409.811399	2528.310053
410.192176	2529.295599
410.572891	2527.682429
410.953545	2527.125382
411.334138	2531.216278
411.714669	2530.669313
412.095139	2528.993129
412.475547	2529.575383
412.855894	2529.003212
413.236180	2532.900024
413.616405	2530.402132
413.996568	2530.981865
414.376670	2531.085208
414.756711	2529.840043
415.136691	2532.955476
415.516609	2529.698891
415.896466	2530.439941
416.276262	2532.695857
416.655997	2530.384488
417.035670	2531.228881
417.415283	2530.192924
417.794834	2526.921215
418.174324	2533.078985
418.553753	2531.735517
418.933121	2533.207534
419.312428	2534.525796
419.691674	2532.282482
420.070859	2531.377595
420.449983	2533.958666
420.829045	2534.185518
421.208047	2531.251566
421.586988	2532.680733
421.965867	2533.038655
422.344686	2533.520086
422.723444	2535.655014
423.102141	2534.210724
423.480777	2530.858356
423.859352	2534.369520
424.237866	2532.428676
424.616319	2535.647452
424.994712	2536.058307
425.373044	2535.002185
425.751314	2531.065044
426.129524	2533.250384
426.507673	2533.900693
426.885762	2536.476722
427.263789	2536.264994
427.641756	2535.574356
428.019662	2534.341794
428.397508	2535.604603
428.775292	2536.217103
429.153016	2536.464119
429.530679	2536.819521
429.908282	2535.521424
430.285824	2537.124511
430.663305	2535.675179
431.040726	2537.595858
431.418086	2534.674510
431.795385	2537.066537
432.172624	2535.372710
432.549802	2539.876981
432.926920	2538.266332
433.303977	2539.728267
433.680974	2537.033770
434.057910	2538.508307
434.434786	2537.510159
434.811601	2538.651980
435.188355	2539.866898
435.565050	2539.435880
435.941683	2537.923533
436.318257	2534.982020
436.694770	2533.119314
437.071222	2538.823379
437.447614	2535.206352
437.823946	2539.934954
438.200218	2538.150385
438.576429	2537.984027
438.952580	2538.190715
439.328670	2541.076775
439.704700	2538.926723
440.080670	2541.008720
440.456580	2538.210879
440.832429	2539.047711
441.208218	2542.652136
441.583947	2538.634336
441.959616	2540.187012
442.335224	2537.157278
442.710773	2540.852444
443.086261	2538.916641
443.461689	2541.041487
443.837057	2538.967052
444.212365	2542.362269
444.587612	2539.677855
444.962800	2541.432177
445.337927	2540.446631
445.712995	2541.515356
446.088002	2541.860675
446.462949	2540.486960
446.837837	2537.424459
447.212664	2544.199770
447.587431	2541.827907
447.962139	2540.771785
448.336786	2541.623740
448.711374	2541.354039
449.085901	2541.386806
449.460369	2539.113246
449.834776	2542.803370
450.209124	2541.875798
450.583412	2542.823535
450.957640	2541.225489
451.331808	2540.398740
451.705917	2541.858154
452.079965	2542.405119
452.453954	2543.768751
452.827883	2543.602393
453.201752	2541.054090
453.575562	2538.735159
453.949311	2542.765562
454.323001	2544.194729
454.696632	2541.033925
455.070202	2542.987373
455.443713	2543.428473
455.817164	2539.042670
456.190556	2538.044521
456.563888	2540.146682
456.937160	2537.137113
457.310373	2542.687424
457.683526	2543.337733
458.056619	2542.619368
458.429653	2543.095757
458.802628	2542.773123
459.175542	2542.546272
459.548398	2542.621889
459.921194	2547.993238
460.293930	2542.006868
460.666607	2545.507949
461.039224	2543.075593
461.411782	2545.576005
461.784280	2543.607434
462.156719	2544.124153
462.529099	2546.468289
462.901419	2547.789072
463.273680	2545.132383
463.645882	2544.819832
464.018024	2543.937630
464.390106	2542.014430
464.762130	2545.223124
465.134094	2544.471992
465.505999	2547.673125
465.877845	2547.531973
466.249631	2543.350336
466.621358	2545.505429
466.993026	2547.380738
467.364634	2548.809905
467.736184	2549.402241
468.107674	2545.427291
468.479105	2544.678680
468.850477	2544.787064
469.221790	2545.568443
469.593043	2546.831252
469.964238	2545.323947
470.335373	2544.310675
470.706449	2545.056766
471.077467	2546.884184
471.448425	2546.412837
471.819324	2547.002652
472.190164	2545.021478
472.560945	2545.069369
472.931667	2547.642878
473.302330	2549.553475
473.672934	2547.579864
474.043479	2545.868392
474.413965	2546.934596
474.784393	2539.939995
475.154761	2544.325799
475.525070	2540.912938
475.895321	2542.773123
476.265513	2540.870088
476.635645	2546.798485
477.005719	2545.276056
477.375734	2547.511808
477.745691	2545.717157
478.115588	2546.702703
478.485427	2547.922662
478.855207	2547.663043
479.224928	2546.314534
479.594591	2548.177240
479.964194	2545.802857
480.333739	2548.472148
480.703226	2544.524924
481.072653	2549.382076
481.442022	2545.419729
481.811333	2548.273022
482.180584	2550.153373
482.549777	2546.359904
482.918912	2546.722867
483.287988	2548.923331
483.657005	2547.378218
484.025964	2547.501726
484.394864	2548.391489
484.763706	2549.601366
485.132489	2547.947868
485.501213	2547.055584
485.869879	2547.146324
486.238487	2547.602549
486.607036	2547.736139
486.975527	2548.595656
487.343959	2549.341747
487.712333	2550.297046
488.080648	2548.394010
488.448905	2547.915100
488.817104	2547.852086
489.185244	2547.748742
489.553326	2548.598177
489.921350	2548.315872
490.289315	2549.190512
490.657222	2550.866696
491.025070	2550.760832
491.392861	2550.566747
491.760593	2550.914587
492.128267	2547.842004
492.495883	2547.519370
492.863440	2548.278063
493.230939	2549.419885
493.598380	2546.160779
493.965763	2543.741025
494.333088	2546.279246
494.700354	2543.594832
495.067563	2549.077086
495.434713	2542.788247
495.801805	2552.084135
496.168839	2548.192364
496.535815	2548.998948
496.902733	2551.201933
497.269593	2548.570450
497.636395	2546.737991
498.003139	2547.375697
498.369825	2549.568599
498.736453	2549.245965
499.103023	2547.809236
499.469535	2549.064483
499.835989	2546.995090
500.202385	2549.845862
500.568723	2546.223793
500.935003	2548.651109
501.301226	2549.432488
501.667390	2546.208670
502.033497	2550.218908
502.399546	2549.452652
502.765537	2545.087013
503.131470	2549.858465
503.497345	2551.411141
503.863163	2551.267468
504.228923	2550.019782
504.594625	2548.232693
504.960269	2554.040102
505.325856	2551.096068
505.691385	2550.120605
506.056856	2545.167672
506.422270	2547.345450
506.787625	2549.959288
507.152924	2550.581871
507.518164	2548.963660
507.883347	2551.688404
508.248472	2553.727551
508.613540	2551.718651
508.978550	2550.160934
509.343503	2548.414175
509.708398	2551.302756
510.073236	2550.077755
510.438016	2549.276212
510.802738	2551.799309
511.167403	2548.083979
511.532010	2548.567930
511.896561	2550.450801
512.261053	2550.985163
512.625488	2546.299411
512.989866	2544.109029
513.354186	2548.572971
513.718449	2546.511139
514.082655	2552.074052
514.446803	2547.935265
514.810894	2552.583209
515.174927	2553.571275
515.538904	2548.152035
515.902822	2550.082797
516.266684	2550.702858
516.630488	2549.510626
516.994235	2550.037426
517.357925	2552.023641
517.721558	2552.444577
518.085133	2553.659495
518.448651	2551.464073
518.812112	2548.235214
519.175516	2551.199412
519.538863	2551.401058
519.902152	2549.843342
520.265385	2549.490461
520.628560	2552.048847
520.991678	2549.351829
521.354739	2551.239741
521.717743	2547.763866
522.080690	2551.433826
522.443580	2551.925338
522.806413	2553.790565
523.169189	2552.189999
523.531908	2549.084648
523.894569	2550.672612
524.257174	2554.014897
524.619722	2549.374514
524.982213	2554.811399
525.344647	2550.445760
525.707025	2550.128167
526.069345	2550.801161
526.431608	2551.857283
526.793815	2551.569937
527.155964	2552.764690
527.518057	2552.328631
527.880093	2552.310987
528.242072	2552.668908
528.603995	2553.029351
528.965860	2550.705379
529.327669	2551.529608
529.689421	2551.695966
530.051117	2553.077242
530.412755	2550.929710
530.774337	2550.569268
531.135862	2552.189999
531.497331	2549.833259
531.858743	2548.396531
532.220098	2547.678166
532.581396	2548.583053
532.942638	2550.849052
533.303824	2548.948537
533.664953	2551.320400
534.026025	2553.704866
534.387040	2551.453990
534.747999	2551.257385
535.108902	2549.974412
535.469748	2549.384597
535.830537	2551.806871
536.191270	2551.106151
536.551947	2551.237221
536.912567	2552.202602
537.273131	2553.616645
537.633638	2551.582540
537.994089	2552.187478
538.354483	2553.515822
538.714821	2551.748898
539.075103	2550.289484
539.435328	2553.200750
539.795497	2553.157900
540.155609	2550.511295
540.515665	2550.057591
540.875665	2548.875440
541.235609	2551.121274
541.595496	2552.336192
541.955328	2552.525236
542.315102	2551.015410
542.674821	2553.593960
543.034483	2555.436502
543.394090	2550.372663
543.753640	2552.376522
544.113134	2551.496840
544.472571	2552.832746
544.831953	2555.161759
545.191278	2552.174875
545.550548	2552.162272
545.909761	2553.510781
546.268918	2553.656975
546.628019	2552.437015
546.987064	2553.241079
547.346053	2553.810730
547.704986	2551.159083
548.063863	2552.265616
548.422684	2553.543549
548.781449	2553.372149
549.140158	2551.292673
549.498811	2553.228477
549.857408	2552.603373
550.215949	2552.043805
550.574434	2548.613300
550.932864	2549.853424
551.291237	2549.026675
551.649555	2550.866696
552.007817	2552.313507
552.366022	2552.719320
552.724173	2551.784186
553.082267	2552.379042
553.440305	2555.325597
553.798288	2553.306614
554.156215	2555.426420
554.514086	2554.566903
554.871902	2552.822664
555.229661	2553.256203
555.587365	2552.091696
555.945014	2554.592109
556.302606	2555.063457
556.660143	2554.014897
557.017625	2552.497509
557.375050	2554.224104
557.732421	2550.559186
558.089735	2553.026830
558.446994	2554.249310
558.804197	2554.899619
559.161345	2553.084804
559.518437	2553.581357
559.875474	2553.813250
560.232455	2552.394166
560.589381	2551.378373
560.946251	2555.416337
561.303065	2550.586912
561.659825	2552.643703
562.016528	2551.017931
562.373177	2550.992725
562.729770	2554.574465
563.086307	2553.014228
563.442789	2551.217056
563.799216	2553.299053
564.155587	2551.380894
564.511904	2552.263096
564.868164	2551.436346
565.224370	2552.661347
565.580520	2551.854762
565.936615	2551.690925
566.292654	2550.939793
566.648638	2552.805020
567.004567	2551.527087
567.360441	2554.824002
567.716260	2552.857952
568.072023	2554.493806
568.427732	2552.250493
568.783385	2551.292673
569.138982	2548.709082
569.494525	2550.470965
569.850013	2548.567930
570.205445	2554.924825
570.560823	2552.552962
570.916145	2553.132695
571.271412	2556.013714
571.626625	2555.234856
571.981782	2554.282078
572.336884	2553.372149
572.691931	2552.454659
573.046923	2553.878785
573.401860	2551.242262
573.756743	2552.626059
574.111570	2555.071018
574.466342	2555.353323
574.821059	2553.326779
575.175722	2554.813919
575.530330	2553.094886
575.884882	2551.133877
576.239380	2551.683363
576.593823	2556.159907
576.948211	2554.939948
577.302544	2551.801830
577.656823	2555.822150
578.011047	2553.425082
578.365216	2552.830225
578.719330	2553.220915
579.073389	2550.123126
579.427394	2550.869217
579.781344	2550.879299
580.135239	2551.630431
580.489080	2555.055895
580.842866	2553.636810
581.196597	2557.823488
581.550273	2552.547921
581.903895	2553.029351
582.257463	2553.881306
582.610975	2550.596994
582.964434	2553.414999
583.317837	2551.761501
583.671186	2552.799978
584.024481	2553.591440
584.377721	2554.977757
584.730906	2553.117571
585.084037	2556.109496
585.437113	2554.947510
585.790135	2551.648075
586.143103	2552.129505
586.496016	2556.369115
586.848874	2552.850390
587.201679	2550.355019
587.554428	2548.431819
587.907124	2551.539690
588.259765	2548.648588
588.612352	2555.396173
588.964884	2554.506409
589.317362	2555.197047
589.669786	2553.316697
590.022155	2555.512119
590.374470	2552.290822
590.726731	2552.782334
591.078937	2551.990873
591.431090	2552.220246
591.783188	2553.374670
592.135232	2554.982798
592.487222	2554.045143
592.839157	2554.219063
593.191038	2553.803168
593.542866	2553.588919
593.894639	2553.236038
594.246358	2552.331151
594.598022	2553.956923
594.949633	2553.223435
595.301190	2551.607746
595.652692	2553.036913
596.004141	2554.123281
596.355535	2554.022458
596.706876	2552.752087
597.058162	2553.036913
597.409395	2552.636141
597.760573	2554.834084
598.111698	2552.414330
598.462768	2554.589588
598.813785	2555.328117
599.164748	2552.497509
599.515657	2551.275029
599.866511	2553.009186
600.217312	2552.482386
600.568060	2555.928014
600.918753	2553.520863
601.269392	2554.481203
601.619978	2554.140925
601.970510	2552.895760
602.320988	2550.717982
602.671412	2555.312994
603.021783	2553.916594
603.372100	2553.447767
603.722363	2551.179248
604.072572	2553.490617
604.422728	2554.677808
604.772830	2550.619679
605.122878	2551.514484
605.472872	2550.284443
605.822813	2547.710934
606.172701	2549.429967
606.522534	2554.760987
606.872314	2552.575647
607.222041	2553.069680
607.571714	2551.262427
607.921333	2552.754608
608.270899	2552.200081
608.620411	2556.427089
608.969870	2555.978426
609.319276	2554.647561
609.668627	2559.262738
610.017926	2556.482541
610.367171	2559.688715
610.716362	2560.076884
611.065500	2558.191493
611.414585	2557.710062
611.763616	2556.003632
612.112594	2554.549259
612.461518	2554.755946
612.810389	2556.858107
613.159207	2554.849208
613.507971	2554.458518
613.856682	2556.316183
614.205340	2552.341233
614.553945	2557.241235
614.902496	2553.198230
615.250994	2553.727551
615.599439	2553.911553
615.947830	2554.002294
616.296169	2554.481203
616.644454	2554.259392
616.992686	2554.193857
617.340864	2552.837787
617.688990	2553.833415
618.037063	2554.024979
618.385082	2552.777293
618.733048	2554.690411
619.080961	2554.410627
619.428821	2553.858621
619.776628	2553.039433
620.124382	2554.488765
620.472083	2552.671429
620.819731	2556.422048
621.167326	2551.181768
621.514868	2553.069680
621.862357	2551.920297
622.209793	2553.102448
622.557176	2554.037582
622.904506	2552.094217
623.251783	2551.461552
623.599007	2551.955585
623.946179	2548.451983
624.293297	2550.531459
624.640363	2553.541028
624.987376	2553.031872
625.334336	2550.297046
625.681243	2553.498178
626.028097	2553.530946
626.374899	2551.277550
626.721647	2554.768549
627.068343	2554.531615
627.414987	2553.346944
627.761577	2553.906512
628.108115	2552.016079
628.454600	2554.755946
628.801032	2552.104299
629.147412	2552.668908
629.493739	2550.944834
629.840014	2554.176213
630.186236	2555.547407
630.532405	2550.624721
630.878521	2552.852911
631.224585	2552.089176
631.570597	2550.382745
631.916556	2552.358877
632.262462	2552.968857
632.608316	2554.849207
632.954117	2553.846018
633.299866	2552.676470
633.645562	2555.486913
633.991206	2550.549103
634.336797	2551.645554
634.682336	2554.224104
635.027823	2552.303425
635.373257	2552.794937
635.718639	2554.014897
636.063968	2552.898281
636.409245	2550.912066
636.754470	2552.379042
637.099642	2552.724361
637.444762	2553.611604
637.789829	2553.848538
638.134845	2549.021634
638.479808	2553.694783
638.824719	2552.936090
639.169577	2553.052036
639.514383	2553.898950
639.859137	2553.795606
640.203839	2554.524053
640.548489	2553.495658
640.893086	2549.578681
641.237632	2550.690256
641.582125	2551.489278
641.926566	2546.536345
642.270955	2552.752088
642.615292	2552.633620
642.959576	2552.900802
643.303809	2551.179248
643.647990	2553.147818
643.992118	2552.621017
644.336195	2552.137067
