Dividing Wavelength (nm)	Counts (n)	Blue Motor Position (mm): 21.300000	Red Motor Position (mm): 0.000000	
326.493990	2133.754065
326.888308	2133.754065
327.282561	2133.754065
327.676750	2100.812645
328.070874	2099.340628
328.464933	2104.510332
328.858929	2110.219438
329.252859	2119.779987
329.646726	2130.384054
330.040528	2144.839562
330.434265	2159.713487
330.827938	2175.411640
331.221547	2194.724300
331.615091	2215.088041
332.008571	2234.753582
332.401986	2254.764443
332.795338	2273.164654
333.188625	2291.181738
333.581847	2312.210911
333.975006	2329.313026
334.368100	2348.383711
334.761129	2366.194107
335.154095	2384.236397
335.546996	2402.082081
335.939833	2423.756522
336.332606	2438.297731
336.725315	2450.764504
337.117960	2459.344548
337.510540	2469.757051
337.903056	2481.918835
338.295508	2488.578199
338.687896	2495.328304
339.080220	2505.874398
339.472480	2513.504184
339.864676	2516.455780
340.256807	2517.690862
340.648875	2523.846111
341.040879	2524.791328
341.432818	2526.669157
341.824694	2529.522451
342.216506	2528.247039
342.608253	2529.751823
342.999937	2528.980527
343.391557	2527.551359
343.783113	2525.905423
344.174605	2525.093797
344.566033	2527.758047
344.957397	2525.290402
345.348697	2520.944927
345.739934	2521.139012
346.131106	2517.837056
346.522215	2520.607170
346.913260	2514.532580
347.304241	2513.259688
347.695159	2511.260871
348.086012	2508.677279
348.476802	2505.241733
348.867528	2506.224758
349.258191	2504.992196
349.648789	2506.000427
350.039324	2499.751917
350.429796	2502.025477
350.820203	2498.166474
351.210548	2500.258552
351.600828	2496.200424
351.991045	2496.959117
352.381198	2494.499034
352.771288	2498.400887
353.161314	2495.875269
353.551276	2497.261587
353.941175	2493.692450
354.331010	2493.526092
354.720782	2496.094559
355.110490	2494.988026
355.500135	2495.802173
355.889717	2493.193375
356.279235	2494.120948
356.668689	2495.086329
357.058080	2498.756289
357.447408	2494.559528
357.836672	2495.487100
358.225873	2494.219250
358.615010	2493.082470
359.004084	2500.056906
359.393095	2502.020436
359.782043	2497.934581
360.170927	2499.215034
360.559748	2501.044972
360.948505	2502.305261
361.337199	2502.048162
361.725830	2501.869201
362.114398	2501.148316
362.502903	2501.047493
362.891344	2502.978255
363.279722	2503.373986
363.668037	2504.369613
364.056289	2506.907834
364.444478	2502.980776
364.832603	2503.603358
365.220665	2505.403050
365.608665	2507.689213
365.996601	2507.343894
366.384474	2506.680982
366.772284	2508.382372
367.160031	2508.175685
367.547715	2504.387257
367.935336	2507.260715
368.322893	2506.464213
368.710388	2509.143586
369.097820	2511.001251
369.485189	2508.563853
369.872495	2509.526714
370.259738	2510.245078
370.646918	2510.144255
371.034035	2507.951353
371.421090	2510.106447
371.808081	2509.418329
372.195010	2511.845645
372.581875	2510.799605
372.968678	2509.864471
373.355418	2510.958402
373.742096	2511.631396
374.128710	2514.189781
374.515262	2511.946468
374.901751	2513.995697
375.288177	2512.911849
375.674540	2511.084430
376.060841	2510.832373
376.447079	2513.390758
376.833254	2516.052488
377.219367	2508.934378
377.605417	2512.884122
377.991404	2510.784482
378.377329	2512.420336
378.763191	2510.222393
379.148991	2515.618948
379.534727	2514.146931
379.920402	2515.361849
380.306013	2511.528052
380.691563	2515.709689
381.077049	2513.668022
381.462474	2515.865965
381.847835	2514.280522
382.233134	2514.850172
382.618371	2515.591222
383.003545	2517.456449
383.388657	2517.814371
383.773706	2517.126253
384.158693	2517.683301
384.543618	2518.462159
384.928480	2519.871162
385.313280	2516.632220
385.698017	2516.213804
386.082692	2517.353105
386.467305	2518.378980
386.851856	2520.045081
387.236344	2519.462828
387.620770	2523.536080
388.005133	2521.678415
388.389435	2518.038702
388.773674	2521.169259
389.157851	2518.641120
389.541965	2519.780421
389.926018	2518.109278
390.310008	2519.404855
390.693936	2520.337468
391.077802	2522.147242
391.461606	2523.072294
391.845348	2521.968282
392.229027	2522.626152
392.612645	2524.050278
392.996200	2522.061543
393.379694	2526.245701
393.763125	2522.933663
394.146494	2525.124044
394.529801	2524.214116
394.913047	2520.493744
395.296230	2524.982892
395.679351	2522.807634
396.062410	2525.219826
396.445408	2524.075484
396.828343	2525.791997
397.211217	2521.708662
397.594028	2525.872655
397.976778	2520.115657
398.359466	2521.343178
398.742092	2520.710514
399.124656	2522.651358
399.507158	2525.940711
399.889598	2526.064219
400.271977	2526.175124
400.654294	2526.323838
401.036549	2525.734023
401.418742	2525.918026
401.800874	2527.821061
402.182944	2527.067409
402.564952	2528.115969
402.946898	2527.695032
403.328783	2530.528161
403.710606	2528.592358
404.092367	2529.550177
404.474067	2527.576565
404.855705	2527.599250
405.237282	2528.899868
405.618797	2525.741585
406.000250	2529.981196
406.381642	2531.561597
406.762972	2528.826771
407.144240	2527.513551
407.525447	2532.665610
407.906593	2529.847605
408.287677	2526.152439
408.668700	2528.486493
409.049661	2531.727955
409.430560	2530.379447
409.811399	2532.877338
410.192176	2530.669313
410.572891	2531.201155
410.953545	2528.647810
411.334138	2531.808614
411.714669	2530.434899
412.095139	2531.614529
412.475547	2531.299457
412.855894	2531.412883
413.236180	2532.650487
413.616405	2532.353058
413.996568	2532.655528
414.376670	2532.078316
414.756711	2532.458923
415.136691	2533.411701
415.516609	2534.125024
415.896466	2531.516227
416.276262	2534.982020
416.655997	2528.184024
417.035670	2529.388860
417.415283	2530.790301
417.794834	2528.816689
418.174324	2533.401618
418.553753	2531.586803
418.933121	2534.631660
419.312428	2535.009747
419.691674	2531.808614
420.070859	2535.624767
420.449983	2535.082843
420.829045	2537.237937
421.208047	2533.482277
421.586988	2531.861546
421.965867	2536.678368
422.344686	2535.223996
422.723444	2537.588297
423.102141	2535.690302
423.480777	2537.101825
423.859352	2536.345652
424.237866	2535.876825
424.616319	2535.551671
424.994712	2539.856816
425.373044	2534.883718
425.751314	2537.109387
426.129524	2539.105684
426.507673	2537.268183
426.885762	2535.433203
427.263789	2535.566794
427.641756	2536.905220
428.019662	2536.627957
428.397508	2538.760365
428.775292	2533.883049
429.153016	2536.648122
429.530679	2539.546785
429.908282	2538.931764
430.285824	2537.157278
430.663305	2536.832124
431.040726	2538.407484
431.418086	2538.750283
431.795385	2542.468134
432.172624	2540.290355
432.549802	2540.297917
432.926920	2538.354552
433.303977	2542.962167
433.680974	2536.572504
434.057910	2538.982176
434.434786	2541.653987
434.811601	2541.069213
435.188355	2541.525438
435.565050	2541.538041
435.941683	2540.560057
436.318257	2540.928061
436.694770	2538.243647
437.071222	2539.755993
437.447614	2535.725590
437.823946	2538.069727
438.200218	2542.977290
438.576429	2542.818494
438.952580	2541.459903
439.328670	2544.008206
439.704700	2543.322609
440.080670	2542.188350
440.456580	2540.940664
440.832429	2542.097609
441.208218	2542.969728
441.583947	2542.410160
441.959616	2541.018802
442.335224	2542.337064
442.710773	2543.299924
443.086261	2545.455017
443.461689	2541.248174
443.837057	2540.358411
444.212365	2544.421581
444.587612	2541.051569
444.962800	2543.204142
445.337927	2543.365459
445.712995	2541.674152
446.088002	2544.958464
446.462949	2543.010058
446.837837	2541.991745
447.212664	2544.540048
447.587431	2545.331509
447.962139	2543.403268
448.336786	2548.063814
448.711374	2545.064328
449.085901	2546.236396
449.460369	2544.063659
449.834776	2545.089534
450.209124	2545.339071
450.583412	2545.371838
450.957640	2547.111036
451.331808	2547.088351
451.705917	2543.514173
452.079965	2543.612476
452.453954	2545.560882
452.827883	2545.223124
453.201752	2546.511139
453.575562	2546.521221
453.949311	2546.647250
454.323001	2545.787733
454.696632	2548.648588
455.070202	2548.394010
455.443713	2547.970553
455.817164	2545.644061
456.190556	2545.087013
456.563888	2543.841848
456.937160	2542.122815
457.310373	2546.881664
457.683526	2550.080276
458.056619	2547.955430
458.429653	2549.326623
458.802628	2548.739329
459.175542	2547.461397
459.548398	2548.288146
459.921194	2548.603218
460.293930	2547.678166
460.666607	2548.489792
461.039224	2551.030533
461.411782	2549.860986
461.784280	2550.952396
462.156719	2552.752087
462.529099	2550.216387
462.901419	2550.239072
463.273680	2547.353012
463.645882	2550.662529
464.018024	2551.499361
464.390106	2553.041954
464.762130	2550.793599
465.134094	2555.161759
465.505999	2556.132181
465.877845	2556.835422
466.249631	2557.306770
466.621358	2555.638148
466.993026	2559.993705
467.364634	2560.800290
467.736184	2556.263251
468.107674	2556.016235
468.479105	2556.303580
468.850477	2556.706873
469.221790	2558.191492
469.593043	2554.201419
469.964238	2557.536142
470.335373	2554.158569
470.706449	2558.786349
471.077467	2558.564538
471.448425	2562.332800
471.819324	2564.250959
472.190164	2563.764488
472.560945	2563.802297
472.931667	2561.561504
473.302330	2562.219374
473.672934	2562.766340
474.043479	2565.012174
474.413965	2563.509910
474.784393	2560.321380
475.154761	2565.733059
475.525070	2566.012843
475.895321	2567.348748
476.265513	2564.692060
476.635645	2575.964080
477.005719	2576.831159
477.375734	2582.399113
477.745691	2581.721078
478.115588	2587.062181
478.485427	2591.682398
478.855207	2601.721856
479.224928	2610.551437
479.594591	2620.706841
479.964194	2619.605349
480.333739	2625.390073
480.703226	2628.016514
481.072653	2642.277939
481.442022	2650.873106
481.811333	2660.990702
482.180584	2665.789880
482.549777	2671.483863
482.918912	2674.836231
483.287988	2685.735205
483.657005	2693.400280
484.025964	2697.682740
484.394864	2708.488453
484.763706	2718.573282
485.132489	2723.715258
485.501213	2731.894531
485.869879	2742.690162
486.238487	2754.877151
486.607036	2767.631270
486.975527	2778.061417
487.343959	2792.821916
487.712333	2810.294555
488.080648	2823.734271
488.448905	2843.722446
488.817104	2854.407172
489.185244	2882.388096
489.553326	2911.835997
489.921350	2957.891978
490.289315	3034.784698
490.657222	3070.816345
491.025070	3095.492793
491.392861	3114.719754
491.760593	3114.548354
492.128267	3120.025568
492.495883	3121.560599
492.863440	3128.335910
493.230939	3137.780512
493.598380	3160.959737
493.965763	3181.331040
494.333088	3196.930891
494.700354	3222.129098
495.067563	3252.847369
495.434713	3273.654732
495.801805	3317.613593
496.168839	3343.368848
496.535815	3378.556102
496.902733	3402.650297
497.269593	3439.317129
497.636395	3476.165443
498.003139	3525.062115
498.369825	3539.467212
498.736453	3604.185545
499.103023	3630.273516
499.469535	3678.834951
499.835989	3714.770817
500.202385	3754.860592
500.568723	3783.612813
500.935003	3852.359028
501.301226	3892.063156
501.667390	3958.215697
502.033497	4031.423334
502.399546	4052.676838
502.765537	4087.241510
503.131470	4152.083351
503.497345	4233.356833
503.863163	4213.159450
504.228923	4330.509950
504.594625	4390.028333
504.960269	4397.330444
505.325856	4500.419520
505.691385	4516.190770
506.056856	4603.438019
506.422270	4675.642466
506.787625	4695.688614
507.152924	4793.519766
507.518164	4841.216643
507.883347	4883.680803
508.248472	4917.292696
508.613540	5043.893713
508.978550	5084.855609
509.343503	5132.638186
509.708398	5231.011262
510.073236	5331.350388
510.438016	5397.858331
510.802738	5451.153409
511.167403	5535.202047
511.532010	5577.976237
511.896561	5704.978026
512.261053	5805.423016
512.625488	5826.835317
512.989866	5893.539865
513.354186	5961.449248
513.718449	5995.719012
514.082655	6130.874867
514.446803	6168.388614
514.810894	6280.211488
515.174927	6312.190048
515.538904	6377.601539
515.902822	6517.821234
516.266684	6528.992431
516.630488	6584.964362
516.994235	6667.341857
517.357925	6775.000738
517.721558	6894.357617
518.085133	6968.717157
518.448651	7041.705503
518.812112	7052.498613
519.175516	7133.225131
519.538863	7268.358301
519.902152	7284.500075
520.265385	7459.702857
520.628560	7470.634599
520.991678	7538.191101
521.354739	7632.344732
521.717743	7664.550143
522.080690	7722.929225
522.443580	7879.797330
522.806413	7923.756192
523.169189	8006.552102
523.531908	8105.641022
523.894569	8071.693892
524.257174	8143.205180
524.619722	8285.222046
524.982213	8303.213924
525.344647	8408.251405
525.707025	8441.127290
526.069345	8567.859377
526.431608	8584.578364
526.793815	8709.273825
527.155964	8629.784911
527.518057	8715.991162
527.880093	8753.719158
528.242072	8851.441925
528.603995	8848.691976
528.965860	8854.136422
529.327669	8940.267056
529.689421	8953.863048
530.051117	8994.658585
530.412755	9128.443247
530.774337	9086.770548
531.135862	9138.051686
531.497331	9197.842291
531.858743	9133.597827
532.220098	9312.304210
532.581396	9258.255479
532.942638	9295.650758
533.303824	9308.099888
533.664953	9375.172439
534.026025	9350.034726
534.387040	9471.902099
534.747999	9513.794088
535.108902	9600.262479
535.469748	9444.808418
535.830537	9572.095032
536.191270	9596.504299
536.551947	9664.625411
536.912567	9689.165748
537.273131	9657.025872
537.633638	9680.978914
537.994089	9710.371362
538.354483	9699.517757
538.714821	9852.383186
539.075103	9898.691225
539.435328	9899.699456
539.795497	9776.420559
540.155609	9951.106622
540.515665	10054.031860
540.875665	9854.613897
541.235609	9941.397360
541.595496	9957.521491
541.955328	10135.930446
542.315102	10058.775586
542.674821	10035.414879
543.034483	10057.545545
543.394090	10090.537376
543.753640	10038.636177
544.113134	10268.263255
544.472571	10157.216718
544.831953	10316.232354
545.191278	10159.515484
545.550548	10200.931083
545.909761	10352.798364
546.268918	10340.999543
546.628019	10444.005440
546.987064	10331.595271
547.346053	10276.409759
547.704986	10391.101051
548.063863	10395.885106
548.422684	10404.389532
548.781449	10336.946455
549.140158	10450.881573
549.498811	10345.372744
549.857408	10227.160207
550.215949	10453.654208
550.574434	10325.611421
550.932864	10429.744015
551.291237	10504.889975
551.649555	10464.412030
552.007817	10485.728549
552.366022	10457.051946
552.724173	10463.197112
553.082267	10460.202667
553.440305	10599.477145
553.798288	10414.139124
554.156215	10573.207692
554.514086	10558.752183
554.871902	10426.457183
555.229661	10462.468666
555.587365	10439.959914
555.945014	10340.248411
556.302606	10480.367282
556.660143	10377.187466
557.017625	10535.409121
557.375050	10441.131982
557.732421	10574.606612
558.089735	10500.894861
558.446994	10506.127578
558.804197	10544.470595
559.161345	10555.926617
559.518437	10408.130068
559.875474	10498.679274
560.232455	10531.603049
560.589381	10487.621503
560.946251	10480.818466
561.303065	10589.178067
561.659825	10530.312514
562.016528	10471.482249
562.373177	10347.399288
562.729770	10470.423606
563.086307	10387.887315
563.442789	10479.139761
563.799216	10361.829591
564.155587	10414.310523
564.511904	10369.920643
564.868164	10358.877995
565.224370	10371.881652
565.580520	10306.339090
565.936615	10310.805552
566.292654	10179.909472
566.648638	10316.519700
567.004567	10272.185272
567.360441	10256.945864
567.716260	10170.222895
568.072023	10264.051371
568.427732	10219.117046
568.783385	10129.704621
569.138982	10206.456188
569.494525	10222.192150
569.850013	10096.720351
570.205445	10176.123565
570.560823	10081.405326
570.916145	10001.122430
571.271412	10068.157173
571.626625	10016.997024
571.981782	9989.759669
572.336884	9965.804106
572.691931	9969.000198
573.046923	9921.154607
573.401860	9882.322599
573.756743	9813.583945
574.111570	9853.484678
574.466342	9834.048509
574.821059	9868.472028
575.175722	9761.889433
575.530330	9774.325960
575.884882	9767.379250
576.239380	9692.979381
576.593823	9678.927164
576.948211	9688.966622
577.302544	9570.111338
577.656823	9583.450231
578.011047	9589.267723
578.365216	9560.218074
578.719330	9485.709820
579.073389	9495.653496
579.427394	9446.484602
579.781344	9427.103886
580.135239	9372.793015
580.489080	9389.345643
580.842866	9288.174727
581.196597	9287.146332
581.550273	9335.095266
581.903895	9301.359865
582.257463	9364.916212
582.610975	9241.201255
582.964434	9271.617057
583.317837	9195.225932
583.671186	9173.117952
584.024481	9174.398405
584.377721	9093.510571
584.730906	9068.473681
585.084037	9095.814378
585.437113	9037.329432
585.790135	9059.744923
586.143103	8955.672822
586.496016	8931.540819
586.848874	8983.850352
587.201679	8976.399526
587.554428	8864.649748
587.907124	8913.029702
588.259765	8884.673211
588.612352	8887.034992
588.964884	8763.836754
589.317362	8775.743959
589.669786	8774.776057
590.022155	8826.490734
590.374470	8839.474226
590.726731	8780.833004
591.078937	8628.252400
591.431090	8746.666584
591.783188	8620.877192
592.135232	8613.103733
592.487222	8611.394782
592.839157	8660.528388
593.191038	8598.401208
593.542866	8541.607569
593.894639	8441.520500
594.246358	8490.709559
594.598022	8506.407712
594.949633	8410.456910
595.301190	8388.606029
595.652692	8414.636027
596.004141	8521.402624
596.355535	8298.296278
596.706876	8280.896736
597.058162	8213.940130
597.409395	8288.581975
597.760573	8349.453908
598.111698	8258.675330
598.462768	8247.612518
598.813785	8214.071200
599.164748	8183.032816
599.515657	8171.271804
599.866511	8080.193278
600.217312	8209.133390
600.568060	8071.036022
600.918753	8168.133686
601.269392	8144.989749
601.619978	8057.437509
601.970510	8121.054350
602.320988	8115.151159
602.671412	8168.942791
603.021783	8112.179399
603.372100	8087.278619
603.722363	8084.342147
604.072572	8058.231491
604.422728	8069.301865
604.772830	8002.738469
605.122878	8009.097885
605.472872	8001.599169
605.822813	8035.150568
606.172701	7977.686455
606.522534	8051.239411
606.872314	8051.952734
607.222041	8022.656068
607.571714	8080.773010
607.921333	8035.521093
608.270899	8046.157927
608.620411	8131.948284
608.969870	8039.924541
609.319276	8031.906586
609.668627	8047.405613
610.017926	8085.305008
610.367171	8125.820761
610.716362	8101.091381
611.065500	8097.060978
611.414585	8123.280020
611.763616	8112.202084
612.112594	8090.436902
612.461518	8108.254861
612.810389	8164.519179
613.159207	8107.324768
613.507971	8056.215029
613.856682	8175.219028
614.205340	8133.231257
614.553945	8215.417188
614.902496	8105.441897
615.250994	8160.778643
615.599439	8141.793657
615.947830	8150.426633
616.296169	8129.342007
616.644454	8140.583780
616.992686	8142.728791
617.340864	8198.239457
617.688990	8097.101308
618.037063	8196.817851
618.385082	8142.887587
618.733048	8228.998057
619.080961	8166.926330
619.428821	8187.927777
619.776628	8191.128909
620.124382	8136.767627
620.472083	8123.310267
620.819731	8151.641551
621.167326	8044.280098
621.514868	8056.512457
621.862357	7940.129859
622.209793	7958.446892
622.557176	7891.747385
622.904506	7865.503138
623.251783	7796.978734
623.599007	7752.122547
623.946179	7757.740913
624.293297	7717.804892
624.640363	7629.897252
624.987376	7617.032227
625.334336	7566.305616
625.681243	7510.268150
626.028097	7500.037128
626.374899	7479.499468
626.721647	7474.223900
627.068343	7403.869557
627.414987	7376.110443
627.761577	7333.182498
628.108115	7368.573918
628.454600	7267.997858
628.801032	7315.276319
629.147412	7271.700586
629.493739	7261.731704
629.840014	7200.993362
630.186236	7253.433965
630.532405	7137.797457
630.878521	7192.819131
631.224585	7148.013355
631.570597	7070.946716
631.916556	7105.145904
632.262462	7103.981397
632.608316	7063.574028
632.954117	7040.442694
633.299866	7025.162957
633.645562	7018.944693
633.991206	6941.152128
634.336797	6883.529219
634.682336	6840.535738
635.027823	6809.605739
635.373257	6802.306148
635.718639	6730.315951
636.063968	6743.491006
636.409245	6645.722868
636.754470	6634.120653
637.099642	6595.114725
637.444762	6540.065325
637.789829	6551.304578
638.134845	6491.677810
638.479808	6476.090562
638.824719	6482.399566
639.169577	6412.362816
639.514383	6431.375527
639.859137	6357.194949
640.203839	6365.230548
640.548489	6356.290062
640.893086	6329.718140
641.237632	6303.705786
641.582125	6322.418549
641.926566	6293.182377
642.270955	6307.589995
642.615292	6300.421474
642.959576	6317.175749
643.303809	6303.665457
