Dividing Wavelength (nm)	Counts (n)	Blue Motor Position (mm): 2.400000	Red Motor Position (mm): 0.000000	
326.493990	2162.584424
326.888308	2162.584424
327.282561	2162.584424
327.676750	2123.286109
328.070874	2120.044647
328.464933	2119.356530
328.858929	2123.550770
329.252859	2127.785339
329.646726	2135.420166
330.040528	2149.732002
330.434265	2161.001502
330.827938	2179.709223
331.221547	2196.430731
331.615091	2213.537886
332.008571	2231.885166
332.401986	2251.928793
332.795338	2270.974273
333.188625	2287.743671
333.581847	2306.227062
333.975006	2325.343117
334.368100	2343.748370
334.761129	2361.813344
335.154095	2378.635675
335.546996	2396.206617
335.939833	2410.790675
336.332606	2426.103179
336.725315	2438.736311
337.117960	2450.875409
337.510540	2463.906792
337.903056	2472.219655
338.295508	2486.299597
338.687896	2492.918633
339.080220	2499.761999
339.472480	2505.708040
339.864676	2511.737260
340.256807	2516.112981
340.648875	2523.989784
341.040879	2525.981040
341.432818	2526.956503
341.824694	2529.552698
342.216506	2529.479601
342.608253	2532.882380
342.999937	2530.122348
343.391557	2532.779036
343.783113	2530.192924
344.174605	2529.595547
344.566033	2527.616894
344.957397	2527.740403
345.348697	2525.166894
345.739934	2526.003725
346.131106	2523.062212
346.522215	2519.941738
346.913260	2519.861079
347.304241	2518.590708
347.695159	2515.573578
348.086012	2515.162724
348.476802	2512.435460
348.867528	2507.628719
349.258191	2506.358349
349.648789	2507.351456
350.039324	2501.884325
350.429796	2505.430776
350.820203	2502.887514
351.210548	2502.663183
351.600828	2502.474140
351.991045	2498.811741
352.381198	2499.497338
352.771288	2498.070692
353.161314	2496.288644
353.551276	2498.131186
353.941175	2496.734786
354.331010	2496.313850
354.720782	2495.174549
355.110490	2497.541371
355.500135	2495.555156
355.889717	2499.267966
356.279235	2496.512975
356.668689	2497.357368
357.058080	2494.544405
357.447408	2497.654797
357.836672	2497.077584
358.225873	2496.775115
358.615010	2494.148674
359.004084	2499.676299
359.393095	2498.776453
359.782043	2501.498676
360.170927	2499.577997
360.559748	2502.360714
360.948505	2502.832062
361.337199	2503.489932
361.725830	2500.666886
362.114398	2503.774757
362.502903	2501.627226
362.891344	2504.959428
363.279722	2501.780981
363.668037	2504.687206
364.056289	2505.491270
364.444478	2505.347597
364.832603	2504.803153
365.220665	2504.689727
365.608665	2508.331960
365.996601	2507.784995
366.384474	2505.133348
366.772284	2506.665859
367.160031	2509.025119
367.547715	2508.233658
367.935336	2507.570746
368.322893	2509.128463
368.710388	2505.536641
369.097820	2506.123935
369.485189	2505.420694
369.872495	2510.953360
370.259738	2508.498318
370.646918	2510.398833
371.034035	2511.031498
371.421090	2510.592918
371.808081	2510.900428
372.195010	2514.265398
372.581875	2511.969153
372.968678	2512.311951
373.355418	2509.441014
373.742096	2513.393279
374.128710	2513.690707
374.515262	2513.718433
374.901751	2514.179699
375.288177	2514.666170
375.674540	2514.593073
376.060841	2515.293794
376.447079	2513.567199
376.833254	2514.736746
377.219367	2512.334637
377.605417	2517.088445
377.991404	2516.622138
378.377329	2516.259175
378.763191	2517.587519
379.148991	2516.002076
379.534727	2517.721109
379.920402	2516.269257
380.306013	2515.503002
380.691563	2517.232117
381.077049	2516.725482
381.462474	2515.026613
381.847835	2516.266737
382.233134	2516.717920
382.618371	2516.712879
383.003545	2515.770183
383.388657	2516.095337
383.773706	2518.754546
384.158693	2520.826460
384.543618	2516.826305
384.928480	2515.268588
385.313280	2520.740761
385.698017	2519.447705
386.082692	2517.136336
386.467305	2519.039371
386.851856	2521.915349
387.236344	2520.889475
387.620770	2519.911491
388.005133	2519.755215
388.389435	2517.590039
388.773674	2519.059536
389.157851	2520.425688
389.541965	2520.478621
389.926018	2519.974505
390.310008	2520.155987
390.693936	2522.227901
391.077802	2522.666481
391.461606	2524.582120
391.845348	2522.212778
392.229027	2523.571368
392.612645	2520.319824
392.996200	2524.836698
393.379694	2523.236132
393.763125	2524.166225
394.146494	2521.973323
394.529801	2523.452901
394.913047	2525.655886
395.296230	2523.609177
395.679351	2522.853004
396.062410	2524.478776
396.445408	2525.297964
396.828343	2524.052799
397.211217	2520.702952
397.594028	2525.461801
397.976778	2523.762932
398.359466	2527.904240
398.742092	2526.437264
399.124656	2525.749147
399.507158	2524.806451
399.889598	2528.738551
400.271977	2525.466842
400.654294	2527.228726
401.036549	2524.935001
401.418742	2528.615043
401.800874	2527.606812
402.182944	2527.775691
402.564952	2527.518592
402.946898	2525.613036
403.328783	2527.299302
403.710606	2528.942718
404.092367	2526.757378
404.474067	2526.659075
404.855705	2528.456247
405.237282	2527.942049
405.618797	2527.795855
406.000250	2529.018335
406.381642	2529.003212
406.762972	2525.544980
407.144240	2526.336441
407.525447	2527.453057
407.906593	2525.550021
408.287677	2530.248377
408.668700	2528.158818
409.049661	2531.206196
409.430560	2530.565969
409.811399	2531.412883
410.192176	2528.546987
410.572891	2532.108562
410.953545	2531.357431
411.334138	2528.146216
411.714669	2530.520599
412.095139	2531.710311
412.475547	2532.700898
412.855894	2531.077647
413.236180	2530.515558
413.616405	2531.788449
413.996568	2530.964221
414.376670	2531.075126
414.756711	2532.053110
415.136691	2534.493028
415.516609	2532.630322
415.896466	2534.215765
416.276262	2531.531350
416.655997	2530.361803
417.035670	2534.263656
417.415283	2531.491021
417.794834	2531.889272
418.174324	2530.782739
418.553753	2533.837678
418.933121	2534.525796
419.312428	2530.563449
419.691674	2534.397246
420.070859	2533.567977
420.449983	2534.188038
420.829045	2532.375744
421.208047	2531.796011
421.586988	2535.776002
421.965867	2535.614685
422.344686	2535.471012
422.723444	2535.055117
423.102141	2535.471012
423.480777	2537.913451
423.859352	2535.264325
424.237866	2536.048224
424.616319	2536.988399
424.994712	2535.786084
425.373044	2539.856816
425.751314	2533.557894
426.129524	2532.685775
426.507673	2532.824406
426.885762	2530.747451
427.263789	2536.713657
427.641756	2535.375230
428.019662	2536.098636
428.397508	2535.871784
428.775292	2538.049562
429.153016	2535.024870
429.530679	2538.188194
429.908282	2536.980838
430.285824	2538.208359
430.663305	2536.451517
431.040726	2537.041332
431.418086	2537.149716
431.795385	2540.552495
432.172624	2537.487474
432.549802	2541.429656
432.926920	2536.943029
433.303977	2541.354039
433.680974	2538.823379
434.057910	2538.465457
434.434786	2538.437731
434.811601	2540.726415
435.188355	2538.914120
435.565050	2539.945036
435.941683	2538.059645
436.318257	2540.179450
436.694770	2538.720036
437.071222	2539.060314
437.447614	2540.499563
437.823946	2541.404450
438.200218	2539.627443
438.576429	2537.830272
438.952580	2539.443441
439.328670	2537.374048
439.704700	2541.038967
440.080670	2539.811446
440.456580	2539.871939
440.832429	2539.425797
441.208218	2540.544933
441.583947	2543.262115
441.959616	2540.292876
442.335224	2540.131559
442.710773	2539.897145
443.086261	2539.171219
443.461689	2541.553164
443.837057	2540.963349
444.212365	2541.820345
444.587612	2538.266332
444.962800	2537.429500
445.337927	2541.293545
445.712995	2535.183666
446.088002	2541.651467
446.462949	2540.547454
446.837837	2545.719678
447.212664	2540.408822
447.587431	2541.472506
447.962139	2543.118443
448.336786	2543.730943
448.711374	2538.611651
449.085901	2543.388144
449.460369	2540.507125
449.834776	2541.979142
450.209124	2542.541230
450.583412	2544.577857
450.957640	2544.046015
451.331808	2542.357228
451.705917	2541.996786
452.079965	2541.001158
452.453954	2546.062476
452.827883	2544.013247
453.201752	2542.747918
453.575562	2543.652805
453.949311	2543.627599
454.323001	2544.046015
454.696632	2544.083823
455.070202	2541.427135
455.443713	2542.694986
455.817164	2543.950233
456.190556	2543.383103
456.563888	2542.505942
456.937160	2543.713299
457.310373	2544.121632
457.683526	2541.313709
458.056619	2543.408309
458.429653	2542.485778
458.802628	2541.565767
459.175542	2542.868905
459.548398	2544.766900
459.921194	2546.362425
460.293930	2545.666746
460.666607	2543.836807
461.039224	2546.090203
461.411782	2543.632640
461.784280	2545.727240
462.156719	2542.936961
462.529099	2545.820501
462.901419	2543.219266
463.273680	2541.409491
463.645882	2541.200283
464.018024	2541.898483
464.390106	2540.116435
464.762130	2545.931406
465.134094	2543.569626
465.505999	2546.460728
465.877845	2548.235214
466.249631	2547.156407
466.621358	2546.758156
466.993026	2544.603062
467.364634	2546.866540
467.736184	2546.017106
468.107674	2544.151879
468.479105	2544.920655
468.850477	2546.092723
469.221790	2546.196067
469.593043	2547.342929
469.964238	2547.955430
470.335373	2544.968546
470.706449	2548.036088
471.077467	2545.618855
471.448425	2548.822508
471.819324	2544.620706
472.190164	2547.753783
472.560945	2547.847045
472.931667	2547.499205
473.302330	2546.995090
473.672934	2546.087682
474.043479	2546.720347
474.413965	2545.447456
474.784393	2548.131870
475.154761	2550.760832
475.525070	2547.877292
475.895321	2550.849052
476.265513	2547.050542
476.635645	2548.187323
477.005719	2550.531459
477.375734	2550.443239
477.745691	2549.379556
478.115588	2548.189843
478.485427	2550.705379
478.855207	2546.531304
479.224928	2546.138094
479.594591	2548.260419
479.964194	2546.652291
480.333739	2546.314534
480.703226	2546.324616
481.072653	2550.324772
481.442022	2547.952909
481.811333	2546.296890
482.180584	2543.093237
482.549777	2545.429812
482.918912	2542.170706
483.287988	2548.341078
483.657005	2549.286294
484.025964	2546.201108
484.394864	2549.079607
484.763706	2547.393341
485.132489	2550.012220
485.501213	2550.506253
485.869879	2551.431305
486.238487	2548.235214
486.607036	2548.666232
486.975527	2548.837632
487.343959	2550.188661
487.712333	2547.118598
488.080648	2549.336706
488.448905	2550.496171
488.817104	2550.344937
489.185244	2549.676984
489.553326	2550.919628
489.921350	2551.335523
490.289315	2549.833259
490.657222	2550.418033
491.025070	2550.508774
491.392861	2552.875596
491.760593	2549.341747
492.128267	2551.048177
492.495883	2549.006510
492.863440	2550.468445
493.230939	2550.652447
493.598380	2554.564382
493.965763	2549.124977
494.333088	2549.006510
494.700354	2547.844524
495.067563	2550.670091
495.434713	2546.501057
495.801805	2552.472303
496.168839	2550.702858
496.535815	2552.285781
496.902733	2553.359547
497.269593	2550.982642
497.636395	2548.157076
498.003139	2549.586243
498.369825	2550.481048
498.736453	2551.229659
499.103023	2549.573640
499.469535	2549.233362
499.835989	2552.172355
500.202385	2544.693803
500.568723	2547.635316
500.935003	2547.710934
501.301226	2546.158258
501.667390	2550.912066
502.033497	2550.826367
502.399546	2552.167314
502.765537	2552.048847
503.131470	2550.433157
503.497345	2551.474155
503.863163	2552.154711
504.228923	2552.711758
504.594625	2552.595812
504.960269	2549.901315
505.325856	2551.698486
505.691385	2551.423743
506.056856	2550.791079
506.422270	2552.288301
506.787625	2552.510112
507.152924	2551.194371
507.518164	2548.356201
507.883347	2552.270657
508.248472	2548.454504
508.613540	2550.395348
508.978550	2550.385266
509.343503	2552.958775
509.708398	2552.522715
510.073236	2551.716130
510.438016	2551.272509
510.802738	2550.115564
511.167403	2552.457180
511.532010	2551.693445
511.896561	2550.198743
512.261053	2551.005328
512.625488	2553.407438
512.989866	2549.911397
513.354186	2550.617159
513.718449	2551.123795
514.082655	2551.481717
514.446803	2554.302242
514.810894	2548.920811
515.174927	2555.733930
515.538904	2553.057077
515.902822	2552.716799
516.266684	2551.048178
516.630488	2551.229659
516.994235	2552.321069
517.357925	2552.323589
517.721558	2552.189999
518.085133	2551.559855
518.448651	2551.703528
518.812112	2549.172868
519.175516	2549.064483
519.538863	2546.979966
519.902152	2552.061449
520.265385	2552.134546
520.628560	2551.847200
520.991678	2553.283929
521.354739	2551.842159
521.717743	2553.591440
522.080690	2554.254351
522.443580	2554.519012
522.806413	2552.104299
523.169189	2550.690256
523.531908	2550.390307
523.894569	2550.067673
524.257174	2552.752088
524.619722	2556.195196
524.982213	2553.483055
525.344647	2554.246790
525.707025	2554.773590
526.069345	2551.993394
526.431608	2551.101110
526.793815	2552.842828
527.155964	2552.779814
527.518057	2554.750905
527.880093	2554.030020
528.242072	2552.865513
528.603995	2554.244269
528.965860	2551.133877
529.327669	2552.366439
529.689421	2550.929710
530.051117	2554.576985
530.412755	2555.658313
530.774337	2551.146480
531.135862	2553.838456
531.497331	2552.754608
531.858743	2553.324258
532.220098	2552.089176
532.581396	2553.442726
532.942638	2552.837787
533.303824	2553.084804
533.664953	2553.178065
534.026025	2552.464742
534.387040	2552.895760
534.747999	2553.102448
535.108902	2552.870555
535.469748	2551.857283
535.830537	2552.494989
536.191270	2551.292673
536.551947	2550.589432
536.912567	2548.693959
537.273131	2548.273022
537.633638	2548.835111
537.994089	2553.384752
538.354483	2554.282078
538.714821	2554.181255
539.075103	2551.678322
539.435328	2552.759649
539.795497	2553.611604
540.155609	2553.490617
540.515665	2552.923487
540.875665	2551.254865
541.235609	2553.876265
541.595496	2555.126471
541.955328	2551.443908
542.315102	2555.615463
542.674821	2555.537325
543.034483	2551.668239
543.394090	2552.517674
543.753640	2554.491286
544.113134	2554.458518
544.472571	2551.804351
544.831953	2552.406768
545.191278	2553.964485
545.550548	2553.052036
545.909761	2553.281409
546.268918	2553.031872
546.628019	2552.000956
546.987064	2553.336861
547.346053	2555.749053
547.704986	2553.838456
548.063863	2553.059598
548.422684	2552.076573
548.781449	2553.911553
549.140158	2554.506409
549.498811	2553.379711
549.857408	2554.713096
550.215949	2550.949875
550.574434	2552.071532
550.932864	2550.196223
551.291237	2554.405586
551.649555	2554.198899
552.007817	2553.568754
552.366022	2551.285112
552.724173	2554.556821
553.082267	2551.166645
553.440305	2553.296532
553.798288	2556.820299
554.156215	2554.604712
554.514086	2549.687066
554.871902	2550.501212
555.229661	2551.660678
555.587365	2548.794782
555.945014	2552.507592
556.302606	2555.484393
556.660143	2552.812581
557.017625	2552.623538
557.375050	2550.644885
557.732421	2554.634958
558.089735	2554.692932
558.446994	2554.813919
558.804197	2552.447098
559.161345	2554.244269
559.518437	2554.307283
559.875474	2553.909032
560.232455	2552.522715
560.589381	2554.302242
560.946251	2554.818961
561.303065	2553.606563
561.659825	2552.996583
562.016528	2553.959444
562.373177	2555.285267
562.729770	2555.433981
563.086307	2552.437015
563.442789	2553.772921
563.799216	2556.263251
564.155587	2555.433981
564.511904	2554.826522
564.868164	2554.771070
565.224370	2554.458518
565.580520	2554.299722
565.936615	2555.131512
566.292654	2554.876934
566.648638	2554.806358
567.004567	2553.767880
567.360441	2554.985319
567.716260	2552.069011
568.072023	2551.683363
568.427732	2556.026317
568.783385	2554.697973
569.138982	2554.685370
569.494525	2552.673950
569.850013	2552.273178
570.205445	2553.294012
570.560823	2555.166800
570.916145	2552.189999
571.271412	2555.673436
571.626625	2553.377191
571.981782	2553.599001
572.336884	2553.404917
572.691931	2550.037426
573.046923	2549.440049
573.401860	2550.473486
573.756743	2553.493137
574.111570	2552.316028
574.466342	2552.671429
574.821059	2551.789227
575.175722	2556.593447
575.530330	2555.249979
575.884882	2554.244269
576.239380	2557.556307
576.593823	2556.598488
576.948211	2555.096224
577.302544	2553.188147
577.656823	2551.675801
578.011047	2553.747715
578.365216	2553.951882
578.719330	2553.760318
579.073389	2554.650082
579.427394	2555.360885
579.781344	2556.563200
580.135239	2554.650082
580.489080	2554.128323
580.842866	2554.554300
581.196597	2555.116389
581.550273	2556.754764
581.903895	2554.214022
582.257463	2555.260062
582.610975	2553.399876
582.964434	2556.497665
583.317837	2556.255689
583.671186	2556.979095
584.024481	2553.813250
584.377721	2555.277706
584.730906	2552.053888
585.084037	2554.662685
585.437113	2555.791903
585.790135	2554.818961
586.143103	2556.880792
586.496016	2555.771739
586.848874	2555.733930
587.201679	2553.583878
587.554428	2555.023127
587.907124	2554.377860
588.259765	2556.285936
588.612352	2556.578323
588.964884	2555.897768
589.317362	2557.831050
589.669786	2558.357851
590.022155	2550.216387
590.374470	2549.697148
590.726731	2552.895760
591.078937	2548.971222
591.431090	2553.783003
591.783188	2554.602191
592.135232	2555.391132
592.487222	2554.478683
592.839157	2556.472459
593.191038	2554.897098
593.542866	2555.660833
593.894639	2556.283416
594.246358	2554.700493
594.598022	2556.245607
594.949633	2553.949362
595.301190	2555.887685
595.652692	2556.333827
596.004141	2554.196378
596.355535	2553.457849
596.706876	2554.839125
597.058162	2553.195709
597.409395	2556.222922
597.760573	2555.950700
598.111698	2557.344579
598.462768	2556.290977
598.813785	2556.197716
599.164748	2554.516491
599.515657	2553.951882
599.866511	2553.704866
600.217312	2553.959444
600.568060	2555.759136
600.918753	2555.421378
601.269392	2556.734599
601.619978	2554.738302
601.970510	2555.754095
602.320988	2555.108827
602.671412	2557.130330
603.021783	2557.233673
603.372100	2556.371636
603.722363	2553.173024
604.072572	2555.628066
604.422728	2554.703014
604.772830	2555.958261
605.122878	2555.020607
605.472872	2552.832746
605.822813	2556.958930
606.172701	2554.748384
606.522534	2555.401214
606.872314	2554.201419
607.222041	2554.660164
607.571714	2555.907850
607.921333	2554.022458
608.270899	2556.003632
608.620411	2554.849207
608.969870	2558.534291
609.319276	2559.724003
609.668627	2562.473953
610.017926	2568.616599
610.367171	2569.987793
610.716362	2567.315981
611.065500	2567.154664
611.414585	2561.939590
611.763616	2562.168963
612.112594	2562.226936
612.461518	2561.916905
612.810389	2558.776266
613.159207	2560.306257
613.507971	2560.364230
613.856682	2557.523540
614.205340	2557.112686
614.553945	2558.884651
614.902496	2557.344579
615.250994	2556.885834
615.599439	2555.817109
615.947830	2556.180072
616.296169	2557.463046
616.644454	2555.335679
616.992686	2555.885165
617.340864	2557.470607
617.688990	2556.238045
618.037063	2555.088662
618.385082	2553.725030
618.733048	2557.614280
619.080961	2555.807027
619.428821	2556.848025
619.776628	2555.444064
620.124382	2557.652089
620.472083	2554.438353
620.819731	2553.949362
621.167326	2552.734443
621.514868	2555.751574
621.862357	2555.272664
622.209793	2557.430278
622.557176	2554.501368
622.904506	2554.493806
623.251783	2558.110834
623.599007	2556.480021
623.946179	2554.466080
624.293297	2553.225956
624.640363	2557.732747
624.987376	2552.928528
625.334336	2551.070863
625.681243	2553.062118
626.028097	2550.052550
626.374899	2556.696790
626.721647	2555.171841
627.068343	2555.444064
627.414987	2554.057746
627.761577	2554.987839
628.108115	2555.703683
628.454600	2555.741492
628.801032	2556.749723
629.147412	2558.640155
629.493739	2561.140567
629.840014	2555.620504
630.186236	2554.559341
630.532405	2557.515978
630.878521	2556.923642
631.224585	2556.442212
631.570597	2553.452808
631.916556	2555.199568
632.262462	2553.104968
632.608316	2554.524053
632.954117	2553.619166
633.299866	2554.324927
633.645562	2554.864331
633.991206	2555.159238
634.336797	2553.846018
634.682336	2553.462890
635.027823	2554.602191
635.373257	2552.621018
635.718639	2556.850546
636.063968	2556.792572
636.409245	2552.575647
636.754470	2554.738302
637.099642	2551.635472
637.444762	2555.073539
637.789829	2553.014227
638.134845	2554.907181
638.479808	2551.602704
638.824719	2554.047664
639.169577	2553.218394
639.514383	2557.624363
639.859137	2554.287119
640.203839	2554.491286
640.548489	2555.922973
640.893086	2551.322920
641.237632	2554.587067
641.582125	2554.985319
641.926566	2554.282078
642.270955	2552.991542
642.615292	2550.609597
642.959576	2552.648744
643.303809	2548.479710
643.647990	2551.385935
643.992118	2551.448949
644.336195	2554.287119
