Dividing Wavelength (nm)	Counts (n)	Blue Motor Position (mm): 28.900000	Red Motor Position (mm): 0.000000	
326.493990	2131.551081
326.888308	2131.551081
327.282561	2131.551081
327.676750	2100.789960
328.070874	2095.542119
328.464933	2101.336925
328.858929	2105.992431
329.252859	2118.323093
329.646726	2129.973200
330.040528	2141.222534
330.434265	2158.228867
330.827938	2174.476506
331.221547	2194.434434
331.615091	2212.186857
332.008571	2232.109497
332.401986	2251.588516
332.795338	2270.944026
333.188625	2290.329783
333.581847	2307.467185
333.975006	2328.670278
334.368100	2345.066631
334.761129	2362.604806
335.154095	2380.299256
335.546996	2400.743655
335.939833	2424.512695
336.332606	2440.145313
336.725315	2452.612087
337.117960	2460.675412
337.510540	2468.728656
337.903056	2483.262302
338.295508	2487.685915
338.687896	2496.765033
339.080220	2505.297186
339.472480	2514.199863
339.864676	2516.622138
340.256807	2520.337468
340.648875	2521.360823
341.040879	2528.045392
341.432818	2524.456091
341.824694	2528.778880
342.216506	2528.978006
342.608253	2532.136289
342.999937	2532.221988
343.391557	2531.428007
343.783113	2530.218130
344.174605	2526.064219
344.566033	2524.345186
344.957397	2522.822757
345.348697	2520.939886
345.739934	2521.396111
346.131106	2521.055833
346.522215	2518.298322
346.913260	2515.208094
347.304241	2514.595594
347.695159	2511.608710
348.086012	2510.557630
348.476802	2506.547392
348.867528	2508.324399
349.258191	2506.040756
349.648789	2502.625374
350.039324	2504.263749
350.429796	2502.471619
350.820203	2502.413646
351.210548	2498.332832
351.600828	2499.419200
351.991045	2501.607061
352.381198	2498.443737
352.771288	2496.306288
353.161314	2497.800990
353.551276	2498.370640
353.941175	2497.057420
354.331010	2496.061792
354.720782	2493.326966
355.110490	2495.497183
355.500135	2494.990547
355.889717	2497.369971
356.279235	2494.725886
356.668689	2496.613798
357.058080	2495.948366
357.447408	2493.447954
357.836672	2494.020125
358.225873	2495.754282
358.615010	2496.276041
359.004084	2496.626401
359.393095	2498.446258
359.782043	2499.784684
360.170927	2498.620177
360.559748	2500.225785
360.948505	2502.998420
361.337199	2504.165447
361.725830	2503.789881
362.114398	2502.668224
362.502903	2503.366424
362.891344	2503.467247
363.279722	2503.983965
363.668037	2505.007319
364.056289	2505.052690
364.444478	2504.475478
364.832603	2505.634943
365.220665	2506.991013
365.608665	2506.335663
365.996601	2509.872033
366.384474	2508.561333
366.772284	2509.564522
367.160031	2506.078565
367.547715	2509.486385
367.935336	2508.952022
368.322893	2510.151817
368.710388	2509.151148
369.097820	2510.776920
369.485189	2509.307424
369.872495	2512.153155
370.259738	2512.465707
370.646918	2511.459996
371.034035	2509.216683
371.421090	2511.240706
371.808081	2511.946468
372.195010	2511.510408
372.581875	2511.424708
372.968678	2509.887156
373.355418	2513.572240
373.742096	2512.024606
374.128710	2511.386900
374.515262	2515.361849
374.901751	2512.140552
375.288177	2513.415964
375.674540	2513.315141
376.060841	2516.445697
376.447079	2514.903104
376.833254	2516.276819
377.219367	2511.157527
377.605417	2513.882271
377.991404	2511.228103
378.377329	2512.921931
378.763191	2511.260871
379.148991	2516.705317
379.534727	2516.627179
379.920402	2516.251613
380.306013	2516.511232
380.691563	2517.658095
381.077049	2516.798578
381.462474	2519.046933
381.847835	2518.867972
382.233134	2519.397293
382.618371	2516.470903
383.003545	2518.641120
383.388657	2519.356964
383.773706	2521.093641
384.158693	2518.641120
384.543618	2518.923425
384.928480	2521.121368
385.313280	2519.414937
385.698017	2522.059022
386.082692	2521.093641
386.467305	2520.085411
386.851856	2522.059022
387.236344	2523.273940
387.620770	2523.543642
388.005133	2520.995339
388.389435	2521.847294
388.773674	2522.958868
389.157851	2521.270082
389.541965	2522.358971
389.926018	2525.023221
390.310008	2521.237314
390.693936	2523.659589
391.077802	2521.988446
391.461606	2523.445340
391.845348	2524.493900
392.229027	2522.169928
392.612645	2524.766122
392.996200	2524.811492
393.379694	2524.486338
393.763125	2525.348375
394.146494	2522.885772
394.529801	2526.069260
394.913047	2525.749147
395.296230	2525.371060
395.679351	2528.241998
396.062410	2524.105731
396.445408	2525.986081
396.828343	2526.041534
397.211217	2523.667150
397.594028	2524.486338
397.976778	2520.735719
398.359466	2526.099507
398.742092	2521.496934
399.124656	2528.461288
399.507158	2527.019518
399.889598	2528.022707
400.271977	2531.362472
400.654294	2532.514375
401.036549	2526.379291
401.418742	2528.683098
401.800874	2529.285516
402.182944	2531.755682
402.564952	2529.913140
402.946898	2528.874662
403.328783	2528.468849
403.710606	2531.208717
404.092367	2530.588655
404.474067	2530.371885
404.855705	2532.438758
405.237282	2532.874818
405.618797	2530.951618
406.000250	2529.814838
406.381642	2530.606299
406.762972	2533.535209
407.144240	2535.281969
407.525447	2534.866074
407.906593	2536.973276
408.287677	2532.950435
408.668700	2533.111752
409.049661	2534.515713
409.430560	2534.283820
409.811399	2534.200641
410.192176	2533.913296
410.572891	2535.486136
410.953545	2533.714170
411.334138	2537.210210
411.714669	2535.851619
412.095139	2535.302133
412.475547	2537.444624
412.855894	2535.586959
413.236180	2536.547298
413.616405	2536.398584
413.996568	2538.452855
414.376670	2536.731301
414.756711	2536.965714
415.136691	2536.670807
415.516609	2538.127700
415.896466	2537.505118
416.276262	2537.006043
416.655997	2537.119469
417.035670	2533.986392
417.415283	2540.497043
417.794834	2532.809283
418.174324	2539.526620
418.553753	2541.021323
418.933121	2540.159285
419.312428	2541.187681
419.691674	2541.694317
420.070859	2541.691796
420.449983	2541.346477
420.829045	2543.436035
421.208047	2544.424101
421.586988	2542.198432
421.965867	2544.151879
422.344686	2543.899821
422.723444	2543.995603
423.102141	2544.897970
423.480777	2544.696324
423.859352	2545.823022
424.237866	2545.984338
424.616319	2546.012065
424.994712	2547.395862
425.373044	2547.446273
425.751314	2548.199926
426.129524	2546.044832
426.507673	2550.370142
426.885762	2551.514484
427.263789	2553.152859
427.641756	2551.995914
428.019662	2555.086142
428.397508	2553.157900
428.775292	2556.326266
429.153016	2560.333983
429.530679	2562.806669
429.908282	2566.980744
430.285824	2569.713050
430.663305	2574.844944
431.040726	2576.707651
431.418086	2580.738053
431.795385	2588.168714
432.172624	2591.165680
432.549802	2599.392843
432.926920	2605.616147
433.303977	2614.841459
433.680974	2619.726337
434.057910	2632.001547
434.434786	2640.974800
434.811601	2650.376552
435.188355	2669.338852
435.565050	2675.985614
435.941683	2689.100176
436.318257	2708.594317
436.694770	2719.495813
437.071222	2737.049110
437.447614	2747.620410
437.823946	2756.155083
438.200218	2784.055349
438.576429	2795.256793
438.952580	2821.034733
439.328670	2843.097343
439.704700	2856.610156
440.080670	2874.934750
440.456580	2925.477359
440.832429	2940.673917
441.208218	2945.964608
441.583947	2985.777121
441.959616	3012.792664
442.335224	3030.605581
442.710773	3078.310020
443.086261	3112.337808
443.461689	3111.957201
443.837057	3166.983916
444.212365	3228.574213
444.587612	3241.436717
444.962800	3303.357210
445.337927	3340.281141
445.712995	3294.457053
446.088002	3456.799851
446.462949	3463.068526
446.837837	3488.939727
447.212664	3563.758012
447.587431	3661.349709
447.962139	3862.534597
448.336786	4182.841951
448.711374	4158.052077
449.085901	3932.026903
449.460369	3957.411633
449.834776	3987.056139
450.209124	4181.833720
450.583412	4303.335610
450.957640	4397.466556
451.331808	4375.335890
451.705917	4260.130401
452.079965	4279.077578
452.453954	4426.806071
452.827883	4427.718520
453.201752	4522.640926
453.575562	4484.187005
453.949311	4642.925377
454.323001	4635.466990
454.696632	4727.281525
455.070202	4861.986197
455.443713	4997.336137
455.817164	5113.310402
456.190556	5213.490732
456.563888	5319.712884
456.937160	5399.980656
457.310373	5259.259367
457.683526	5331.539431
458.056619	5328.277805
458.429653	5374.043920
458.802628	5383.024735
459.175542	5500.256768
459.548398	5792.333660
459.921194	5952.682682
460.293930	5997.231358
460.666607	6420.463950
461.039224	6688.396236
461.411782	6836.994328
461.784280	6920.155722
462.156719	6903.335912
462.529099	6880.050823
462.901419	6637.399923
463.273680	6607.689883
463.645882	6665.060735
464.018024	6618.639269
464.390106	6792.783408
464.762130	7147.368088
465.134094	7565.128507
465.505999	8430.825692
465.877845	9470.210792
466.249631	10081.347353
466.621358	9849.595428
466.993026	9404.287623
467.364634	9251.041588
467.736184	8994.093976
468.107674	8746.898477
468.479105	8823.977719
468.850477	8644.815111
469.221790	8485.504567
469.593043	8226.006132
469.964238	8139.131928
470.335373	8179.050305
470.706449	8264.669262
471.077467	8275.268288
471.448425	9515.140076
471.819324	10534.791579
472.190164	10579.796480
472.560945	9446.650960
472.931667	8731.974141
473.302330	8621.837532
473.672934	8309.273391
474.043479	8668.778236
474.413965	8629.757185
474.784393	8536.178246
475.154761	8696.151702
475.525070	8802.487280
475.895321	8640.187332
476.265513	8832.477104
476.635645	9005.665945
477.005719	9016.080969
477.375734	9136.738465
477.745691	9374.479281
478.115588	9515.056897
478.485427	9761.728116
478.855207	10300.753491
479.224928	11106.337438
479.594591	11729.401368
479.964194	11549.858153
480.333739	11489.102167
480.703226	11423.083216
481.072653	11516.873883
481.442022	11755.401119
481.811333	11951.146602
482.180584	11765.236410
482.549777	11477.562966
482.918912	11314.529530
483.287988	11329.418578
483.657005	11345.938439
484.025964	11042.697912
484.394864	11172.016111
484.763706	11149.272945
485.132489	10905.064329
485.501213	10871.754905
485.869879	10940.042375
486.238487	10796.530808
486.607036	10902.692466
486.975527	10691.710096
487.343959	10876.929650
487.712333	10925.143245
488.080648	10859.777124
488.448905	10903.209185
488.817104	10844.199958
489.185244	11104.522622
489.553326	11268.027406
489.921350	11805.547997
490.289315	12854.458357
490.657222	13192.427393
491.025070	13103.067900
491.392861	12975.965288
491.760593	12596.578132
492.128267	12254.200607
492.495883	11932.509456
492.863440	11596.171233
493.230939	11268.662592
493.598380	11196.402692
493.965763	11077.428941
494.333088	10967.582199
494.700354	10889.330888
495.067563	10960.270005
495.434713	10786.907245
495.801805	10907.839484
496.168839	10827.874182
496.535815	10768.111303
496.902733	10771.340162
497.269593	10708.124093
497.636395	10803.011211
498.003139	10797.435695
498.369825	10666.653040
498.736453	10817.433952
499.103023	10750.384085
499.469535	10779.111100
499.835989	10770.858732
500.202385	10726.685621
500.568723	10588.623541
500.935003	10807.160080
501.301226	10612.221182
501.667390	10867.747188
502.033497	10963.887033
502.399546	10821.333284
502.765537	10733.090407
503.131470	10812.556636
503.497345	10980.424538
503.863163	10592.374159
504.228923	10903.456201
504.594625	10965.323762
504.960269	10715.627850
505.325856	10935.379308
505.691385	10729.148225
506.056856	10886.822914
506.422270	10909.850905
506.787625	10796.881168
507.152924	10909.765205
507.518164	10895.960005
507.883347	10822.722122
508.248472	10736.316745
508.613540	10971.060595
508.978550	10853.886535
509.343503	10833.101858
509.708398	10947.178128
510.073236	11058.272556
510.438016	11066.719010
510.802738	11018.220589
511.167403	11065.519215
511.532010	10958.135076
511.896561	11192.568895
512.261053	11272.985381
512.625488	11135.487910
512.989866	11118.373193
513.354186	11106.128230
513.718449	11012.130875
514.082655	11205.297808
514.446803	11099.904925
514.810894	11218.215765
515.174927	11080.965310
515.538904	11106.783580
515.902822	11262.290573
516.266684	11146.064251
516.630488	11093.248082
516.994235	11146.757409
517.357925	11209.020700
517.721558	11292.726539
518.085133	11310.849488
518.448651	11319.129583
518.812112	11200.937210
519.175516	11218.767771
519.538863	11338.898467
519.902152	11255.258163
520.265385	11418.412587
520.628560	11323.288535
520.991678	11309.369909
521.354739	11367.610359
521.717743	11295.642847
522.080690	11288.202104
522.443580	11414.908985
522.806413	11371.005576
523.169189	11400.042623
523.531908	11457.037908
523.894569	11278.916298
524.257174	11280.214396
524.619722	11402.540514
524.982213	11353.595952
525.344647	11399.009186
525.707025	11353.469923
526.069345	11437.997470
526.431608	11362.105419
526.793815	11473.706483
527.155964	11263.409709
527.518057	11315.895682
527.880093	11257.055335
528.242072	11328.158289
528.603995	11240.001111
528.965860	11163.781386
529.327669	11212.738551
529.689421	11158.634368
530.051117	11127.999276
530.412755	11233.578681
530.774337	11129.100768
531.135862	11107.015473
531.497331	11127.555654
531.858743	10982.015022
532.220098	11144.216668
532.581396	11017.192194
532.942638	11004.430513
533.303824	10965.185130
533.664953	10979.048303
534.026025	10892.524459
534.387040	10986.209262
534.747999	10991.948616
535.108902	11049.904241
535.469748	10808.301902
535.830537	10913.364589
536.191270	10893.555375
536.551947	10912.626060
536.912567	10911.126317
537.273131	10841.472694
537.633638	10821.272791
537.994089	10808.238887
538.354483	10755.518500
538.714821	10906.120451
539.075103	10915.386092
539.435328	10875.868487
539.795497	10701.845335
540.155609	10863.250479
540.515665	10955.891763
540.875665	10680.599392
541.235609	10755.180743
541.595496	10742.282951
541.955328	10900.963351
542.315102	10781.941708
542.674821	10734.683412
543.034483	10735.651313
543.394090	10738.993598
543.753640	10668.777887
544.113134	10889.877853
544.472571	10745.463919
544.831953	10887.616896
545.191278	10696.100941
545.550548	10725.642102
545.909761	10862.191836
546.268918	10836.018166
546.628019	10915.252501
546.987064	10782.153437
547.346053	10704.933042
547.704986	10800.478031
548.063863	10789.778182
548.422684	10778.022211
548.781449	10703.950017
549.140158	10800.946858
549.498811	10678.751810
549.857408	10543.553105
550.215949	10765.547876
550.574434	10620.473551
550.932864	10706.213495
551.291237	10780.046234
551.649555	10718.760927
552.007817	10735.366488
552.366022	10693.096413
552.724173	10688.675321
553.082267	10676.508496
553.440305	10809.968003
553.798288	10610.844947
554.156215	10760.988152
554.514086	10742.993754
554.871902	10596.414644
555.229661	10630.921342
555.587365	10594.345250
555.945014	10500.776394
556.302606	10621.426329
556.660143	10515.579742
557.017625	10667.043730
557.375050	10572.136447
557.732421	10705.119565
558.089735	10618.787285
558.446994	10621.254929
558.804197	10661.805971
559.161345	10657.200877
559.518437	10502.689512
559.875474	10590.990362
560.232455	10621.867430
560.589381	10573.482435
560.946251	10571.171066
561.303065	10674.524802
561.659825	10609.168763
562.016528	10544.037055
562.373177	10426.580691
562.729770	10538.635459
563.086307	10450.019536
563.442789	10548.221213
563.799216	10415.540564
564.155587	10475.666406
564.511904	10426.041288
564.868164	10412.488146
565.224370	10433.108986
565.580520	10362.351350
565.936615	10367.594150
566.292654	10229.748839
566.648638	10363.306649
567.004567	10320.119084
567.360441	10306.384460
567.716260	10211.419204
568.072023	10310.268669
568.427732	10262.347461
568.783385	10170.021249
569.138982	10238.031455
569.494525	10255.647767
569.850013	10134.904571
570.205445	10217.874402
570.560823	10109.144275
570.916145	10031.623932
571.271412	10104.093039
571.626625	10038.101814
571.981782	10022.002889
572.336884	9995.420885
572.691931	9997.956586
573.046923	9945.092526
573.401860	9909.093646
573.756743	9842.215179
574.111570	9885.647240
574.466342	9867.163849
574.821059	9895.525381
575.175722	9786.089492
575.530330	9799.980392
575.884882	9783.841138
576.239380	9715.152896
576.593823	9696.120020
576.948211	9710.968738
577.302544	9588.919883
577.656823	9605.832954
578.011047	9606.455537
578.365216	9578.386392
578.719330	9505.728242
579.073389	9515.089664
579.427394	9467.516296
579.781344	9441.352707
580.135239	9389.219615
580.489080	9399.768229
580.842866	9300.170153
581.196597	9311.336308
581.550273	9351.884829
581.903895	9313.869488
582.257463	9378.943223
582.610975	9259.556097
582.964434	9288.552813
583.317837	9205.484680
583.671186	9188.755611
584.024481	9186.119088
584.377721	9103.802087
584.730906	9080.083458
585.084037	9117.186350
585.437113	9048.679590
585.790135	9068.244308
586.143103	8966.743196
586.496016	8940.851830
586.848874	8999.462805
587.201679	8988.034509
587.554428	8878.792705
587.907124	8925.652751
588.259765	8894.485817
588.612352	8896.850118
588.964884	8770.622147
589.317362	8791.053943
589.669786	8786.421123
590.022155	8833.351745
590.374470	8845.984876
590.726731	8788.687122
591.078937	8638.629616
591.431090	8758.462884
591.783188	8624.322821
592.135232	8622.971792
592.487222	8619.536245
592.839157	8674.348711
593.191038	8604.662321
593.542866	8550.984115
593.894639	8455.023231
594.246358	8505.633895
594.598022	8518.945062
594.949633	8416.037468
595.301190	8391.542501
595.652692	8422.263293
596.004141	8533.670272
596.355535	8310.780696
596.706876	8286.492417
597.058162	8225.602840
597.409395	8298.734859
597.760573	8361.840023
598.111698	8267.716639
598.462768	8254.433199
598.813785	8224.503868
599.164748	8187.794186
599.515657	8183.383176
599.866511	8096.395546
600.217312	8217.491623
600.568060	8071.832524
600.918753	8176.872526
601.269392	8147.434708
601.619978	8058.652427
601.970510	8126.955021
602.320988	8120.887992
602.671412	8178.271446
603.021783	8115.985470
603.372100	8094.704239
603.722363	8091.966892
604.072572	8063.650731
604.422728	8074.489212
604.772830	8002.713264
605.122878	8019.661623
605.472872	8006.917586
605.822813	8039.818677
606.172701	7976.763924
606.522534	8057.997077
606.872314	8058.249135
607.222041	8029.418776
607.571714	8080.820901
607.921333	8042.218266
608.270899	8046.604070
608.620411	8135.313254
608.969870	8039.410343
609.319276	8035.541257
609.668627	8047.511477
610.017926	8089.882375
610.367171	8133.480794
610.716362	8109.250488
611.065500	8099.203469
611.414585	8132.873335
611.763616	8121.150132
612.112594	8098.926205
612.461518	8112.486909
612.810389	8171.725508
613.159207	8114.810881
613.507971	8059.093528
613.856682	8181.190274
614.205340	8132.769992
614.553945	8214.056077
614.902496	8113.505222
615.250994	8172.695930
615.599439	8151.339082
615.947830	8158.174887
616.296169	8134.549519
616.644454	8149.826736
616.992686	8143.931106
617.340864	8203.918317
617.688990	8108.857278
618.037063	8199.315743
618.385082	8149.494020
618.733048	8231.377482
619.080961	8170.412287
619.428821	8189.150256
619.776628	8187.539608
620.124382	8142.028071
620.472083	8130.672872
620.819731	8153.264803
621.167326	8053.291160
621.514868	8064.492604
621.862357	7950.275181
622.209793	7964.919733
622.557176	7899.223416
622.904506	7866.680248
623.251783	7804.104405
623.599007	7754.786797
623.946179	7762.449351
624.293297	7713.640899
624.640363	7637.365721
624.987376	7614.670446
625.334336	7567.437355
625.681243	7516.367946
626.028097	7499.659042
626.374899	7478.208932
626.721647	7472.298179
627.068343	7407.055566
627.414987	7384.534212
627.761577	7335.375400
628.108115	7375.132460
628.454600	7266.919051
628.801032	7318.840415
629.147412	7273.603621
629.493739	7267.753362
629.840014	7202.104936
630.186236	7264.287569
630.532405	7139.183774
630.878521	7193.935746
631.224585	7149.835732
631.570597	7078.657161
631.916556	7111.243179
632.262462	7103.285718
632.608316	7065.098978
632.954117	7048.334620
633.299866	7027.469285
633.645562	7023.504417
633.991206	6946.432737
634.336797	6882.762963
634.682336	6845.329876
635.027823	6812.655637
635.373257	6806.253372
635.718639	6741.114102
636.063968	6750.488128
636.409245	6643.293032
636.754470	6641.700028
637.099642	6597.007678
637.444762	6548.163939
637.789829	6555.556791
638.134845	6498.944633
638.479808	6479.276571
638.824719	6484.005174
639.169577	6411.382311
639.514383	6430.689931
639.859137	6364.794488
640.203839	6370.367484
640.548489	6356.950453
