Dividing Wavelength (nm)	Counts (n)	Blue Motor Position (mm): 39.100000	Red Motor Position (mm): 0.000000	
326.493990	2130.631070
326.888308	2130.631070
327.282561	2130.631070
327.676750	2097.377099
328.070874	2094.808631
328.464933	2097.798035
328.858929	2105.939499
329.252859	2113.690273
329.646726	2125.806686
330.040528	2140.080713
330.434265	2156.857673
330.827938	2172.391989
331.221547	2190.809844
331.615091	2208.111084
332.008571	2228.880638
332.401986	2249.851838
332.795338	2268.292379
333.188625	2287.284926
333.581847	2304.918882
333.975006	2325.978302
334.368100	2343.982783
334.761129	2361.614219
335.154095	2378.040819
335.546996	2395.853736
335.939833	2422.450863
336.332606	2439.507608
336.725315	2454.260544
337.117960	2460.365382
337.510540	2469.149592
337.903056	2481.737353
338.295508	2488.106851
338.687896	2497.848881
339.080220	2502.635457
339.472480	2509.743483
339.864676	2512.788340
340.256807	2519.281347
340.648875	2522.122037
341.040879	2525.587830
341.432818	2527.775691
341.824694	2528.922553
342.216506	2530.883562
342.608253	2531.450692
342.999937	2530.064375
343.391557	2529.603109
343.783113	2528.569672
344.174605	2527.092614
344.566033	2523.974661
344.957397	2525.199661
345.348697	2521.897705
345.739934	2521.691018
346.131106	2519.583816
346.522215	2519.702283
346.913260	2512.944616
347.304241	2515.707168
347.695159	2511.475120
348.086012	2510.776920
348.476802	2508.611744
348.867528	2510.449245
349.258191	2505.108143
349.648789	2505.559326
350.039324	2500.543378
350.429796	2503.542864
350.820203	2499.517503
351.210548	2502.212000
351.600828	2496.502893
351.991045	2499.852740
352.381198	2496.719663
352.771288	2497.874087
353.161314	2495.857625
353.551276	2496.190341
353.941175	2496.628922
354.331010	2494.972903
354.720782	2494.246977
355.110490	2498.413490
355.500135	2496.591113
355.889717	2495.361072
356.279235	2495.265290
356.668689	2498.259735
357.058080	2497.082626
357.447408	2496.870897
357.836672	2490.297232
358.225873	2494.491473
358.615010	2493.410145
359.004084	2497.637153
359.393095	2500.339211
359.782043	2498.305105
360.170927	2500.883656
360.559748	2500.853409
360.948505	2501.160919
361.337199	2502.065806
361.725830	2503.767196
362.114398	2503.729387
362.502903	2504.495642
362.891344	2507.235509
363.279722	2503.046311
363.668037	2503.230313
364.056289	2505.125787
364.444478	2503.603358
364.832603	2507.371621
365.220665	2507.716940
365.608665	2509.211642
365.996601	2507.774913
366.384474	2507.144769
366.772284	2508.634430
367.160031	2507.477485
367.547715	2507.883298
367.935336	2509.073010
368.322893	2510.071158
368.710388	2511.492764
369.097820	2512.445542
369.485189	2512.932013
369.872495	2512.932013
370.259738	2510.575274
370.646918	2509.917403
371.034035	2510.812208
371.421090	2511.906138
371.808081	2511.379338
372.195010	2510.716426
372.581875	2514.227590
372.968678	2511.202897
373.355418	2513.153824
373.742096	2516.428053
374.128710	2515.089627
374.515262	2514.537621
374.901751	2515.780265
375.288177	2517.937879
375.674540	2516.997704
376.060841	2514.368742
376.447079	2519.069618
376.833254	2519.525843
377.219367	2514.996366
377.605417	2516.216325
377.991404	2514.797240
378.377329	2515.044257
378.763191	2516.155831
379.148991	2518.782272
379.534727	2522.273271
379.920402	2520.153466
380.306013	2520.909639
380.691563	2521.575072
381.077049	2522.933662
381.462474	2521.287726
381.847835	2523.987264
382.233134	2525.726462
382.618371	2523.026924
383.003545	2525.166894
383.388657	2526.664116
383.773706	2527.412728
384.158693	2527.427851
384.543618	2527.427851
384.928480	2526.422141
385.313280	2527.843746
385.698017	2528.156298
386.082692	2529.005732
386.467305	2528.400794
386.851856	2526.820392
387.236344	2529.812317
387.620770	2530.323994
388.005133	2529.550177
388.389435	2531.964890
388.773674	2531.556556
389.157851	2530.959179
389.541965	2534.084695
389.926018	2535.085364
390.310008	2539.614841
390.693936	2539.597197
391.077802	2544.860161
391.461606	2552.316028
391.845348	2560.618808
392.229027	2563.673747
392.612645	2570.481826
392.996200	2584.627303
393.379694	2599.160950
393.763125	2616.104268
394.146494	2627.179683
394.529801	2645.983187
394.913047	2666.409942
395.296230	2679.458969
395.679351	2702.421425
396.062410	2726.162739
396.445408	2741.941550
396.828343	2769.514141
397.211217	2794.384674
397.594028	2803.761220
397.976778	2840.037363
398.359466	2872.368803
398.742092	2904.062537
399.124656	2918.029054
399.507158	2966.194758
399.889598	3002.433093
400.271977	3049.867830
400.654294	3076.298600
401.036549	3112.673045
401.418742	3137.898979
401.800874	3207.648384
402.182944	3252.164293
402.564952	3315.501350
402.946898	3343.378930
403.328783	3384.166906
403.710606	3385.308728
404.092367	3512.844879
404.474067	3536.550905
404.855705	3578.299220
405.237282	3577.288469
405.618797	3677.148685
406.000250	3735.621029
406.381642	3824.065552
406.762972	3838.679857
407.144240	3884.256929
407.525447	3924.593722
407.906593	3998.018128
408.287677	4062.668405
408.668700	4048.119635
409.049661	4122.564875
409.430560	4187.626006
409.811399	4163.990556
410.192176	4324.389989
410.572891	4306.917350
410.953545	4419.940019
411.334138	4349.570553
411.714669	4431.728758
412.095139	4370.345148
412.475547	4518.509701
412.855894	4530.933624
413.236180	4561.311617
413.616405	4542.964338
413.996568	4644.047034
414.376670	4606.356848
414.756711	4584.236264
415.136691	4633.271568
415.516609	4719.001430
415.896466	4769.483545
416.276262	4813.427283
416.655997	4810.218588
417.035670	4994.097196
417.415283	5093.324747
417.794834	5047.130134
418.174324	5009.485318
418.553753	4931.833904
418.933121	5121.532524
419.312428	5190.649263
419.691674	5136.260255
420.070859	5272.172283
420.449983	5185.784550
420.829045	5305.572448
421.208047	5219.288058
421.586988	5292.427639
421.965867	5308.834074
422.344686	5440.226708
422.723444	5299.636489
423.102141	5122.583604
423.480777	5421.304737
423.859352	5192.333009
424.237866	5450.223316
424.616319	5442.449857
424.994712	5556.503442
425.373044	5429.610038
425.751314	5576.773922
426.129524	5384.181680
426.507673	5576.380712
426.885762	5657.583618
427.263789	5587.982927
427.641756	5476.996884
428.019662	5596.787302
428.397508	5601.583960
428.775292	5548.964397
429.153016	5652.514738
429.530679	5575.871555
429.908282	5660.235265
430.285824	5530.942272
430.663305	5804.923942
431.040726	5543.494745
431.418086	5542.738572
431.795385	5644.451412
432.172624	5662.307179
432.549802	5652.403832
432.926920	5663.229710
433.303977	5674.985681
433.680974	5714.798193
434.057910	5730.453497
434.434786	5738.597481
434.811601	5705.731678
435.188355	5943.495179
435.565050	5813.995498
435.941683	5797.440349
436.318257	6009.846846
436.694770	5992.021326
437.071222	6025.529875
437.447614	5956.771058
437.823946	5876.904057
438.200218	6025.335791
438.576429	5893.129011
438.952580	5990.924875
439.328670	6034.223345
439.704700	5945.481393
440.080670	5931.721564
440.456580	6198.151586
440.832429	6081.264872
441.208218	5924.147230
441.583947	6086.648825
441.959616	6089.512200
442.335224	6014.706518
442.710773	6154.399412
443.086261	6180.260531
443.461689	5977.419624
443.837057	6126.940247
444.212365	6277.764008
444.587612	6170.074880
444.962800	6326.146482
445.337927	6302.382483
445.712995	5915.201703
446.088002	6494.510938
446.462949	6324.084650
446.837837	6253.931953
447.212664	6426.538540
447.587431	6569.540952
447.962139	7110.164372
448.336786	8038.361783
448.711374	7778.046681
449.085901	6852.909250
449.460369	6772.999400
449.834776	6710.549586
450.209124	7100.429904
450.583412	7258.288596
450.957640	7397.366469
451.331808	7158.955180
451.705917	6713.044958
452.079965	6637.838504
452.453954	6842.723599
452.827883	6725.108439
453.201752	6820.812224
453.575562	6614.823116
453.949311	6823.415980
454.323001	6710.400872
454.696632	6784.435258
455.070202	6921.600013
455.443713	7075.952582
455.817164	7179.018972
456.190556	7262.722291
456.563888	7338.407654
456.937160	7379.992132
457.310373	7036.150152
457.683526	7058.001033
458.056619	6952.000691
458.429653	6940.216994
458.802628	6874.034206
459.175542	6981.004970
459.548398	7339.055442
459.921194	7502.061152
460.293930	7502.524938
460.666607	8032.781226
461.039224	8345.725974
461.411782	8466.249880
461.784280	8476.634657
462.156719	8371.834110
462.529099	8254.133250
462.901419	7838.759817
463.273680	7736.500011
463.645882	7748.124912
464.018024	7613.586598
464.390106	7781.341075
464.762130	8168.042945
465.134094	8636.109039
465.505999	9656.977981
465.877845	10880.339990
466.249631	11523.439986
466.621358	11143.445371
466.993026	10515.872129
467.364634	10256.804712
467.736184	9893.725689
468.107674	9563.673785
468.479105	9596.519423
468.850477	9357.835911
469.221790	9133.328125
469.593043	8803.097260
469.964238	8667.386878
470.335373	8673.209410
470.706449	8734.252742
471.077467	8717.392603
471.448425	10031.918839
471.819324	11100.789648
472.190164	11112.926226
472.560945	9872.958655
472.931667	9083.715609
473.302330	8949.731822
473.672934	8595.928522
474.043479	8950.225855
474.413965	8893.205364
474.784393	8778.561964
475.154761	8932.100387
475.525070	9021.195219
475.895321	8849.717851
476.265513	9017.051391
476.635645	9191.984470
477.005719	9189.373153
477.375734	9312.833531
477.745691	9543.196618
478.115588	9678.468419
478.485427	9917.409029
478.855207	10461.490682
479.224928	11274.916143
479.594591	11904.062225
479.964194	11706.897657
480.333739	11653.017805
480.703226	11570.161400
481.072653	11657.353197
481.442022	11896.770196
481.811333	12086.700708
482.180584	11887.197045
482.549777	11597.522263
482.918912	11423.494070
483.287988	11440.291195
483.657005	11461.501850
484.025964	11137.002777
484.394864	11273.126533
484.763706	11244.001267
485.132489	11001.317600
485.501213	10959.022319
485.869879	11036.527539
486.238487	10884.236802
486.607036	10988.379479
486.975527	10769.227918
487.343959	10965.361570
487.712333	11011.488128
488.080648	10936.470718
488.448905	10986.781433
488.817104	10918.645198
489.185244	11188.351970
489.553326	11347.796104
489.921350	11886.357693
490.289315	12944.924383
490.657222	13277.375877
491.025070	13186.819109
491.392861	13060.467629
491.760593	12690.278058
492.128267	12337.314110
492.495883	12010.145746
492.863440	11673.563027
493.230939	11333.998466
493.598380	11265.874833
493.965763	11142.169959
494.333088	11039.320338
494.700354	10954.565939
495.067563	11019.697647
495.434713	10848.021153
495.801805	10971.572272
496.168839	10899.773638
496.535815	10839.388177
496.902733	10836.318114
497.269593	10767.158525
497.636395	10863.154697
498.003139	10855.325785
498.369825	10728.717206
498.736453	10884.821576
499.103023	10814.384054
499.469535	10844.242808
499.835989	10826.477782
500.202385	10789.934458
500.568723	10638.616663
500.935003	10865.234173
501.301226	10674.305512
501.667390	10930.935531
502.033497	11025.779799
502.399546	10885.471885
502.765537	10794.358070
503.131470	10868.760460
503.497345	11040.673888
503.863163	10655.242389
504.228923	10968.527415
504.594625	11026.316682
504.960269	10776.817375
505.325856	10990.252267
505.691385	10785.314240
506.056856	10944.176121
506.422270	10961.941147
506.787625	10856.538182
507.152924	10973.535801
507.518164	10951.390013
507.883347	10868.301715
508.248472	10790.105857
508.613540	11023.579336
508.978550	10915.484394
509.343503	10885.040866
509.708398	11003.223156
510.073236	11118.955446
510.438016	11124.533482
510.802738	11069.867210
511.167403	11125.803853
511.532010	11021.237720
511.896561	11256.286559
512.261053	11329.995790
512.625488	11193.609893
512.989866	11177.087511
513.354186	11157.789974
513.718449	11068.916953
514.082655	11256.369738
514.446803	11157.263174
514.810894	11278.742379
515.174927	11141.131482
515.538904	11175.552480
515.902822	11323.059162
516.266684	11197.645337
516.630488	11143.299178
516.994235	11205.383508
517.357925	11263.087075
517.721558	11350.722494
518.085133	11370.604805
518.448651	11376.238294
518.812112	11258.388720
519.175516	11274.845567
519.538863	11394.850234
519.902152	11311.378809
520.265385	11472.935187
520.628560	11381.982689
520.991678	11365.425019
521.354739	11425.881057
521.717743	11356.555109
522.080690	11336.667757
522.443580	11473.129271
522.806413	11432.734505
523.169189	11462.583177
523.531908	11522.812363
523.894569	11336.395535
524.257174	11346.611433
524.619722	11466.180040
524.982213	11410.555949
525.344647	11459.351798
525.707025	11406.049157
526.069345	11507.439364
526.431608	11423.443659
526.793815	11526.860409
527.155964	11319.973976
527.518057	11371.426513
527.880093	11320.503297
528.242072	11389.622557
528.603995	11295.731067
528.965860	11219.249202
529.327669	11269.408682
529.689421	11222.228523
530.051117	11194.862620
530.412755	11297.823146
530.774337	11179.703870
531.135862	11162.987404
531.497331	11190.018071
531.858743	11041.989629
532.220098	11205.053312
532.581396	11079.170660
532.942638	11053.808615
533.303824	11023.687720
533.664953	11031.073011
534.026025	10951.410177
534.387040	11045.218488
534.747999	11047.562625
535.108902	11113.637028
535.469748	10866.486899
535.830537	10970.995060
536.191270	10944.324835
536.551947	10974.629732
536.912567	10970.198558
537.273131	10897.752136
537.633638	10879.165401
537.994089	10865.690397
538.354483	10815.046966
538.714821	10962.611621
539.075103	10972.746861
539.435328	10936.395100
539.795497	10759.616958
540.155609	10918.385578
540.515665	11008.486121
540.875665	10738.582744
541.235609	10805.562035
541.595496	10801.312342
541.955328	10958.976949
542.315102	10840.482107
542.674821	10794.254727
543.034483	10795.109202
543.394090	10797.261775
543.753640	10727.179654
544.113134	10945.912799
544.472571	10803.112034
544.831953	10946.547984
545.191278	10752.370300
545.550548	10776.393918
545.909761	10912.600854
546.268918	10889.164530
546.628019	10974.425565
546.987064	10838.594195
547.346053	10760.602504
547.704986	10862.045643
548.063863	10849.004178
548.422684	10839.431027
548.781449	10762.558472
549.140158	10856.379386
549.498811	10734.620397
549.857408	10596.006310
550.215949	10826.739922
550.574434	10670.091107
550.932864	10772.633218
551.291237	10830.543473
551.649555	10774.894175
552.007817	10797.115581
552.366022	10750.605896
552.724173	10748.755793
553.082267	10730.108564
553.440305	10866.978412
553.798288	10672.687302
554.156215	10824.544499
554.514086	10797.274378
554.871902	10651.033025
555.229661	10680.649804
555.587365	10666.131281
555.945014	10557.315455
556.302606	10679.966728
556.660143	10576.542415
557.017625	10727.807278
557.375050	10623.944385
557.732421	10762.392114
558.089735	10679.742396
558.446994	10671.590851
558.804197	10713.354290
559.161345	10712.419156
559.518437	10561.527339
559.875474	10653.911524
560.232455	10675.832982
560.589381	10631.727927
560.946251	10632.237083
561.303065	10731.177289
561.659825	10667.351240
562.016528	10601.808678
562.373177	10485.882305
562.729770	10588.694117
563.086307	10510.392395
563.442789	10605.763464
563.799216	10475.348814
564.155587	10530.685559
564.511904	10487.079579
564.868164	10473.753288
565.224370	10488.720474
565.580520	10415.313712
565.936615	10419.891080
566.292654	10290.363673
566.648638	10418.136759
567.004567	10382.407581
567.360441	10361.794303
567.716260	10270.819120
568.072023	10372.020283
568.427732	10311.798659
568.783385	10226.497295
569.138982	10297.880034
569.494525	10309.318412
569.850013	10190.390031
570.205445	10265.208316
570.560823	10166.313480
570.916145	10081.738042
571.271412	10157.851903
571.626625	10096.241442
571.981782	10080.611344
572.336884	10050.709740
572.691931	10054.795595
573.046923	9995.647737
573.401860	9956.898908
573.756743	9890.872396
574.111570	9930.672305
574.466342	9918.939020
574.821059	9950.322723
575.175722	9838.867852
575.530330	9843.684675
575.884882	9841.348100
576.239380	9771.613819
576.593823	9749.374769
576.948211	9761.957489
577.302544	9648.314758
577.656823	9657.517384
578.011047	9656.128546
578.365216	9640.604313
578.719330	9559.933248
579.073389	9569.279548
579.427394	9514.895580
579.781344	9491.844904
580.135239	9443.510321
580.489080	9450.517525
580.842866	9349.086989
581.196597	9349.349129
581.550273	9397.774453
581.903895	9366.594916
582.257463	9431.540101
582.610975	9306.539650
582.964434	9333.071243
583.317837	9263.452908
583.671186	9239.472140
584.024481	9239.734280
584.377721	9158.934666
584.730906	9132.783680
585.084037	9163.726283
585.437113	9099.471736
585.790135	9118.242472
586.143103	9018.173047
586.496016	8993.904933
586.848874	9045.392758
587.201679	9033.568731
587.554428	8924.210981
587.907124	8966.037434
588.259765	8935.165408
588.612352	8941.996172
588.964884	8818.170310
589.317362	8834.780912
589.669786	8826.016866
590.022155	8882.215649
590.374470	8897.878514
590.726731	8837.661931
591.078937	8686.936472
591.431090	8798.552660
591.783188	8675.871140
592.135232	8668.415273
592.487222	8658.456474
592.839157	8713.581491
593.191038	8650.899784
593.542866	8599.545550
593.894639	8493.976227
594.246358	8548.279536
594.598022	8564.900220
594.949633	8466.078481
595.301190	8432.963142
595.652692	8465.597051
596.004141	8579.675842
596.355535	8351.911470
596.706876	8337.755910
597.058162	8263.207327
597.409395	8340.410078
597.760573	8404.735201
598.111698	8310.440418
598.462768	8308.597876
598.813785	8266.216896
599.164748	8227.541163
599.515657	8230.288592
599.866511	8137.672514
600.217312	8259.675999
600.568060	8116.930686
600.918753	8223.606543
601.269392	8192.666461
601.619978	8103.178419
601.970510	8168.229468
602.320988	8171.637288
602.671412	8224.284578
603.021783	8159.334352
603.372100	8134.786453
603.722363	8137.612020
604.072572	8109.129501
604.422728	8116.668546
604.772830	8049.180099
605.122878	8056.053712
605.472872	8052.963485
605.822813	8077.725633
606.172701	8023.261007
606.522534	8098.727080
606.872314	8094.704239
607.222041	8072.813028
607.571714	8127.252449
607.921333	8081.042712
608.270899	8088.801048
608.620411	8178.820932
608.969870	8080.473062
609.319276	8081.695542
609.668627	8093.779187
610.017926	8128.555587
610.367171	8175.387906
610.716362	8151.029051
611.065500	8143.868092
611.414585	8172.930344
611.763616	8159.011718
612.112594	8138.952967
612.461518	8157.776635
612.810389	8216.679997
613.159207	8153.204309
613.507971	8103.934592
613.856682	8219.233342
614.205340	8180.371087
614.553945	8257.818333
614.902496	8157.688415
615.250994	8210.600366
615.599439	8186.969957
615.947830	8203.189870
616.296169	8177.061569
616.644454	8192.570679
616.992686	8184.608177
617.340864	8249.104699
617.688990	8150.381263
618.037063	8237.137000
618.385082	8187.673198
618.733048	8275.238041
619.080961	8211.618679
619.428821	8228.667861
619.776628	8232.577276
620.124382	8188.457098
620.472083	8165.023294
620.819731	8196.023870
621.167326	8089.668126
621.514868	8099.453006
621.862357	7988.071232
622.209793	8007.991352
622.557176	7941.236392
622.904506	7905.474447
623.251783	7839.347112
623.599007	7794.682488
623.946179	7797.475288
624.293297	7760.548836
624.640363	7675.313007
624.987376	7656.685943
625.334336	7601.122345
625.681243	7550.761218
626.028097	7540.578088
626.374899	7517.804675
626.721647	7508.037440
627.068343	7443.772810
627.414987	7416.255672
627.761577	7366.701130
628.108115	7405.308807
628.454600	7300.220913
628.801032	7350.534149
629.147412	7314.442008
629.493739	7304.994886
629.840014	7236.803198
630.186236	7295.850233
630.532405	7173.075452
630.878521	7226.804069
631.224585	7181.327821
631.570597	7109.178827
631.916556	7144.051008
632.262462	7136.126315
632.608316	7098.267249
632.954117	7082.196051
633.299866	7062.621250
633.645562	7056.728142
633.991206	6977.448436
634.336797	6926.147133
634.682336	6876.441357
635.027823	6837.952147
635.373257	6837.934503
635.718639	6765.092350
636.063968	6776.124916
636.409245	6672.032650
636.754470	6672.420819
637.099642	6629.712164
637.444762	6575.739050
637.789829	6581.932108
638.134845	6527.041504
638.479808	6514.610019
638.824719	6514.761253
639.169577	6447.066119
639.514383	6470.313400
639.859137	6393.612244
640.203839	6401.768831
640.548489	6385.216202
