Dividing Wavelength (nm)	Counts (n)	Blue Motor Position (mm): 19.100000	Red Motor Position (mm): 0.000000	
326.493990	2183.109482
326.888308	2183.109482
327.282561	2183.109482
327.676750	2142.296300
328.070874	2137.998717
328.464933	2143.075158
328.858929	2142.356794
329.252859	2149.278298
329.646726	2156.615698
330.040528	2171.623213
330.434265	2181.556806
330.827938	2200.440969
331.221547	2217.379246
331.615091	2235.577811
332.008571	2254.729154
332.401986	2271.140631
332.795338	2290.549073
333.188625	2307.275622
333.581847	2329.799497
333.975006	2347.456138
334.368100	2364.021370
334.761129	2384.375028
335.154095	2401.981258
335.546996	2423.665782
335.939833	2454.938579
336.332606	2466.969293
336.725315	2482.238948
337.117960	2496.036586
337.510540	2506.466733
337.903056	2515.931500
338.295508	2526.464991
338.687896	2535.037473
339.080220	2544.083823
339.472480	2550.065152
339.864676	2552.777293
340.256807	2557.841132
340.648875	2561.218705
341.040879	2566.544684
341.432818	2568.278841
341.824694	2569.776064
342.216506	2572.783112
342.608253	2572.871333
342.999937	2572.553740
343.391557	2573.851837
343.783113	2571.734552
344.174605	2571.984089
344.566033	2574.126580
344.957397	2571.081723
345.348697	2570.469223
345.739934	2565.934705
346.131106	2563.003274
346.522215	2566.327915
346.913260	2560.921277
347.304241	2557.747871
347.695159	2558.332645
348.086012	2556.517829
348.476802	2552.174875
348.867528	2550.637323
349.258191	2550.564227
349.648789	2546.770758
350.039324	2541.469985
350.429796	2546.460727
350.820203	2544.061138
351.210548	2544.638350
351.600828	2541.013761
351.991045	2540.202135
352.381198	2539.831610
352.771288	2538.528472
353.161314	2538.606610
353.551276	2537.724408
353.941175	2539.609799
354.331010	2539.082999
354.720782	2539.594676
355.110490	2538.727598
355.500135	2539.367824
355.889717	2538.107536
356.279235	2537.263142
356.668689	2540.179450
357.058080	2538.394881
357.447408	2537.512679
357.836672	2539.289686
358.225873	2539.995448
358.615010	2539.876981
359.004084	2539.274563
359.393095	2539.519059
359.782043	2542.800850
360.170927	2541.359080
360.559748	2541.792619
360.948505	2541.898483
361.337199	2541.785057
361.725830	2544.267826
362.114398	2543.544420
362.502903	2544.575336
362.891344	2545.155069
363.279722	2545.797816
363.668037	2544.744215
364.056289	2545.800336
364.444478	2544.976108
364.832603	2549.878630
365.220665	2550.143290
365.608665	2549.311500
365.996601	2546.485933
366.384474	2550.281922
366.772284	2545.860830
367.160031	2550.405430
367.547715	2553.294012
367.935336	2550.302087
368.322893	2547.940306
368.710388	2548.189843
369.097820	2548.857796
369.485189	2549.240924
369.872495	2550.226469
370.259738	2552.507592
370.646918	2552.313507
371.034035	2552.479865
371.421090	2555.244938
371.808081	2556.459856
372.195010	2553.432643
372.581875	2555.648230
372.968678	2554.977757
373.355418	2554.788714
373.742096	2555.590257
374.128710	2555.043292
374.515262	2555.769218
374.901751	2553.840977
375.288177	2557.652089
375.674540	2555.680998
376.060841	2555.197047
376.447079	2556.031358
376.833254	2556.106975
377.219367	2557.818447
377.605417	2559.426575
377.991404	2558.592264
378.377329	2554.856769
378.763191	2558.919939
379.148991	2559.295505
379.534727	2559.106462
379.920402	2556.384239
380.306013	2558.423386
380.691563	2557.790721
381.077049	2557.790721
381.462474	2558.183931
381.847835	2558.627552
382.233134	2560.792728
382.618371	2558.309960
383.003545	2559.461863
383.388657	2561.001936
383.773706	2561.649724
384.158693	2559.129147
384.543618	2562.277348
384.928480	2561.140568
385.313280	2562.133675
385.698017	2560.573438
386.082692	2562.184086
386.467305	2560.754919
386.851856	2563.182235
387.236344	2562.431103
387.620770	2559.325752
388.005133	2557.584033
388.389435	2559.575289
388.773674	2559.897923
389.157851	2565.110476
389.541965	2564.535785
389.926018	2563.308264
390.310008	2563.774570
390.693936	2565.843964
391.077802	2563.436813
391.461606	2566.781619
391.845348	2564.760116
392.229027	2562.723490
392.612645	2565.065106
392.996200	2567.752041
393.379694	2564.576114
393.763125	2567.313460
394.146494	2569.087947
394.529801	2567.782288
394.913047	2565.697771
395.296230	2563.913202
395.679351	2569.879408
396.062410	2568.914027
396.445408	2569.665159
396.828343	2568.167936
397.211217	2565.425548
397.594028	2568.987123
397.976778	2569.839078
398.359466	2569.836558
398.742092	2567.283213
399.124656	2568.183059
399.507158	2571.893349
399.889598	2570.199521
400.271977	2567.353790
400.654294	2570.239850
401.036549	2570.244891
401.418742	2572.185736
401.800874	2570.849830
402.182944	2573.861919
402.564952	2569.869325
402.946898	2571.190108
403.328783	2572.442834
403.710606	2569.982751
404.092367	2570.837227
404.474067	2571.195149
404.855705	2574.723957
405.237282	2571.863102
405.618797	2569.556774
406.000250	2572.866291
406.381642	2573.002402
406.762972	2570.958215
407.144240	2569.773543
407.525447	2571.071641
407.906593	2568.735066
408.287677	2576.143041
408.668700	2574.439131
409.049661	2575.807805
409.430560	2575.162537
409.811399	2575.376786
410.192176	2574.174471
410.572891	2573.869481
410.953545	2576.011971
411.334138	2575.447362
411.714669	2577.352918
412.095139	2575.966601
412.475547	2577.889801
412.855894	2575.628844
413.236180	2576.984914
413.616405	2576.904256
413.996568	2574.754203
414.376670	2576.390058
414.756711	2577.415933
415.136691	2575.540623
415.516609	2576.768144
415.896466	2577.420974
416.276262	2576.508525
416.655997	2579.666808
417.035670	2577.163875
417.415283	2580.526325
417.794834	2580.675039
418.174324	2576.962229
418.553753	2577.985583
418.933121	2578.794688
419.312428	2579.326530
419.691674	2580.609504
420.070859	2577.834348
420.449983	2579.124884
420.829045	2580.594380
421.208047	2580.037333
421.586988	2577.617579
421.965867	2580.836356
422.344686	2580.675039
422.723444	2582.320975
423.102141	2579.681931
423.480777	2582.593198
423.859352	2581.111098
424.237866	2583.309042
424.616319	2580.929617
424.994712	2584.841552
425.373044	2581.292580
425.751314	2580.415419
426.129524	2576.816035
426.507673	2580.062538
426.885762	2577.536920
427.263789	2582.532704
427.641756	2582.729309
428.019662	2584.637386
428.397508	2581.572364
428.775292	2579.961715
429.153016	2584.453383
429.530679	2583.455235
429.908282	2582.709144
430.285824	2580.485995
430.663305	2583.644278
431.040726	2585.088569
431.418086	2583.994638
431.795385	2584.420616
432.172624	2584.166038
432.549802	2585.227201
432.926920	2584.629824
433.303977	2585.209557
433.680974	2584.846593
434.057910	2587.664598
434.434786	2583.974474
434.811601	2586.258117
435.188355	2583.803075
435.565050	2585.491861
435.941683	2584.715523
436.318257	2586.855493
436.694770	2587.430185
437.071222	2588.093097
437.447614	2587.853642
437.823946	2585.902715
438.200218	2587.089907
438.576429	2584.196285
438.952580	2584.158476
439.328670	2586.127047
439.704700	2587.946903
440.080670	2589.353385
440.456580	2589.086204
440.832429	2588.443457
441.208218	2586.996646
441.583947	2585.063363
441.959616	2588.876996
442.335224	2588.088055
442.710773	2589.529825
443.086261	2588.279619
443.461689	2588.768611
443.837057	2587.921697
444.212365	2589.403797
444.587612	2586.875658
444.962800	2587.404979
445.337927	2586.389187
445.712995	2585.058322
446.088002	2589.524784
446.462949	2590.185175
446.837837	2593.091401
447.212664	2592.131061
447.587431	2592.241966
447.962139	2592.811617
448.336786	2597.381422
448.711374	2594.873448
449.085901	2591.226174
449.460369	2592.274734
449.834776	2591.798345
450.209124	2593.325814
450.583412	2594.558376
450.957640	2594.661720
451.331808	2594.326483
451.705917	2594.243304
452.079965	2593.638366
452.453954	2595.533840
452.827883	2593.792121
453.201752	2596.726072
453.575562	2595.564087
453.949311	2595.138109
454.323001	2593.797162
454.696632	2596.491659
455.070202	2593.943356
455.443713	2597.464602
455.817164	2597.651124
456.190556	2596.000146
456.563888	2599.191197
456.937160	2595.700198
457.310373	2596.262286
457.683526	2598.316557
458.056619	2597.540219
458.429653	2596.973089
458.802628	2596.017790
459.175542	2598.956783
459.548398	2598.772781
459.921194	2598.077102
460.293930	2600.862339
460.666607	2601.323605
461.039224	2601.661362
461.411782	2603.602206
461.784280	2603.675303
462.156719	2602.848554
462.529099	2603.161105
462.901419	2603.554315
463.273680	2600.101125
463.645882	2595.102821
464.018024	2601.285796
464.390106	2598.235898
464.762130	2600.416197
465.134094	2600.721187
465.505999	2604.572628
465.877845	2610.700151
466.249631	2612.179730
466.621358	2611.161417
466.993026	2613.016561
467.364634	2614.791047
467.736184	2610.974894
468.107674	2608.819801
468.479105	2611.388268
468.850477	2610.798453
469.221790	2609.149996
469.593043	2609.545727
469.964238	2608.482043
470.335373	2607.483895
470.706449	2608.582866
471.077467	2609.331478
471.448425	2611.705861
471.819324	2615.590070
472.190164	2617.518312
472.560945	2615.849690
472.931667	2616.207612
473.302330	2612.164606
473.672934	2612.663680
474.043479	2612.976232
474.413965	2614.332302
474.784393	2612.260388
475.154761	2614.944802
475.525070	2613.414812
475.895321	2612.371293
476.265513	2615.146449
476.635645	2614.614607
477.005719	2615.839607
477.375734	2616.532766
477.745691	2617.767849
478.115588	2619.421347
478.485427	2621.382356
478.855207	2620.850514
479.224928	2623.504682
479.594591	2629.422996
479.964194	2629.919550
480.333739	2628.750002
480.703226	2629.470887
481.072653	2632.563635
481.442022	2632.041876
481.811333	2635.409367
482.180584	2633.009777
482.549777	2635.021198
482.918912	2630.065743
483.287988	2635.936167
483.657005	2637.012453
484.025964	2636.281486
484.394864	2635.021198
484.763706	2640.082516
485.132489	2638.116466
485.501213	2641.957825
485.869879	2643.397075
486.238487	2643.286169
486.607036	2644.044863
486.975527	2646.265491
487.343959	2647.921510
487.712333	2645.879843
488.080648	2648.813795
488.448905	2654.790082
488.817104	2654.618683
489.185244	2658.061791
489.553326	2658.754950
489.921350	2665.822648
490.289315	2674.450582
490.657222	2684.721933
491.025070	2687.550021
491.392861	2693.294416
491.760593	2692.318952
492.128267	2692.122347
492.495883	2693.571679
492.863440	2694.244673
493.230939	2693.029755
493.598380	2701.514017
493.965763	2702.565097
494.333088	2706.900490
494.700354	2712.181098
495.067563	2717.902808
495.434713	2722.487737
495.801805	2733.611043
496.168839	2737.187742
496.535815	2742.158320
496.902733	2754.105854
497.269593	2763.396701
497.636395	2773.352980
498.003139	2786.238169
498.369825	2791.352420
498.736453	2804.035963
499.103023	2822.113540
499.469535	2833.970334
499.835989	2847.430215
500.202385	2860.839684
500.568723	2869.964173
500.935003	2897.030128
501.301226	2909.607807
501.667390	2945.226079
502.033497	2972.629791
502.399546	2989.971361
502.765537	3005.399812
503.131470	3038.719318
503.497345	3063.725962
503.863163	3078.441090
504.228923	3122.644447
504.594625	3159.039058
504.960269	3172.027591
505.325856	3219.411916
505.691385	3243.574167
506.056856	3293.794141
506.422270	3339.625791
506.787625	3361.711086
507.152924	3424.624686
507.518164	3464.921150
507.883347	3500.844412
508.248472	3533.863970
508.613540	3615.480250
508.978550	3671.739527
509.343503	3726.683063
509.708398	3795.658651
510.073236	3860.462683
510.438016	3934.734003
510.802738	3983.043380
511.167403	4063.956420
511.532010	4104.681381
511.896561	4231.428592
512.261053	4316.457734
512.625488	4367.081001
512.989866	4426.044857
513.354186	4485.545596
513.718449	4586.552675
514.082655	4685.674362
514.446803	4764.991877
514.810894	4884.089136
515.174927	4921.882667
515.538904	5016.626112
515.902822	5148.371627
516.266684	5233.269699
516.630488	5304.044978
516.994235	5402.181120
517.357925	5530.942272
517.721558	5664.379093
518.085133	5780.865035
518.448651	5876.193254
518.812112	5954.484894
519.175516	6068.684673
519.538863	6226.172840
519.902152	6293.444517
520.265385	6462.703778
520.628560	6542.210336
520.991678	6671.742784
521.354739	6809.230173
521.717743	6942.057015
522.080690	7019.877307
522.443580	7232.276242
522.806413	7326.618916
523.169189	7508.425608
523.531908	7613.200950
523.894569	7694.993671
524.257174	7844.942792
524.619722	8023.008949
524.982213	8067.688696
525.344647	8248.600584
525.707025	8391.502172
526.069345	8548.115698
526.431608	8691.949900
526.793815	8893.807782
527.155964	8855.195064
527.518057	9060.221312
527.880093	9195.757774
528.242072	9351.746198
528.603995	9431.154453
528.965860	9518.938585
529.327669	9731.057736
529.689421	9838.449437
530.051117	9935.486607
530.412755	10173.640797
530.774337	10222.192150
531.135862	10338.327732
531.497331	10548.548888
531.858743	10547.608713
532.220098	10893.540252
532.581396	10874.915709
532.942638	11082.767523
533.303824	11229.757487
533.664953	11401.108827
534.026025	11457.620161
534.387040	11658.938640
534.747999	11887.605378
535.108902	12064.557440
535.469748	12033.365301
535.830537	12277.473093
536.191270	12453.825258
536.551947	12627.606434
536.912567	12576.567272
537.273131	12891.273903
537.633638	12896.269687
537.994089	13199.774875
538.354483	13112.610804
538.714821	13506.390455
539.075103	13728.884300
539.435328	13755.310029
539.795497	13684.292774
540.155609	14055.150298
540.515665	14337.558257
540.875665	14101.634777
541.235609	14383.387386
541.595496	14559.898347
541.955328	14873.851326
542.315102	14978.772861
542.674821	14915.271967
543.034483	14986.238810
543.394090	15189.198185
543.753640	15220.478544
544.113134	15714.289810
544.472571	15671.692060
544.831953	16007.143040
545.191278	15880.917589
545.550548	16012.489184
545.909761	16226.849128
546.268918	16544.456943
546.628019	16644.029814
546.987064	16650.144734
547.346053	16646.104249
547.704986	16824.966908
548.063863	17086.035663
548.422684	17153.645098
548.781449	17053.386630
549.140158	17444.950693
549.498811	17331.134042
549.857408	17225.413484
550.215949	17682.794852
550.574434	17563.024599
550.932864	17857.985031
551.291237	18061.917348
551.649555	18135.424933
552.007817	18283.597047
552.366022	18330.376434
552.724173	18454.905537
553.082267	18529.912865
553.440305	19003.279732
553.798288	18578.822140
554.156215	19087.651003
554.514086	19258.599051
554.871902	18885.276403
555.229661	19202.085196
555.587365	19217.680005
555.945014	19180.453604
556.302606	19526.397746
556.660143	19535.212203
557.017625	19868.800477
557.375050	19607.078893
557.732421	19999.867956
558.089735	19969.192535
558.446994	20096.612740
558.804197	20219.258972
559.161345	20291.367636
559.518437	20126.819334
559.875474	20438.781057
560.232455	20635.870008
560.589381	20613.366297
560.946251	20629.293823
561.303065	21020.416785
561.659825	21162.602529
562.016528	20916.221176
562.373177	20788.977412
562.729770	21127.831171
563.086307	21146.682565
563.442789	21359.353723
563.799216	21272.356010
564.155587	21352.124708
564.511904	21414.503946
564.868164	21404.696381
565.224370	21485.425419
565.580520	21431.288468
565.936615	21628.785752
566.292654	21377.887525
566.648638	21756.374835
567.004567	21625.138477
567.360441	21643.911734
567.716260	21442.588214
568.072023	21817.125780
568.427732	21634.736834
568.783385	21490.174186
569.138982	21739.030745
569.494525	21834.066578
569.850013	21660.204743
570.205445	21787.705606
570.560823	21642.951394
570.916145	21472.830096
571.271412	21651.987662
571.626625	21481.425263
571.981782	21612.701950
572.336884	21459.511367
572.691931	21621.831480
573.046923	21399.166235
573.401860	21339.085764
573.756743	21368.851257
574.111570	21312.062658
574.466342	21278.788523
574.821059	21407.559756
575.175722	21148.706589
575.530330	21170.900268
575.884882	21223.640820
576.239380	21153.024337
576.593823	21069.948642
576.948211	21076.204714
577.302544	20941.434507
577.656823	20844.840958
578.011047	20962.551901
578.365216	20859.830829
578.719330	20755.302504
579.073389	20681.862975
579.427394	20835.545071
579.781344	20648.979528
580.135239	20561.863349
580.489080	20536.183711
580.842866	20318.141204
581.196597	20509.795791
581.550273	20509.500884
581.903895	20417.159548
582.257463	20743.697768
582.610975	20290.359406
582.964434	20579.000751
583.317837	20326.030610
583.671186	20427.186403
584.024481	20397.050386
584.377721	20197.874397
584.730906	20247.570092
585.084037	20285.479569
585.437113	20200.946980
585.790135	20399.044162
586.143103	19893.408869
586.496016	19908.920500
586.848874	20162.137658
587.201679	20120.033941
587.554428	19768.012688
587.907124	20114.607138
588.259765	19903.007226
588.612352	19983.479165
588.964884	19561.963086
589.317362	19732.054138
589.669786	19784.663619
590.022155	19852.298260
590.374470	20017.708600
590.726731	19836.758903
591.078937	19592.819989
591.431090	19709.938596
591.783188	19442.444890
592.135232	19428.712787
592.487222	19529.707263
592.839157	19568.115815
593.191038	19445.830025
593.542866	19335.065793
593.894639	19057.482218
594.246358	19280.999418
594.598022	19200.497232
594.949633	18950.019942
595.301190	18913.504344
595.652692	19072.593077
596.004141	19330.380040
596.355535	18661.023194
596.706876	18670.253547
597.058162	18558.617195
597.409395	18776.062325
597.760573	18878.914467
598.111698	18664.824224
598.462768	18593.953163
598.813785	18547.433395
599.164748	18376.122385
599.515657	18408.872241
599.866511	18204.219039
600.217312	18561.588955
600.568060	18098.533769
600.918753	18407.251510
601.269392	18308.076890
601.619978	18085.194876
601.970510	18299.942988
602.320988	18246.093383
602.671412	18456.727914
603.021783	18353.797635
603.372100	18095.771217
603.722363	18231.796671
604.072572	18166.675045
604.422728	18301.263771
604.772830	18057.294610
605.122878	18009.980860
605.472872	18005.068256
605.822813	18007.203185
606.172701	17948.546839
606.522534	18164.915683
606.872314	18177.211057
607.222041	18006.593205
607.571714	18234.803719
607.921333	18058.872491
608.270899	18136.513822
608.620411	18331.087237
608.969870	18077.781859
609.319276	18086.419876
609.668627	18109.314276
610.017926	18258.608047
610.367171	18373.432929
610.716362	18409.240245
611.065500	18228.857678
611.414585	18364.283235
611.763616	18343.922015
612.112594	18303.759142
612.461518	18264.773379
612.810389	18458.527606
613.159207	18306.423392
613.507971	18214.714721
613.856682	18506.562241
614.205340	18436.323844
614.553945	18573.455832
614.902496	18320.427717
615.250994	18569.349812
615.599439	18496.374069
615.947830	18489.646649
616.296169	18522.436834
616.644454	18498.337598
616.992686	18469.935737
617.340864	18683.834416
617.688990	18442.007745
618.037063	18617.621380
618.385082	18474.021593
618.733048	18739.881964
619.080961	18603.864072
619.428821	18650.928284
619.776628	18546.899033
620.124382	18468.930027
620.472083	18503.580398
620.819731	18516.891565
621.167326	18213.759422
621.514868	18255.941277
621.862357	18023.491153
622.209793	18034.624541
622.557176	17861.871760
622.904506	17701.265640
623.251783	17603.822657
623.599007	17380.040796
623.946179	17317.568297
624.293297	17260.278104
624.640363	17018.587545
624.987376	17036.357612
625.334336	16837.468970
625.681243	16671.100810
626.028097	16682.085485
626.374899	16619.345804
626.721647	16486.332440
627.068343	16321.529559
627.414987	16253.342912
627.761577	16218.972325
628.108115	16272.733710
628.454600	15988.274001
628.801032	16089.878457
629.147412	16015.627302
629.493739	16038.302412
629.840014	15852.545975
630.186236	15956.827284
630.532405	15711.315530
630.878521	15916.571150
631.224585	15798.338448
631.570597	15631.771163
631.916556	15665.415824
632.262462	15642.239119
632.608316	15555.760645
632.954117	15497.366440
633.299866	15495.977602
633.645562	15426.717189
633.991206	15177.616134
634.336797	15046.145362
634.682336	15007.386451
635.027823	14914.934210
635.373257	14793.823009
635.718639	14683.668756
636.063968	14645.227438
636.409245	14390.397111
636.754470	14421.952213
637.099642	14266.793060
637.444762	14045.067990
637.789829	14088.195061
638.134845	13919.586109
638.479808	13948.124081
638.824719	13896.923602
639.169577	13749.520263
639.514383	13793.559783
639.859137	13613.898102
