Dividing Wavelength (nm)	Counts (n)	Blue Motor Position (mm): 37.200000	Red Motor Position (mm): 0.000000	
326.493990	2126.343569
326.888308	2126.343569
327.282561	2126.343569
327.676750	2094.317118
328.070874	2095.476584
328.464933	2100.852974
328.858929	2104.694334
329.252859	2115.610952
329.646726	2127.422376
330.040528	2138.180198
330.434265	2154.896664
330.827938	2171.845023
331.221547	2192.493590
331.615091	2208.365663
332.008571	2230.609754
332.401986	2249.854359
332.795338	2268.816659
333.188625	2287.131171
333.581847	2307.477268
333.975006	2324.985195
334.368100	2343.881960
334.761129	2361.581451
335.154095	2377.821528
335.546996	2397.620660
335.939833	2423.517067
336.332606	2436.757658
336.725315	2451.366922
337.117960	2460.617439
337.510540	2469.694037
337.903056	2480.020840
338.295508	2485.427478
338.687896	2495.797131
339.080220	2503.588235
339.472480	2510.061076
339.864676	2515.676922
340.256807	2519.097344
340.648875	2523.349558
341.040879	2524.985412
341.432818	2528.206709
341.824694	2528.879703
342.216506	2527.274096
342.608253	2527.448016
342.999937	2530.389529
343.391557	2529.431710
343.783113	2525.618077
344.174605	2526.817872
344.566033	2524.166225
344.957397	2524.806451
345.348697	2520.574403
345.739934	2520.145904
346.131106	2519.908970
346.522215	2516.826305
346.913260	2513.552075
347.304241	2514.875378
347.695159	2511.684328
348.086012	2509.897239
348.476802	2507.109481
348.867528	2506.842299
349.258191	2505.125787
349.648789	2507.094357
350.039324	2501.667555
350.429796	2503.552947
350.820203	2499.852740
351.210548	2502.461537
351.600828	2496.734786
351.991045	2496.525578
352.381198	2495.497183
352.771288	2495.141781
353.161314	2497.793428
353.551276	2496.283603
353.941175	2493.609271
354.331010	2495.908037
354.720782	2495.847543
355.110490	2494.693119
355.500135	2495.638335
355.889717	2496.981803
356.279235	2496.828047
356.668689	2498.365599
357.058080	2495.817296
357.447408	2493.321925
357.836672	2494.975423
358.225873	2492.911071
358.615010	2490.352685
359.004084	2497.972389
359.393095	2497.606906
359.782043	2501.685199
360.170927	2499.209993
360.559748	2500.039262
360.948505	2499.678820
361.337199	2503.189983
361.725830	2501.629746
362.114398	2502.549757
362.502903	2502.443893
362.891344	2504.208297
363.279722	2502.985817
363.668037	2502.736280
364.056289	2505.793739
364.444478	2508.997393
364.832603	2506.171826
365.220665	2507.570746
365.608665	2505.352638
365.996601	2506.222238
366.384474	2507.321209
366.772284	2507.790036
367.160031	2508.785664
367.547715	2507.149810
367.935336	2510.159379
368.322893	2510.625685
368.710388	2510.522342
369.097820	2511.001251
369.485189	2509.415808
369.872495	2509.408247
370.259738	2510.804646
370.646918	2511.510408
371.034035	2507.434635
371.421090	2513.037877
371.808081	2513.108454
372.195010	2513.569719
372.581875	2513.173989
372.968678	2514.227590
373.355418	2511.409585
373.742096	2513.244565
374.128710	2513.892353
374.515262	2515.379493
374.901751	2512.780779
375.288177	2513.123577
375.674540	2516.944772
376.060841	2512.637106
376.447079	2513.171468
376.833254	2513.902435
377.219367	2511.281035
377.605417	2513.176509
377.991404	2509.214162
378.377329	2514.063752
378.763191	2512.954698
379.148991	2516.410409
379.534727	2517.489216
379.920402	2518.298322
380.306013	2516.417971
380.691563	2521.398631
381.077049	2519.603980
381.462474	2520.818898
381.847835	2520.826460
382.233134	2518.978877
382.618371	2520.811337
383.003545	2523.064732
383.388657	2519.503157
383.773706	2521.839732
384.158693	2522.621111
384.543618	2520.700431
384.928480	2520.806296
385.313280	2523.931811
385.698017	2521.801923
386.082692	2525.461801
386.467305	2527.710156
386.851856	2525.834847
387.236344	2521.564989
387.620770	2525.292923
388.005133	2527.672347
388.389435	2525.033303
388.773674	2528.337779
389.157851	2526.230577
389.541965	2530.996988
389.926018	2527.115300
390.310008	2529.966072
390.693936	2531.017153
391.077802	2529.945908
391.461606	2528.990609
391.845348	2531.526309
392.229027	2531.067564
392.612645	2529.771988
392.996200	2532.032945
393.379694	2533.633512
393.763125	2535.599562
394.146494	2535.954963
394.529801	2535.571835
394.913047	2535.728111
395.296230	2536.385982
395.679351	2540.282793
396.062410	2542.337064
396.445408	2547.746222
396.828343	2549.845862
397.211217	2552.870555
397.594028	2557.054712
397.976778	2564.732390
398.359466	2570.688513
398.742092	2582.174782
399.124656	2590.739702
399.507158	2603.057762
399.889598	2620.323714
400.271977	2632.793008
400.654294	2648.075266
401.036549	2661.935918
401.418742	2674.470747
401.800874	2698.479242
402.182944	2724.829353
402.564952	2750.014958
402.946898	2770.746703
403.328783	2795.806279
403.710606	2804.824903
404.092367	2857.389014
404.474067	2881.044629
404.855705	2909.827097
405.237282	2922.230856
405.618797	2974.545430
406.000250	3008.946264
406.381642	3062.495920
406.762972	3088.288984
407.144240	3124.693677
407.525447	3161.337824
407.906593	3214.753890
408.287677	3263.151488
408.668700	3279.129425
409.049661	3335.252590
409.430560	3390.561610
409.811399	3404.228178
410.192176	3511.488808
410.572891	3522.460880
410.953545	3615.316413
411.334138	3598.882251
411.714669	3673.687933
412.095139	3660.086900
412.475547	3782.034932
412.855894	3812.057524
413.236180	3861.312118
413.616405	3877.158985
413.996568	3968.842450
414.376670	3969.853201
414.756711	3982.330057
415.136691	4041.432545
415.516609	4134.091473
415.896466	4188.926624
416.276262	4256.410030
416.655997	4279.427938
417.035670	4447.588228
417.415283	4555.363056
417.794834	4547.443403
418.174324	4545.192528
418.553753	4509.591899
418.933121	4688.310886
419.312428	4784.559115
419.691674	4768.039254
420.070859	4901.334924
420.449983	4852.675186
420.829045	4982.013550
421.208047	4926.694448
421.586988	5020.805229
421.965867	5053.532399
422.344686	5195.695458
422.723444	5086.100774
423.102141	4937.122075
423.480777	5230.668463
423.859352	5032.359553
424.237866	5292.465448
424.616319	5298.189678
424.994712	5419.915899
425.373044	5313.139220
425.751314	5465.803002
426.129524	5287.421773
426.507673	5483.719263
426.885762	5576.542029
427.263789	5516.854767
427.641756	5410.884672
428.019662	5532.512591
428.397508	5549.801228
428.775292	5505.469321
429.153016	5611.477225
429.530679	5540.265886
429.908282	5624.896776
430.285824	5502.469835
430.663305	5778.538543
431.040726	5518.861146
431.418086	5520.728894
431.795385	5624.382579
432.172624	5642.596267
432.549802	5634.157376
432.926920	5650.624305
433.303977	5656.222506
433.680974	5695.304052
434.057910	5719.723401
434.434786	5725.477878
434.811601	5692.755748
435.188355	5925.992293
435.565050	5806.199354
435.941683	5787.158916
436.318257	6000.535835
436.694770	5985.924050
437.071222	6018.585686
437.447614	5949.877280
437.823946	5866.569692
438.200218	6016.518813
438.576429	5885.534513
438.952580	5979.400797
439.328670	6030.439959
439.704700	5936.382111
440.080670	5922.637405
440.456580	6193.662438
440.832429	6075.661630
441.208218	5923.423825
441.583947	6076.243883
441.959616	6080.944759
442.335224	6009.166290
442.710773	6142.671167
443.086261	6174.498492
443.461689	5967.052491
443.837057	6121.818434
444.212365	6272.755622
444.587612	6166.324261
444.962800	6322.521892
445.337927	6294.049456
445.712995	5909.946300
446.088002	6486.402242
446.462949	6314.967723
446.837837	6250.347693
447.212664	6421.008395
447.587431	6557.273304
447.962139	7108.044567
448.336786	8025.768981
448.711374	7767.974455
449.085901	6841.720409
449.460369	6767.864985
449.834776	6701.256219
450.209124	7092.938750
450.583412	7241.952737
450.957640	7391.450675
451.331808	7157.364696
451.705917	6709.806016
452.079965	6625.742255
452.453954	6839.842580
452.827883	6718.007973
453.201752	6810.003990
453.575562	6611.095183
453.949311	6815.135885
454.323001	6704.414502
454.696632	6775.605677
455.070202	6918.482059
455.443713	7070.848413
455.817164	7172.354567
456.190556	7252.894561
456.563888	7330.235943
456.937160	7369.846810
457.310373	7029.571446
457.683526	7058.875673
458.056619	6944.799403
458.429653	6933.121570
458.802628	6868.292331
459.175542	6980.667212
459.548398	7332.252405
459.921194	7488.087073
460.293930	7491.293247
460.666607	8021.952827
461.039224	8324.346441
461.411782	8458.136143
461.784280	8480.576840
462.156719	8362.376905
462.529099	8243.231755
462.901419	7837.539858
463.273680	7727.718321
463.645882	7732.270483
464.018024	7608.084179
464.390106	7775.972246
464.762130	8162.485073
465.134094	8624.330383
465.505999	9646.394078
465.877845	10863.111847
466.249631	11514.234839
466.621358	11124.437701
466.993026	10497.267751
467.364634	10243.377599
467.736184	9882.302434
468.107674	9554.645078
468.479105	9583.135159
468.850477	9346.667235
469.221790	9115.179971
469.593043	8796.430334
469.964238	8660.490579
470.335373	8666.343359
470.706449	8723.177327
471.077467	8709.609062
471.448425	10017.027271
471.819324	11083.692575
472.190164	11104.096645
472.560945	9857.497437
472.931667	9071.810924
473.302330	8938.358979
473.672934	8584.452335
474.043479	8937.653218
474.413965	8882.107264
474.784393	8760.323069
475.154761	8922.824664
475.525070	9009.698868
475.895321	8835.831992
476.265513	9013.051235
476.635645	9180.760341
477.005719	9180.246144
477.375734	9296.590933
477.745691	9523.931848
478.115588	9665.600874
478.485427	9915.841231
478.855207	10440.733731
479.224928	11251.595765
479.594591	11883.922816
479.964194	11697.377438
480.333739	11624.018567
480.703226	11554.034749
481.072653	11641.902061
481.442022	11880.787218
481.811333	12070.042216
482.180584	11869.051412
482.549777	11578.565004
482.918912	11400.604711
483.287988	11428.232755
483.657005	11438.574682
484.025964	11122.895107
484.394864	11256.725139
484.763706	11221.195087
485.132489	10983.073664
485.501213	10950.197780
485.869879	11028.557475
486.238487	10869.985460
486.607036	10975.307767
486.975527	10751.967008
487.343959	10949.585279
487.712333	10992.583801
488.080648	10919.693758
488.448905	10970.551438
488.817104	10907.489124
489.185244	11173.911584
489.553326	11329.819349
489.921350	11860.816687
490.289315	12924.202720
490.657222	13268.316923
491.025070	13173.192871
491.392861	13049.515723
491.760593	12671.739215
492.128267	12320.269969
492.495883	11990.402067
492.863440	11655.813125
493.230939	11315.686475
493.598380	11252.505693
493.965763	11123.179933
494.333088	11021.933399
494.700354	10938.729155
495.067563	11010.149702
495.434713	10836.857518
495.801805	10959.034922
496.168839	10887.543799
496.535815	10826.684469
496.902733	10824.259674
497.269593	10755.011864
497.636395	10852.691782
498.003139	10840.527478
498.369825	10713.089629
498.736453	10866.144101
499.103023	10796.994594
499.469535	10827.848976
499.835989	10807.102107
500.202385	10775.667992
500.568723	10629.875303
500.935003	10851.388644
501.301226	10656.991669
501.667390	10916.233006
502.033497	11006.809937
502.399546	10871.475121
502.765537	10779.277458
503.131470	10853.803356
503.497345	11030.291632
503.863163	10636.169183
504.228923	10947.263828
504.594625	11011.039465
504.960269	10757.227452
505.325856	10982.052831
505.691385	10772.592888
506.056856	10924.165261
506.422270	10948.040166
506.787625	10840.565286
507.152924	10956.708430
507.518164	10930.665829
507.883347	10857.813594
508.248472	10776.840061
508.613540	11016.088181
508.978550	10895.803730
509.343503	10871.351613
509.708398	10996.495737
510.073236	11102.675039
510.438016	11110.377922
510.802738	11056.084696
511.167403	11107.811975
511.532010	11009.542243
511.896561	11237.009187
512.261053	11312.634056
512.625488	11182.630260
512.989866	11160.912969
513.354186	11145.325722
513.718449	11049.614375
514.082655	11242.720814
514.446803	11144.151133
514.810894	11265.544638
515.174927	11133.118568
515.538904	11156.817032
515.902822	11302.239197
516.266684	11186.148985
516.630488	11131.134873
516.994235	11187.782319
517.357925	11243.224929
517.721558	11334.633651
518.085133	11352.232319
518.448651	11362.307065
518.812112	11248.127451
519.175516	11255.227917
519.538863	11383.023687
519.902152	11298.221397
520.265385	11463.609052
520.628560	11367.786800
520.991678	11345.419200
521.354739	11415.276989
521.717743	11346.805517
522.080690	11329.595018
522.443580	11460.276849
522.806413	11414.243553
523.169189	11450.297885
523.531908	11506.728561
523.894569	11325.224338
524.257174	11329.370687
524.619722	11447.464757
524.982213	11386.335725
525.344647	11446.988368
525.707025	11393.383258
526.069345	11483.564459
526.431608	11405.913046
526.793815	11516.783143
527.155964	11305.077366
527.518057	11358.266581
527.880093	11306.032665
528.242072	11376.472708
528.603995	11288.406271
528.965860	11202.883096
529.327669	11253.153482
529.689421	11203.077180
530.051117	11172.129537
530.412755	11283.198759
530.774337	11173.150370
531.135862	11146.986782
531.497331	11170.730616
531.858743	11026.483040
532.220098	11182.438696
532.581396	11063.003679
532.942638	11045.301668
533.303824	11009.509475
533.664953	11020.678152
534.026025	10930.275140
534.387040	11033.139884
534.747999	11038.087776
535.108902	11096.033319
535.469748	10851.529796
535.830537	10951.669797
536.191270	10938.318301
536.551947	10960.653133
536.912567	10953.885384
537.273131	10876.186079
537.633638	10864.450273
537.994089	10849.851092
538.354483	10796.034254
538.714821	10943.414907
539.075103	10957.111722
539.435328	10920.772565
539.795497	10745.637839
540.155609	10903.166335
540.515665	10999.785089
540.875665	10724.706968
541.235609	10798.451487
541.595496	10798.978288
541.955328	10941.373240
542.315102	10831.017341
542.674821	10775.917529
543.034483	10782.806266
543.394090	10784.457244
543.753640	10716.895700
544.113134	10936.569020
544.472571	10795.310848
544.831953	10931.059039
545.191278	10731.935983
545.550548	10770.407548
545.909761	10901.611139
546.268918	10876.740606
546.628019	10961.227824
546.987064	10825.308234
547.346053	10744.402756
547.704986	10844.210041
548.063863	10833.253093
548.422684	10833.779893
548.781449	10743.938970
549.140158	10841.959165
549.498811	10722.395599
549.857408	10589.041956
550.215949	10801.791252
550.574434	10655.131483
550.932864	10759.206104
551.291237	10821.078706
551.649555	10764.688359
552.007817	10777.671851
552.366022	10741.554504
552.724173	10733.453370
553.082267	10716.441996
553.440305	10855.343429
553.798288	10659.461834
554.156215	10811.190483
554.514086	10790.284818
554.871902	10633.946034
555.229661	10677.489001
555.587365	10655.696092
555.945014	10545.438496
556.302606	10669.408031
556.660143	10556.445856
557.017625	10718.425690
557.375050	10612.516089
557.732421	10745.569783
558.089735	10664.747484
558.446994	10661.596763
558.804197	10699.894409
559.161345	10701.305932
559.518437	10555.165403
559.875474	10638.225974
560.232455	10666.093472
560.589381	10618.142017
560.946251	10618.646132
561.303065	10720.553057
561.659825	10661.654736
562.016528	10583.398385
562.373177	10466.617535
562.729770	10581.263456
563.086307	10497.834880
563.442789	10590.067831
563.799216	10465.208533
564.155587	10515.473878
564.511904	10475.956273
564.868164	10459.597728
565.224370	10474.063319
565.580520	10401.821064
565.936615	10406.736189
566.292654	10278.363207
566.648638	10408.689636
567.004567	10371.710252
567.360441	10350.837355
567.716260	10258.213715
568.072023	10352.024547
568.427732	10302.245673
568.783385	10212.838289
569.138982	10286.025760
569.494525	10301.222319
569.850013	10180.272435
570.205445	10252.464279
570.560823	10154.033229
570.916145	10073.399973
571.271412	10136.578234
571.626625	10088.304145
571.981782	10062.894209
572.336884	10041.570128
572.691931	10044.166322
573.046923	9989.043826
573.401860	9943.181928
573.756743	9885.783351
574.111570	9924.234752
574.466342	9911.510879
574.821059	9932.782028
575.175722	9827.137088
575.530330	9839.770219
575.884882	9832.135392
576.239380	9754.431046
576.593823	9733.248118
576.948211	9757.410368
577.302544	9629.037385
577.656823	9644.972473
578.011047	9649.113781
578.365216	9623.560172
578.719330	9555.244975
579.073389	9551.237258
579.427394	9506.222275
579.781344	9486.009768
580.135239	9433.871635
580.489080	9446.141803
580.842866	9343.014919
581.196597	9345.583387
581.550273	9386.416733
581.903895	9357.646868
582.257463	9425.493237
582.610975	9301.402715
582.964434	9322.247886
583.317837	9252.866485
583.671186	9226.607115
584.024481	9225.112413
584.377721	9146.339343
584.730906	9126.026013
585.084037	9147.612234
585.437113	9083.135877
585.790135	9109.564126
586.143103	9010.439917
586.496016	8984.218356
586.848874	9038.453609
587.201679	9031.706025
587.554428	8913.848889
587.907124	8953.878171
588.259765	8938.132127
588.612352	8928.218698
588.964884	8809.539854
589.317362	8830.788318
589.669786	8819.768356
590.022155	8869.816931
590.374470	8886.450218
590.726731	8823.808840
591.078937	8673.191766
591.431090	8788.969426
591.783188	8660.901433
592.135232	8653.884147
592.487222	8655.036051
592.839157	8708.570584
593.191038	8639.017784
593.542866	8589.806041
593.894639	8485.186975
594.246358	8539.260912
594.598022	8553.487048
594.949633	8453.034496
595.301190	8423.183303
595.652692	8457.523643
596.004141	8567.249398
596.355535	8343.041560
596.706876	8323.842325
597.058162	8262.771267
597.409395	8334.585024
597.760573	8395.719097
598.111698	8305.530334
598.462768	8288.834033
598.813785	8255.438909
599.164748	8222.590750
599.515657	8216.473310
599.866511	8126.501317
600.217312	8252.394052
600.568060	8112.401210
600.918753	8215.487765
601.269392	8187.012807
601.619978	8098.119621
601.970510	8156.080287
602.320988	8161.953231
602.671412	8211.525418
603.021783	8150.512333
603.372100	8126.047613
603.722363	8124.048796
604.072572	8100.057944
604.422728	8111.317362
604.772830	8040.043008
605.122878	8049.878299
605.472872	8043.201291
605.822813	8072.369407
606.172701	8014.418823
606.522534	8094.676513
606.872314	8089.743744
607.222041	8061.374650
607.571714	8114.619317
607.921333	8074.965601
608.270899	8081.753515
608.620411	8168.428593
608.969870	8076.157834
609.319276	8071.013337
609.668627	8086.905574
610.017926	8121.182900
610.367171	8161.118920
610.716362	8145.539234
611.065500	8132.986761
611.414585	8162.457347
611.763616	8148.992425
612.112594	8132.989282
612.461518	8148.929410
612.810389	8206.459058
613.159207	8148.022003
613.507971	8093.585103
613.856682	8215.190337
614.205340	8169.179725
614.553945	8247.466324
614.902496	8146.239955
615.250994	8200.873460
615.599439	8183.206736
615.947830	8194.428344
616.296169	8166.054210
616.644454	8180.746653
616.992686	8175.508894
617.340864	8238.810663
617.688990	8146.406313
618.037063	8236.403512
618.385082	8181.349071
618.733048	8265.261597
619.080961	8202.363121
619.428821	8217.836942
619.776628	8223.147798
620.124382	8177.676590
620.472083	8158.752099
620.819731	8186.591871
621.167326	8078.920386
621.514868	8091.787932
621.862357	7978.190571
622.209793	7995.441399
622.557176	7926.264166
622.904506	7901.978407
623.251783	7831.372006
623.599007	7786.530943
623.946179	7793.795245
624.293297	7748.192968
624.640363	7670.347470
624.987376	7648.768811
625.334336	7596.171932
625.681243	7542.899539
626.028097	7534.006944
626.374899	7508.360073
626.721647	7503.003848
627.068343	7439.704599
627.414987	7405.656646
627.761577	7362.620316
628.108115	7397.421921
628.454600	7290.378061
628.801032	7339.743560
629.147412	7301.201418
629.493739	7290.632639
629.840014	7224.777526
630.186236	7280.764580
630.532405	7171.646285
630.878521	7216.245373
631.224585	7178.555186
631.570597	7099.976200
631.916556	7130.777650
632.262462	7132.461396
632.608316	7095.532423
632.954117	7070.888743
633.299866	7054.658748
633.645562	7048.813530
633.991206	6974.587581
634.336797	6913.524084
634.682336	6868.499019
635.027823	6834.398133
635.373257	6823.436144
635.718639	6760.325939
636.063968	6770.559482
636.409245	6667.319172
636.754470	6662.424211
637.099642	6626.387523
637.444762	6564.376289
637.789829	6579.088897
638.134845	6517.944742
638.479808	6506.347567
638.824719	6508.880747
639.169577	6435.622700
639.514383	6456.488035
639.859137	6388.681996
640.203839	6394.716257
640.548489	6385.538836
