Dividing Wavelength (nm)	Counts (n)	Blue Motor Position (mm): 42.000000	Red Motor Position (mm): 0.000000	
326.493990	2131.548560
326.888308	2131.548560
327.282561	2131.548560
327.676750	2097.838364
328.070874	2097.291399
328.464933	2100.457244
328.858929	2105.473192
329.252859	2114.569954
329.646726	2126.212499
330.040528	2139.632050
330.434265	2159.710966
330.827938	2171.787050
331.221547	2192.221367
331.615091	2209.383976
332.008571	2230.602192
332.401986	2250.973495
332.795338	2268.615013
333.188625	2288.348609
333.581847	2308.828297
333.975006	2324.965030
334.368100	2346.092506
334.761129	2361.929291
335.154095	2378.398741
335.546996	2402.445044
335.939833	2423.832140
336.332606	2440.609100
336.725315	2450.333485
337.117960	2462.999384
337.510540	2467.647328
337.903056	2483.572333
338.295508	2486.876810
338.687896	2497.372492
339.080220	2504.916579
339.472480	2511.480161
339.864676	2518.010976
340.256807	2521.244876
340.648875	2522.164887
341.040879	2530.006401
341.432818	2529.008253
341.824694	2530.160157
342.216506	2528.917512
342.608253	2529.424148
342.999937	2533.630991
343.391557	2531.372554
343.783113	2530.520599
344.174605	2528.347862
344.566033	2525.852491
344.957397	2524.153622
345.348697	2522.631193
345.739934	2522.051461
346.131106	2520.408044
346.522215	2520.246728
346.913260	2514.278001
347.304241	2515.911335
347.695159	2511.986797
348.086012	2513.541993
348.476802	2510.252640
348.867528	2508.755417
349.258191	2507.628719
349.648789	2506.464213
350.039324	2502.514469
350.429796	2501.395333
350.820203	2503.074037
351.210548	2504.533451
351.600828	2502.733759
351.991045	2498.647904
352.381198	2498.882317
352.771288	2499.252842
353.161314	2498.673110
353.551276	2497.443068
353.941175	2497.644714
354.331010	2497.871566
354.720782	2496.298726
355.110490	2494.972903
355.500135	2496.918788
355.889717	2497.861484
356.279235	2497.627070
356.668689	2498.955414
357.058080	2500.026659
357.447408	2500.009015
357.836672	2497.402739
358.225873	2497.430465
358.615010	2497.942142
359.004084	2502.264932
359.393095	2499.673779
359.782043	2503.399191
360.170927	2501.659993
360.559748	2502.958090
360.948505	2501.526403
361.337199	2506.524707
361.725830	2504.561177
362.114398	2508.551251
362.502903	2506.774244
362.891344	2506.517145
363.279722	2507.923627
363.668037	2508.402537
364.056289	2509.456138
364.444478	2509.869512
364.832603	2509.524193
365.220665	2510.010665
365.608665	2510.713906
365.996601	2510.325737
366.384474	2509.748525
366.772284	2511.099554
367.160031	2510.403875
367.547715	2512.740449
367.935336	2512.253978
368.322893	2513.053001
368.710388	2514.134328
369.097820	2517.690863
369.485189	2513.789009
369.872495	2513.831859
370.259738	2515.026613
370.646918	2514.615759
371.034035	2517.090965
371.421090	2518.061387
371.808081	2517.302694
372.195010	2518.545338
372.581875	2513.146262
372.968678	2518.827643
373.355418	2519.591377
373.742096	2518.908301
374.128710	2518.048784
374.515262	2518.076511
374.901751	2522.295957
375.288177	2518.628517
375.674540	2519.868641
376.060841	2520.483662
376.447079	2525.492048
376.833254	2518.920904
377.219367	2514.625841
377.605417	2520.070287
377.991404	2520.718075
378.377329	2520.380318
378.763191	2518.961233
379.148991	2526.318797
379.534727	2521.108765
379.920402	2526.091945
380.306013	2522.220339
380.691563	2528.836854
381.077049	2527.538757
381.462474	2530.500434
381.847835	2531.609488
382.233134	2536.370858
382.618371	2537.764737
383.003545	2544.640871
383.388657	2550.430636
383.773706	2559.192162
384.158693	2565.067626
384.543618	2573.662794
384.928480	2584.284505
385.313280	2597.872935
385.698017	2612.598145
386.082692	2628.883593
386.467305	2638.925571
386.851856	2657.416524
387.236344	2676.030984
387.620770	2697.783563
388.005133	2717.950699
388.389435	2740.177146
388.773674	2759.144488
389.157851	2789.436781
389.541965	2812.812612
389.926018	2822.549600
390.310008	2867.685571
390.693936	2895.674057
391.077802	2932.590427
391.461606	2957.770990
391.845348	3006.881911
392.229027	3034.192362
392.612645	3066.841395
392.996200	3125.820374
393.379694	3172.728311
393.763125	3235.838516
394.146494	3253.482554
394.529801	3314.241061
394.913047	3374.384547
395.296230	3385.681773
395.679351	3449.517904
396.062410	3500.468846
396.445408	3521.538348
396.828343	3571.539033
397.211217	3622.381590
397.594028	3600.071964
397.976778	3676.536185
398.359466	3726.030234
398.742092	3777.533182
399.124656	3745.597472
399.507158	3832.378415
399.889598	3880.801218
400.271977	3954.598670
400.654294	3954.928865
401.036549	3988.041684
401.418742	3982.256960
401.800874	4094.173096
402.182944	4132.695073
402.564952	4207.261300
402.946898	4214.578535
403.328783	4230.052357
403.710606	4167.244621
404.092367	4357.898539
404.474067	4337.766691
404.855705	4358.836194
405.237282	4304.142195
405.618797	4417.263167
406.000250	4461.479127
406.381642	4545.613464
406.762972	4520.248899
407.144240	4537.489645
407.525447	4545.852919
407.906593	4613.089308
408.287677	4655.112367
408.668700	4589.355556
409.049661	4640.538391
409.430560	4687.481616
409.811399	4618.884115
410.192176	4782.736738
410.572891	4719.465216
410.953545	4829.352288
411.334138	4707.578176
411.714669	4778.608033
412.095139	4677.187580
412.475547	4815.446265
412.855894	4795.901712
413.236180	4808.829751
413.616405	4765.914408
413.996568	4848.811142
414.376670	4797.030930
414.756711	4750.995113
415.136691	4781.746152
415.516609	4860.035271
415.896466	4899.237804
416.276262	4937.802631
416.655997	4909.244494
417.035670	5095.933544
417.415283	5185.729097
417.794834	5131.093072
418.174324	5081.515844
418.553753	4994.152648
418.933121	5179.863715
419.312428	5246.595989
419.691674	5177.975803
420.070859	5308.763498
420.449983	5221.367534
420.829045	5343.222305
421.208047	5242.807562
421.586988	5316.473943
421.965867	5324.398637
422.344686	5462.964832
422.723444	5316.514272
423.102141	5134.644565
423.480777	5434.789824
423.859352	5201.996901
424.237866	5457.989214
424.616319	5453.215241
424.994712	5559.729781
425.373044	5439.994815
425.751314	5581.255507
426.129524	5379.881576
426.507673	5572.400721
426.885762	5662.710471
427.263789	5590.929482
427.641756	5472.946317
428.019662	5593.566005
428.397508	5603.058498
428.775292	5548.669489
429.153016	5649.593389
429.530679	5577.731741
429.908282	5657.223175
430.285824	5529.797930
430.663305	5804.097193
431.040726	5539.950813
431.418086	5537.047109
431.795385	5646.606505
432.172624	5661.041849
432.549802	5652.701260
432.926920	5664.921017
433.303977	5675.378891
433.680974	5711.019849
434.057910	5731.393672
434.434786	5731.076079
434.811601	5700.123395
435.188355	5936.014107
435.565050	5811.149767
435.941683	5794.955060
436.318257	6008.652092
436.694770	5995.746738
437.071222	6027.672366
437.447614	5955.583866
437.823946	5869.591863
438.200218	6025.784454
438.576429	5891.397374
438.952580	5989.341953
439.328670	6036.227204
439.704700	5940.364622
440.080670	5927.595380
440.456580	6196.462799
440.832429	6082.157157
441.208218	5929.153096
441.583947	6082.767136
441.959616	6087.392395
442.335224	6015.175345
442.710773	6150.689122
443.086261	6174.755591
443.461689	5970.440146
443.837057	6120.525378
444.212365	6274.262927
444.587612	6172.807185
444.962800	6320.281100
445.337927	6298.117667
445.712995	5912.991157
446.088002	6490.853581
446.462949	6322.209341
446.837837	6249.289051
447.212664	6421.661224
447.587431	6567.829480
447.962139	7112.274095
448.336786	8031.992285
448.711374	7775.997452
449.085901	6843.996490
449.460369	6772.003772
449.834776	6703.280243
450.209124	7097.639626
450.583412	7249.597647
450.957640	7398.641881
451.331808	7157.470560
451.705917	6718.118879
452.079965	6635.007896
452.453954	6839.731674
452.827883	6722.045938
453.201752	6810.553476
453.575562	6612.582323
453.949311	6817.595968
454.323001	6703.847372
454.696632	6783.764784
455.070202	6920.165804
455.443713	7077.843014
455.817164	7177.337747
456.190556	7261.081395
456.563888	7334.999834
456.937160	7370.499639
457.310373	7034.584873
457.683526	7057.643111
458.056619	6947.456091
458.429653	6930.696775
458.802628	6870.079420
459.175542	6976.629248
459.548398	7329.452044
459.921194	7496.951942
460.293930	7495.858012
460.666607	8027.513220
461.039224	8330.652924
461.411782	8458.332748
461.784280	8470.252557
462.156719	8365.542750
462.529099	8247.993125
462.901419	7833.509455
463.273680	7728.943322
463.645882	7741.067297
464.018024	7608.366483
464.390106	7771.833459
464.762130	8160.324939
465.134094	8628.111248
465.505999	9649.799377
465.877845	10875.117355
466.249631	11519.923782
466.621358	11136.564196
466.993026	10507.536581
467.364634	10255.698179
467.736184	9891.948682
468.107674	9553.334378
468.479105	9586.535417
468.850477	9351.317699
469.221790	9128.002146
469.593043	8800.047362
469.964238	8661.045106
470.335373	8669.297475
470.706449	8730.681085
471.077467	8709.425060
471.448425	10021.806284
471.819324	11090.505694
472.190164	11115.008222
472.560945	9866.863900
472.931667	9079.183612
473.302330	8950.276267
473.672934	8591.477183
474.043479	8948.244682
474.413965	8886.944251
474.784393	8774.907127
475.154761	8925.251979
475.525070	9014.238427
475.895321	8841.105039
476.265513	9021.268316
476.635645	9191.767701
477.005719	9188.518677
477.375734	9302.965472
477.745691	9540.834837
478.115588	9673.018932
478.485427	9919.110419
478.855207	10456.865423
479.224928	11266.933476
479.594591	11899.399158
479.964194	11712.682381
480.333739	11641.309725
480.703226	11565.906666
481.072653	11657.267498
481.442022	11895.605690
481.811333	12077.011611
482.180584	11882.836447
482.549777	11592.113105
482.918912	11415.327401
483.287988	11440.263468
483.657005	11454.222423
484.025964	11134.782148
484.394864	11262.640933
484.763706	11241.788200
485.132489	10993.715540
485.501213	10953.945878
485.869879	11033.404544
486.238487	10870.033351
486.607036	10987.774540
486.975527	10764.252299
487.343959	10954.732298
487.712333	11008.390339
488.080648	10934.267733
488.448905	10977.475463
488.817104	10911.340566
489.185244	11186.327946
489.553326	11347.198727
489.921350	11875.741023
490.289315	12938.859875
490.657222	13278.636165
491.025070	13184.863142
491.392861	13055.781877
491.760593	12678.885051
492.128267	12329.119715
492.495883	12005.056701
492.863440	11664.675473
493.230939	11326.403968
493.598380	11261.892322
493.965763	11128.964657
494.333088	11030.823474
494.700354	10951.637029
495.067563	11017.214879
495.434713	10844.951090
495.801805	10969.422220
496.168839	10889.398944
496.535815	10825.461989
496.902733	10826.802936
497.269593	10763.324727
497.636395	10870.597960
498.003139	10847.174239
498.369825	10720.411905
498.736453	10883.100022
499.103023	10806.126644
499.469535	10836.058495
499.835989	10819.682307
500.202385	10782.597058
500.568723	10634.119954
500.935003	10854.113387
501.301226	10665.145735
501.667390	10921.208624
502.033497	11022.077072
502.399546	10881.202028
502.765537	10781.442634
503.131470	10855.507266
503.497345	11030.730212
503.863163	10646.135544
504.228923	10952.277256
504.594625	11014.618685
504.960269	10765.429409
505.325856	10987.905610
505.691385	10783.605289
506.056856	10934.323186
506.422270	10958.876126
506.787625	10849.828407
507.152924	10966.095058
507.518164	10945.764085
507.883347	10876.264217
508.248472	10782.486153
508.613540	11015.158088
508.978550	10907.131202
509.343503	10882.502645
509.708398	10992.356949
510.073236	11111.945721
510.438016	11119.547781
510.802738	11066.774462
511.167403	11119.041145
511.532010	11018.991886
511.896561	11242.279713
512.261053	11319.195118
512.625488	11184.344252
512.989866	11167.915132
513.354186	11158.793164
513.718449	11064.367311
514.082655	11255.611044
514.446803	11148.383181
514.810894	11269.683425
515.174927	11128.021961
515.538904	11155.927268
515.902822	11313.135651
516.266684	11194.471930
516.630488	11142.096862
516.994235	11196.211128
517.357925	11253.705488
517.721558	11342.681853
518.085133	11357.137362
518.448651	11374.446164
518.812112	11250.978224
519.175516	11271.488158
519.538863	11394.797302
519.902152	11305.445371
520.265385	11464.667694
520.628560	11366.695390
520.991678	11349.878101
521.354739	11419.995509
521.717743	11363.559792
522.080690	11332.644916
522.443580	11476.176648
522.806413	11422.997517
523.169189	11454.819800
523.531908	11515.162412
523.894569	11333.524597
524.257174	11335.853611
524.619722	11455.081940
524.982213	11401.955740
525.344647	11451.621188
525.707025	11400.824001
526.069345	11495.960657
526.431608	11414.851012
526.793815	11522.741787
527.155964	11314.874849
527.518057	11368.764783
527.880093	11314.106073
528.242072	11381.960004
528.603995	11286.777978
528.965860	11205.491893
529.327669	11261.002558
529.689421	11205.542304
530.051117	11179.829899
530.412755	11280.153902
530.774337	11168.351192
531.135862	11157.840386
531.497331	11171.890082
531.858743	11032.794565
532.220098	11201.075842
532.581396	11063.815305
532.942638	11052.268542
533.303824	11016.047852
533.664953	11027.332475
534.026025	10939.981881
534.387040	11034.858917
534.747999	11049.692512
535.108902	11102.422982
535.469748	10860.848369
535.830537	10963.715634
536.191270	10935.817888
536.551947	10966.609256
536.912567	10957.383944
537.273131	10896.403627
537.633638	10864.752742
537.994089	10854.680517
538.354483	10812.513786
538.714821	10950.991761
539.075103	10960.426281
539.435328	10929.443349
539.795497	10752.786195
540.155609	10909.719835
540.515665	11000.188382
540.875665	10733.231559
541.235609	10808.216202
541.595496	10797.743205
541.955328	10953.897987
542.315102	10833.578247
542.674821	10785.737697
543.034483	10783.244847
543.394090	10784.495053
543.753640	10715.436286
544.113134	10934.202198
544.472571	10793.102823
544.831953	10937.373084
545.191278	10743.906203
545.550548	10772.628177
545.909761	10909.243446
546.268918	10883.190763
546.628019	10964.454163
546.987064	10833.492548
547.346053	10753.033212
547.704986	10854.110867
548.063863	10837.268372
548.422684	10833.316107
548.781449	10751.823335
549.140158	10854.032729
549.498811	10728.959181
549.857408	10588.353839
550.215949	10811.923971
550.574434	10667.320993
550.932864	10765.999059
551.291237	10817.975876
551.649555	10765.694069
552.007817	10783.159147
552.366022	10745.121121
552.724173	10739.044010
553.082267	10723.287883
553.440305	10860.175375
553.798288	10658.637606
554.156215	10818.061576
554.514086	10793.130549
554.871902	10636.282609
555.229661	10676.952118
555.587365	10651.012861
555.945014	10549.607530
556.302606	10674.192086
556.660143	10562.747298
557.017625	10716.235309
557.375050	10614.870308
557.732421	10752.040104
558.089735	10659.781948
558.446994	10661.385035
558.804197	10700.927845
559.161345	10700.199399
559.518437	10553.378313
559.875474	10638.321756
560.232455	10671.653865
560.589381	10617.443817
560.946251	10620.493715
561.303065	10728.240817
561.659825	10662.816722
562.016528	10588.994065
562.373177	10464.101999
562.729770	10587.277552
563.086307	10499.294294
563.442789	10594.103275
563.799216	10473.317229
564.155587	10525.483089
564.511904	10476.863680
564.868164	10468.583585
565.224370	10483.449948
565.580520	10409.496221
565.936615	10415.091902
566.292654	10286.439135
566.648638	10414.842365
567.004567	10365.703718
567.360441	10351.636378
567.716260	10259.897460
568.072023	10356.695176
568.427732	10310.866046
568.783385	10215.971366
569.138982	10288.773189
569.494525	10304.231887
569.850013	10176.564666
570.205445	10262.773438
570.560823	10154.716306
570.916145	10072.626156
571.271412	10144.777671
571.626625	10089.219114
571.981782	10066.861597
572.336884	10037.363285
572.691931	10046.575994
573.046923	9989.142128
573.401860	9946.083112
573.756743	9883.207321
574.111570	9924.174258
574.466342	9910.240509
574.821059	9943.459192
575.175722	9832.649589
575.530330	9842.832720
575.884882	9835.306277
576.239380	9757.816181
576.593823	9739.617616
576.948211	9753.899204
577.302544	9635.616091
577.656823	9654.197784
578.011047	9652.909769
578.365216	9626.758784
578.719330	9551.237258
579.073389	9558.060460
579.427394	9514.560343
579.781344	9490.483793
580.135239	9431.925749
580.489080	9441.839178
580.842866	9345.583387
581.196597	9347.035239
581.550273	9390.626097
581.903895	9357.271302
582.257463	9422.319831
582.610975	9305.244074
582.964434	9327.125202
583.317837	9252.385055
583.671186	9231.890244
584.024481	9230.400583
584.377721	9147.861771
584.730906	9125.872258
585.084037	9152.499633
585.437113	9090.649716
585.790135	9105.453065
586.143103	9012.937809
586.496016	8983.880598
586.848874	9039.948312
587.201679	9027.640334
587.554428	8919.547914
587.907124	8961.089542
588.259765	8932.750696
588.612352	8932.120551
588.964884	8817.721647
589.317362	8823.153490
589.669786	8823.897061
590.022155	8877.839927
590.374470	8894.364830
590.726731	8826.712545
591.078937	8684.856996
591.431090	8792.210888
591.783188	8666.746651
592.135232	8657.576792
592.487222	8655.492275
592.839157	8711.249957
593.191038	8644.157241
593.542866	8587.865196
593.894639	8490.097059
594.246358	8537.640181
594.598022	8556.567193
594.949633	8459.144374
595.301190	8428.262266
595.652692	8455.527346
596.004141	8566.589007
596.355535	8350.273095
596.706876	8326.229312
597.058162	8260.003674
597.409395	8336.747679
597.760573	8401.871825
598.111698	8305.991600
598.462768	8291.394939
598.813785	8257.775484
599.164748	8230.470074
599.515657	8220.100420
599.866511	8126.080381
600.217312	8254.947396
600.568060	8111.372814
600.918753	8215.538176
601.269392	8182.614400
601.619978	8092.037469
601.970510	8163.601689
602.320988	8154.078949
602.671412	8216.405255
603.021783	8147.749780
603.372100	8123.330431
603.722363	8127.653221
604.072572	8109.046322
604.422728	8117.419678
604.772830	8043.460910
605.122878	8050.959627
605.472872	8040.892442
605.822813	8072.775220
606.172701	8010.572422
606.522534	8093.320442
606.872314	8097.660876
607.222041	8064.003612
607.571714	8116.429092
607.921333	8079.207732
608.270899	8083.727127
608.620411	8172.761465
608.969870	8078.617917
609.319276	8067.214827
609.668627	8088.478414
610.017926	8118.528732
610.367171	8171.007144
610.716362	8143.467320
611.065500	8132.966597
611.414585	8162.069178
611.763616	8148.397569
612.112594	8132.961556
612.461518	8145.088051
612.810389	8210.227321
613.159207	8151.482755
613.507971	8098.719518
613.856682	8210.595325
614.205340	8169.144437
614.553945	8250.117971
614.902496	8150.492168
615.250994	8204.039304
615.599439	8182.969802
615.947830	8203.356228
616.296169	8175.161054
616.644454	8183.340327
616.992686	8181.507867
617.340864	8241.333760
617.688990	8141.337433
618.037063	8238.737566
618.385082	8185.795368
618.733048	8273.551775
619.080961	8206.791774
619.428821	8228.065443
619.776628	8227.929332
620.124382	8181.860748
620.472083	8165.444230
620.819731	8195.797018
621.167326	8087.971778
621.514868	8091.646779
621.862357	7981.333730
622.209793	7995.610278
622.557176	7924.313239
622.904506	7905.688696
623.251783	7837.381062
623.599007	7794.100235
623.946179	7790.878938
624.293297	7750.650530
624.640363	7668.673807
624.987376	7649.106568
625.334336	7600.194773
625.681243	7548.964047
626.028097	7530.964607
626.374899	7515.014397
626.721647	7507.170361
627.068343	7432.435255
627.414987	7409.729898
627.761577	7362.849688
628.108115	7400.207159
628.454600	7293.687578
628.801032	7343.829415
629.147412	7308.639640
629.493739	7295.691437
629.840014	7230.322795
630.186236	7288.689274
630.532405	7171.356418
630.878521	7219.590178
631.224585	7181.642893
631.570597	7106.501974
631.916556	7131.934595
632.262462	7137.868033
632.608316	7092.076712
632.954117	7073.311017
633.299866	7055.757719
633.645562	7055.183028
633.991206	6972.334185
634.336797	6912.115082
634.682336	6872.267281
635.027823	6840.422312
635.373257	6833.866292
635.718639	6759.441217
636.063968	6776.208095
636.409245	6671.523494
636.754470	6665.458986
637.099642	6627.753676
637.444762	6570.781075
637.789829	6583.905719
638.134845	6520.561101
638.479808	6506.556775
638.824719	6513.571541
639.169577	6438.405417
639.514383	6458.842254
639.859137	6384.805348
640.203839	6392.896400
640.548489	6378.506427
