Dividing Wavelength (nm)	Counts (n)	Blue Motor Position (mm): 6.700000	Red Motor Position (mm): 0.000000	
326.493990	2142.268574
326.888308	2142.268574
327.282561	2142.268574
327.676750	2108.182812
328.070874	2108.893615
328.464933	2110.688266
328.858929	2116.162959
329.252859	2128.163425
329.646726	2139.349746
330.040528	2152.635707
330.434265	2169.788233
330.827938	2184.977229
331.221547	2201.842409
331.615091	2223.683208
332.008571	2240.545868
332.401986	2261.201996
332.795338	2279.319903
333.188625	2300.381844
333.581847	2320.191058
333.975006	2334.518017
334.368100	2358.866790
334.761129	2374.610313
335.154095	2388.617159
335.546996	2407.831517
335.939833	2419.383321
336.332606	2436.593821
336.725315	2449.166458
337.117960	2459.261369
337.510540	2471.007257
337.903056	2480.976139
338.295508	2485.397231
338.687896	2494.010042
339.080220	2501.803666
339.472480	2508.629388
339.864676	2512.732888
340.256807	2519.609022
340.648875	2520.793693
341.040879	2522.573220
341.432818	2528.529343
341.824694	2527.465660
342.216506	2528.796524
342.608253	2527.339631
342.999937	2526.966586
343.391557	2527.543798
343.783113	2525.534898
344.174605	2526.550690
344.566033	2524.738396
344.957397	2521.993487
345.348697	2519.954341
345.739934	2518.714217
346.131106	2518.794875
346.522215	2514.285563
346.913260	2514.157014
347.304241	2511.180212
347.695159	2508.495798
348.086012	2508.798267
348.476802	2505.166116
348.867528	2505.266939
349.258191	2503.245436
349.648789	2502.242247
350.039324	2497.001967
350.429796	2501.513800
350.820203	2496.351658
351.210548	2500.523213
351.600828	2496.081957
351.991045	2498.458861
352.381198	2493.173211
352.771288	2492.595999
353.161314	2493.185814
353.551276	2494.254538
353.941175	2494.299909
354.331010	2493.213540
354.720782	2494.582213
355.110490	2493.155567
355.500135	2493.682367
355.889717	2493.805876
356.279235	2496.886021
356.668689	2493.082470
357.058080	2493.263952
357.447408	2493.957110
357.836672	2488.749598
358.225873	2496.036586
358.615010	2493.861328
359.004084	2497.939622
359.393095	2497.228819
359.782043	2495.842502
360.170927	2498.292502
360.559748	2498.552122
360.948505	2499.615805
361.337199	2499.058758
361.725830	2499.731752
362.114398	2498.912564
362.502903	2497.685043
362.891344	2502.411125
363.279722	2501.607061
363.668037	2503.588235
364.056289	2503.905827
364.444478	2501.259222
364.832603	2503.633605
365.220665	2505.786178
365.608665	2505.017402
365.996601	2502.338028
366.384474	2505.723163
366.772284	2506.315499
367.160031	2504.601507
367.547715	2507.611075
367.935336	2505.425735
368.322893	2505.786178
368.710388	2508.901611
369.097820	2510.991169
369.485189	2509.428411
369.872495	2506.285252
370.259738	2509.814060
370.646918	2508.914214
371.034035	2507.366579
371.421090	2509.060407
371.808081	2508.163082
372.195010	2508.705006
372.581875	2509.403206
372.968678	2509.350273
373.355418	2507.943792
373.742096	2511.155007
374.128710	2510.290449
374.515262	2512.148114
374.901751	2510.582836
375.288177	2508.571415
375.674540	2509.516632
376.060841	2510.199708
376.447079	2511.323885
376.833254	2514.683814
377.219367	2510.933196
377.605417	2510.696262
377.991404	2504.357011
378.377329	2508.639471
378.763191	2508.405057
379.148991	2510.983607
379.534727	2511.500326
379.920402	2514.257837
380.306013	2512.808505
380.691563	2516.057529
381.077049	2513.156345
381.462474	2515.412261
381.847835	2516.503671
382.233134	2514.751870
382.618371	2514.686335
383.003545	2517.849659
383.388657	2515.644154
383.773706	2515.893691
384.158693	2513.998217
384.543618	2513.514267
384.928480	2514.759432
385.313280	2517.153980
385.698017	2516.838908
386.082692	2519.001562
386.467305	2516.848990
386.851856	2514.416633
387.236344	2518.996521
387.620770	2519.263702
388.005133	2519.359484
388.389435	2519.437622
388.773674	2517.466531
389.157851	2519.558610
389.541965	2517.096006
389.926018	2521.421316
390.310008	2520.130781
390.693936	2518.966274
391.077802	2518.333610
391.461606	2519.024248
391.845348	2518.878054
392.229027	2518.981398
392.612645	2521.549866
392.996200	2519.944258
393.379694	2520.082890
393.763125	2523.747809
394.146494	2520.670184
394.529801	2522.474918
394.913047	2519.057015
395.296230	2522.968951
395.679351	2521.958199
396.062410	2522.563138
396.445408	2522.283354
396.828343	2523.901564
397.211217	2521.088600
397.594028	2519.727489
397.976778	2517.932838
398.359466	2520.705473
398.742092	2520.665143
399.124656	2525.396266
399.507158	2523.578930
399.889598	2526.689322
400.271977	2523.992305
400.654294	2525.681091
401.036549	2523.853673
401.418742	2526.018849
401.800874	2521.804444
402.182944	2524.246883
402.564952	2522.779907
402.946898	2526.507841
403.328783	2523.397449
403.710606	2528.184024
404.092367	2525.217305
404.474067	2522.580782
404.855705	2524.544311
405.237282	2526.245701
405.618797	2526.084384
406.000250	2529.398942
406.381642	2525.759229
406.762972	2526.389373
407.144240	2526.424662
407.525447	2529.522451
407.906593	2528.678057
408.287677	2525.940711
408.668700	2528.826771
409.049661	2530.573531
409.430560	2529.809796
409.811399	2525.849970
410.192176	2526.364168
410.572891	2530.588655
410.953545	2524.662778
411.334138	2529.378778
411.714669	2524.531708
412.095139	2526.686802
412.475547	2526.167563
412.855894	2529.635877
413.236180	2529.494724
413.616405	2530.336597
413.996568	2529.842564
414.376670	2529.424148
414.756711	2529.673685
415.136691	2531.463295
415.516609	2531.425486
415.896466	2530.329035
416.276262	2530.548325
416.655997	2528.012625
417.035670	2527.826102
417.415283	2528.824251
417.794834	2527.637059
418.174324	2529.749303
418.553753	2529.030938
418.933121	2531.523789
419.312428	2530.591175
419.691674	2530.795342
420.070859	2532.920188
420.449983	2532.733666
420.829045	2530.790301
421.208047	2533.953625
421.586988	2530.845753
421.965867	2534.692154
422.344686	2533.532688
422.723444	2532.751310
423.102141	2531.947246
423.480777	2532.501772
423.859352	2532.519417
424.237866	2535.080323
424.616319	2531.796011
424.994712	2531.042358
425.373044	2534.079654
425.751314	2531.536392
426.129524	2533.772143
426.507673	2534.009077
426.885762	2534.666948
427.263789	2535.034952
427.641756	2531.647297
428.019662	2534.949253
428.397508	2535.700385
428.775292	2533.467153
429.153016	2535.287010
429.530679	2535.972607
429.908282	2536.065868
430.285824	2532.554705
430.663305	2531.347348
431.040726	2534.278779
431.418086	2533.641073
431.795385	2535.647452
432.172624	2534.072092
432.549802	2534.946732
432.926920	2537.263142
433.303977	2535.866743
433.680974	2533.494880
434.057910	2535.702905
434.434786	2536.580066
434.811601	2537.479912
435.188355	2536.471681
435.565050	2539.493853
435.941683	2536.328008
436.318257	2533.194931
436.694770	2531.848943
437.071222	2534.006557
437.447614	2534.011598
437.823946	2536.270035
438.200218	2536.736342
438.576429	2538.467978
438.952580	2538.651980
439.328670	2537.905889
439.704700	2536.171732
440.080670	2536.683410
440.456580	2538.402443
440.832429	2539.229192
441.208218	2538.152906
441.583947	2537.812628
441.959616	2537.520241
442.335224	2539.715664
442.710773	2538.722556
443.086261	2539.725746
443.461689	2536.640560
443.837057	2538.755324
444.212365	2540.033256
444.587612	2539.788760
444.962800	2535.274407
445.337927	2537.910931
445.712995	2536.128883
446.088002	2540.796991
446.462949	2542.437887
446.837837	2540.479398
447.212664	2538.626774
447.587431	2538.735159
447.962139	2539.372865
448.336786	2543.128525
448.711374	2539.524100
449.085901	2540.824718
449.460369	2539.146013
449.834776	2539.234233
450.209124	2538.417567
450.583412	2538.694830
450.957640	2538.732639
451.331808	2538.541075
451.705917	2542.057280
452.079965	2541.989224
452.453954	2539.798843
452.827883	2539.851775
453.201752	2538.722556
453.575562	2540.973432
453.949311	2540.262629
454.323001	2538.707433
454.696632	2543.136087
455.070202	2538.639377
455.443713	2540.406302
455.817164	2538.304141
456.190556	2541.177598
456.563888	2540.156765
456.937160	2534.220806
457.310373	2540.116435
457.683526	2541.901004
458.056619	2541.041487
458.429653	2543.395706
458.802628	2541.575849
459.175542	2542.407640
459.548398	2540.275232
459.921194	2542.833617
460.293930	2541.699358
460.666607	2541.893442
461.039224	2540.870088
461.411782	2539.718184
461.784280	2544.003165
462.156719	2544.025850
462.529099	2544.471992
462.901419	2542.853782
463.273680	2542.843700
463.645882	2543.357897
464.018024	2542.579039
464.390106	2544.066179
464.762130	2543.486447
465.134094	2542.516025
465.505999	2542.926879
465.877845	2542.934440
466.249631	2542.495860
466.621358	2539.821528
466.993026	2546.047353
467.364634	2546.306972
467.736184	2543.962836
468.107674	2545.150028
468.479105	2546.112888
468.850477	2542.395037
469.221790	2545.659184
469.593043	2542.455531
469.964238	2545.029040
470.335373	2545.046684
470.706449	2542.878988
471.077467	2545.817980
471.448425	2545.729760
471.819324	2545.248330
472.190164	2546.228834
472.560945	2544.605583
472.931667	2543.183978
473.302330	2542.962167
473.672934	2544.456869
474.043479	2544.323278
474.413965	2544.265305
474.784393	2539.183822
475.154761	2540.623071
475.525070	2542.102650
475.895321	2541.974101
476.265513	2538.362114
476.635645	2544.509801
477.005719	2545.349153
477.375734	2542.032074
477.745691	2549.147662
478.115588	2544.368649
478.485427	2546.763197
478.855207	2547.713454
479.224928	2545.250851
479.594591	2545.124822
479.964194	2544.466951
480.333739	2545.588608
480.703226	2545.081972
481.072653	2545.447456
481.442022	2543.882177
481.811333	2546.042312
482.180584	2545.122301
482.549777	2545.749925
482.918912	2544.905532
483.287988	2546.695141
483.657005	2548.162117
484.025964	2544.782023
484.394864	2544.550130
484.763706	2547.116078
485.132489	2546.369987
485.501213	2546.221273
485.869879	2546.075079
486.238487	2546.869061
486.607036	2545.744884
486.975527	2548.119267
487.343959	2545.576005
487.712333	2546.569112
488.080648	2543.816642
488.448905	2544.804708
488.817104	2545.452497
489.185244	2546.435522
489.553326	2546.364946
489.921350	2547.645399
490.289315	2543.425953
490.657222	2549.314021
491.025070	2549.203115
491.392861	2546.286808
491.760593	2545.281097
492.128267	2548.073897
492.495883	2550.070194
492.863440	2547.826880
493.230939	2548.469627
493.598380	2548.643547
493.965763	2543.289842
494.333088	2544.915614
494.700354	2544.076262
495.067563	2546.122970
495.434713	2542.473175
495.801805	2544.484595
496.168839	2547.131201
496.535815	2548.560368
496.902733	2546.279246
497.269593	2549.142621
497.636395	2546.319575
498.003139	2549.286294
498.369825	2547.027857
498.736453	2548.177240
499.103023	2547.985677
499.469535	2548.038609
499.835989	2545.051725
500.202385	2548.429298
500.568723	2546.138094
500.935003	2546.125491
501.301226	2549.495502
501.667390	2545.318906
502.033497	2548.298228
502.399546	2546.957281
502.765537	2547.093392
503.131470	2546.599359
503.497345	2550.201264
503.863163	2550.980122
504.228923	2547.632796
504.594625	2550.347457
504.960269	2545.964174
505.325856	2550.218908
505.691385	2548.724206
506.056856	2551.673281
506.422270	2549.132539
506.787625	2549.500543
507.152924	2546.135573
507.518164	2547.978115
507.883347	2549.382076
508.248472	2546.997610
508.613540	2549.956768
508.978550	2548.005841
509.343503	2549.414844
509.708398	2549.364432
510.073236	2549.750080
510.438016	2548.935934
510.802738	2546.639688
511.167403	2548.061294
511.532010	2548.905687
511.896561	2548.394010
512.261053	2550.904505
512.625488	2546.317055
512.989866	2544.250182
513.354186	2546.952240
513.718449	2546.075079
514.082655	2548.462066
514.446803	2549.132539
514.810894	2548.419216
515.174927	2549.777807
515.538904	2549.679504
515.902822	2549.465255
516.266684	2544.124153
516.630488	2550.009700
516.994235	2547.713454
517.357925	2550.150852
517.721558	2550.307128
518.085133	2549.124977
518.448651	2548.923331
518.812112	2549.409803
519.175516	2548.550286
519.538863	2549.624052
519.902152	2549.775286
520.265385	2547.773948
520.628560	2550.775955
520.991678	2549.029195
521.354739	2548.782179
521.717743	2550.239072
522.080690	2550.019782
522.443580	2547.594987
522.806413	2549.936603
523.169189	2548.192364
523.531908	2549.445091
523.894569	2549.480379
524.257174	2550.927190
524.619722	2548.220090
524.982213	2550.186140
525.344647	2549.026675
525.707025	2550.269319
526.069345	2547.708413
526.431608	2548.628424
526.793815	2551.978270
527.155964	2552.724361
527.518057	2550.884340
527.880093	2548.966181
528.242072	2549.573640
528.603995	2550.407951
528.965860	2550.642365
529.327669	2551.726213
529.689421	2547.489123
530.051117	2546.959802
530.412755	2548.572971
530.774337	2549.437529
531.135862	2552.878116
531.497331	2549.079607
531.858743	2547.776469
532.220098	2547.620193
532.581396	2543.892260
532.942638	2548.646068
533.303824	2546.559030
533.664953	2552.474824
534.026025	2552.379042
534.387040	2551.479196
534.747999	2550.602035
535.108902	2551.514484
535.469748	2551.869886
535.830537	2550.347457
536.191270	2550.344937
536.551947	2552.066491
536.912567	2550.150852
537.273131	2551.201933
537.633638	2550.571788
537.994089	2548.870399
538.354483	2551.083466
538.714821	2550.196223
539.075103	2548.792261
539.435328	2549.399720
539.795497	2551.617828
540.155609	2552.305945
540.515665	2551.181768
540.875665	2550.044988
541.235609	2550.972560
541.595496	2549.540873
541.955328	2552.469783
542.315102	2550.244113
542.674821	2551.572458
543.034483	2549.772766
543.394090	2549.137580
543.753640	2549.535831
544.113134	2553.364588
544.472571	2553.984650
544.831953	2552.830225
545.191278	2550.692776
545.550548	2552.222766
545.909761	2550.244113
546.268918	2553.704866
546.628019	2550.307128
546.987064	2552.308466
547.346053	2553.818292
547.704986	2552.124464
548.063863	2554.312325
548.422684	2550.770914
548.781449	2552.522715
549.140158	2551.597663
549.498811	2553.825853
549.857408	2551.852242
550.215949	2550.377704
550.574434	2546.957281
550.932864	2550.113043
551.291237	2547.655481
551.649555	2553.566234
552.007817	2550.523897
552.366022	2549.379556
552.724173	2551.330482
553.082267	2553.026830
553.440305	2552.968857
553.798288	2553.924156
554.156215	2552.434495
554.514086	2551.963147
554.871902	2552.550441
555.229661	2550.216387
555.587365	2552.787376
555.945014	2551.698486
556.302606	2552.716799
556.660143	2551.605225
557.017625	2551.819474
557.375050	2552.094217
557.732421	2550.299566
558.089735	2550.279402
558.446994	2553.341902
558.804197	2551.378373
559.161345	2554.221584
559.518437	2552.144628
559.875474	2552.394166
560.232455	2555.769218
560.589381	2550.665050
560.946251	2553.165462
561.303065	2550.753270
561.659825	2552.656306
562.016528	2550.221428
562.373177	2551.224618
562.729770	2552.661347
563.086307	2552.830225
563.442789	2550.770914
563.799216	2554.619835
564.155587	2551.821995
564.511904	2551.779145
564.868164	2551.716130
565.224370	2552.706717
565.580520	2552.890719
565.936615	2555.151677
566.292654	2551.668239
566.648638	2552.215205
567.004567	2552.593291
567.360441	2549.384597
567.716260	2551.547252
568.072023	2550.234031
568.427732	2551.789227
568.783385	2549.992056
569.138982	2547.607590
569.494525	2551.196892
569.850013	2549.684545
570.205445	2555.686039
570.560823	2550.748229
570.916145	2555.020607
571.271412	2552.764690
571.626625	2553.825853
571.981782	2553.001625
572.336884	2552.290822
572.691931	2556.646379
573.046923	2552.923487
573.401860	2553.230997
573.756743	2553.573796
574.111570	2552.900802
574.466342	2553.021789
574.821059	2552.500030
575.175722	2551.927859
575.530330	2554.677808
575.884882	2552.870555
576.239380	2552.069011
576.593823	2555.877603
576.948211	2552.663867
577.302544	2554.803837
577.656823	2549.911397
578.011047	2553.160421
578.365216	2551.827036
578.719330	2553.457849
579.073389	2553.583878
579.427394	2548.391489
579.781344	2555.892726
580.135239	2552.159752
580.489080	2551.698486
580.842866	2551.950544
581.196597	2555.126471
581.550273	2554.960113
581.903895	2552.726882
582.257463	2553.039433
582.610975	2550.213867
582.964434	2552.235369
583.317837	2551.431305
583.671186	2553.195709
584.024481	2551.580019
584.377721	2553.777962
584.730906	2553.082283
585.084037	2553.437684
585.437113	2550.670091
585.790135	2553.977088
586.143103	2551.683363
586.496016	2552.681511
586.848874	2545.908721
587.201679	2551.441388
587.554428	2549.664381
587.907124	2551.224618
588.259765	2550.002138
588.612352	2553.772921
588.964884	2550.206305
589.317362	2552.734443
589.669786	2551.887530
590.022155	2551.953065
590.374470	2553.472973
590.726731	2551.103630
591.078937	2553.934238
591.431090	2548.683876
591.783188	2551.690925
592.135232	2550.448280
592.487222	2552.197561
592.839157	2551.663198
593.191038	2551.643034
593.542866	2552.994063
593.894639	2551.993394
594.246358	2551.206974
594.598022	2550.649926
594.949633	2552.023641
595.301190	2552.817623
595.652692	2553.840977
596.004141	2551.960626
596.355535	2554.524053
596.706876	2551.075904
597.058162	2552.406768
597.409395	2553.646892
597.760573	2552.177396
598.111698	2551.703527
598.462768	2554.375339
598.813785	2556.379198
599.164748	2552.406768
599.515657	2553.170503
599.866511	2550.276881
600.217312	2552.910884
600.568060	2551.481717
600.918753	2554.655123
601.269392	2550.788558
601.619978	2553.674619
601.970510	2553.810730
602.320988	2552.174875
602.671412	2549.750080
603.021783	2550.861655
603.372100	2551.806871
603.722363	2552.817622
604.072572	2553.246121
604.422728	2552.595812
604.772830	2548.688918
605.122878	2548.540203
605.472872	2550.735626
605.822813	2549.782848
606.172701	2549.893753
606.522534	2551.486758
606.872314	2555.872562
607.222041	2551.701007
607.571714	2551.285112
607.921333	2551.343085
608.270899	2550.924669
608.620411	2552.978939
608.969870	2554.740823
609.319276	2553.581357
609.668627	2556.270813
610.017926	2558.546894
610.367171	2560.888510
610.716362	2557.226112
611.065500	2557.442881
611.414585	2555.665874
611.763616	2555.411296
612.112594	2556.553117
612.461518	2555.421378
612.810389	2553.069680
613.159207	2554.035061
613.507971	2555.945658
613.856682	2555.933056
614.205340	2554.246790
614.553945	2555.214691
614.902496	2552.636141
615.250994	2553.999773
615.599439	2554.198899
615.947830	2553.268806
616.296169	2553.651933
616.644454	2555.955741
616.992686	2553.747715
617.340864	2548.635985
617.688990	2553.611604
618.037063	2550.831408
618.385082	2550.997766
618.733048	2552.890719
619.080961	2555.098745
619.428821	2552.482386
619.776628	2551.693445
620.124382	2553.740154
620.472083	2552.227807
620.819731	2552.963816
621.167326	2550.425595
621.514868	2554.740823
621.862357	2550.702858
622.209793	2552.552962
622.557176	2551.988353
622.904506	2548.126829
623.251783	2547.105995
623.599007	2549.908877
623.946179	2550.435677
624.293297	2549.576161
624.640363	2552.895760
624.987376	2552.189999
625.334336	2552.578168
625.681243	2551.769063
626.028097	2551.839639
626.374899	2553.359547
626.721647	2553.452808
627.068343	2553.145298
627.414987	2550.952396
627.761577	2553.115051
628.108115	2551.345606
628.454600	2555.194527
628.801032	2554.556821
629.147412	2551.330482
629.493739	2552.288301
629.840014	2554.503888
630.186236	2552.305945
630.532405	2550.778476
630.878521	2552.908363
631.224585	2552.177396
631.570597	2551.786707
631.916556	2551.610266
632.262462	2554.314845
632.608316	2551.620348
632.954117	2553.911553
633.299866	2553.115051
633.645562	2550.332334
633.991206	2551.247303
634.336797	2547.804195
634.682336	2551.821995
635.027823	2550.549103
635.373257	2552.583209
635.718639	2549.830739
636.063968	2551.637993
636.409245	2551.287632
636.754470	2551.761501
637.099642	2548.583053
637.444762	2554.516491
637.789829	2551.194371
638.134845	2551.022972
638.479808	2550.886861
638.824719	2549.682025
639.169577	2551.282591
639.514383	2552.656306
639.859137	2551.554813
640.203839	2553.914073
640.548489	2554.279557
640.893086	2550.259237
641.237632	2547.156407
641.582125	2547.433670
641.926566	2549.324103
642.270955	2550.680173
642.615292	2552.636141
642.959576	2552.391645
643.303809	2553.359547
643.647990	2552.598332
643.992118	2552.558003
644.336195	2550.082797
