Dividing Wavelength (nm)	Counts (n)	Blue Motor Position (mm): 5.500000	Red Motor Position (mm): 0.000000	
326.493990	2159.534526
326.888308	2159.534526
327.282561	2159.534526
327.676750	2134.278345
328.070874	2135.528551
328.464933	2140.428553
328.858929	2149.898360
329.252859	2163.068375
329.646726	2173.125477
330.040528	2190.766994
330.434265	2207.838862
330.827938	2226.826368
331.221547	2244.346898
331.615091	2267.211051
332.008571	2286.334668
332.401986	2307.580611
332.795338	2326.535350
333.188625	2346.011848
333.581847	2366.201669
333.975006	2388.687736
334.368100	2405.293296
334.761129	2423.822057
335.154095	2438.627926
335.546996	2457.423868
335.939833	2469.857874
336.332606	2486.297077
336.725315	2496.001298
337.117960	2501.884325
337.510540	2510.930675
337.903056	2519.387211
338.295508	2525.446678
338.687896	2533.386495
339.080220	2540.630633
339.472480	2547.489123
339.864676	2551.673281
340.256807	2553.926676
340.648875	2556.134702
341.040879	2559.023283
341.432818	2559.499672
341.824694	2558.209137
342.216506	2562.078222
342.608253	2560.598643
342.999937	2559.663509
343.391557	2559.691236
343.783113	2557.803324
344.174605	2555.446584
344.566033	2555.431461
344.957397	2553.021789
345.348697	2548.890564
345.739934	2549.699669
346.131106	2547.499205
346.522215	2548.096582
346.913260	2544.184647
347.304241	2541.505273
347.695159	2544.068700
348.086012	2540.935623
348.476802	2536.464119
348.867528	2534.286341
349.258191	2537.086702
349.648789	2535.977648
350.039324	2531.261649
350.429796	2534.140147
350.820203	2530.366844
351.210548	2529.182173
351.600828	2530.586134
351.991045	2528.983047
352.381198	2530.056813
352.771288	2528.368026
353.161314	2529.751823
353.551276	2529.351051
353.941175	2527.586647
354.331010	2529.545136
354.720782	2528.534384
355.110490	2530.460105
355.500135	2529.277955
355.889717	2528.753675
356.279235	2531.627132
356.668689	2531.266690
357.058080	2528.476411
357.447408	2526.265865
357.836672	2526.588499
358.225873	2529.038500
358.615010	2526.722090
359.004084	2532.189221
359.393095	2530.190403
359.782043	2536.131403
360.170927	2532.080836
360.559748	2535.768440
360.948505	2536.388502
361.337199	2536.083512
361.725830	2534.109901
362.114398	2538.039480
362.502903	2533.643594
362.891344	2535.337422
363.279722	2535.705426
363.668037	2537.837834
364.056289	2538.704912
364.444478	2538.546116
364.832603	2538.208359
365.220665	2537.492515
365.608665	2539.219110
365.996601	2537.936136
366.384474	2542.400078
366.772284	2540.038297
367.160031	2539.791281
367.547715	2540.267670
367.935336	2539.831610
368.322893	2540.970911
368.710388	2542.508463
369.097820	2547.600028
369.485189	2541.951415
369.872495	2543.246992
370.259738	2542.934440
370.646918	2542.483257
371.034035	2542.884029
371.421090	2543.657846
371.808081	2544.653474
372.195010	2542.939482
372.581875	2543.549461
372.968678	2544.998793
373.355418	2543.289842
373.742096	2546.117929
374.128710	2546.299411
374.515262	2545.384441
374.901751	2546.677497
375.288177	2546.102806
375.674540	2549.104813
376.060841	2545.767569
376.447079	2545.550799
376.833254	2546.574153
377.219367	2540.739018
377.605417	2542.400078
377.991404	2543.824204
378.377329	2544.489636
378.763191	2542.039636
379.148991	2547.952909
379.534727	2549.215718
379.920402	2546.601880
380.306013	2547.438711
380.691563	2548.903167
381.077049	2548.255378
381.462474	2549.979453
381.847835	2549.535831
382.233134	2548.714123
382.618371	2551.333003
383.003545	2549.364432
383.388657	2550.128167
383.773706	2553.233518
384.158693	2551.317879
384.543618	2549.036757
384.928480	2550.468445
385.313280	2548.449463
385.698017	2552.847869
386.082692	2552.547921
386.467305	2553.241079
386.851856	2551.297715
387.236344	2551.728733
387.620770	2554.907181
388.005133	2553.886347
388.389435	2553.651933
388.773674	2552.316028
389.157851	2552.043805
389.541965	2554.347613
389.926018	2553.435164
390.310008	2555.812068
390.693936	2553.157900
391.077802	2555.509599
391.461606	2553.813250
391.845348	2554.219063
392.229027	2555.128992
392.612645	2553.014227
392.996200	2555.307952
393.379694	2555.716286
393.763125	2557.054712
394.146494	2554.019938
394.529801	2557.077397
394.913047	2558.690567
395.296230	2557.001780
395.679351	2557.263920
396.062410	2558.554456
396.445408	2559.260217
396.828343	2557.778118
397.211217	2551.948023
397.594028	2555.368446
397.976778	2555.577654
398.359466	2558.264589
398.742092	2553.558672
399.124656	2557.851215
399.507158	2556.442212
399.889598	2556.911039
400.271977	2559.577810
400.654294	2559.532439
401.036549	2558.085628
401.418742	2558.667882
401.800874	2559.350958
402.182944	2559.446740
402.564952	2559.396328
402.946898	2560.417162
403.328783	2560.137378
403.710606	2560.928839
404.092367	2558.904816
404.474067	2561.022100
404.855705	2560.346586
405.237282	2561.410269
405.618797	2559.875238
406.000250	2562.438665
406.381642	2562.148798
406.762972	2560.270968
407.144240	2562.635270
407.525447	2560.568397
407.906593	2564.276165
408.287677	2562.630228
408.668700	2559.688715
409.049661	2562.413459
409.430560	2560.573438
409.811399	2564.119889
410.192176	2563.562842
410.572891	2563.487225
410.953545	2561.997564
411.334138	2565.274314
411.714669	2564.233315
412.095139	2561.672409
412.475547	2566.027966
412.855894	2562.642831
413.236180	2564.694581
413.616405	2566.002760
413.996568	2565.934705
414.376670	2564.777760
414.756711	2564.508058
415.136691	2564.795404
415.516609	2561.939590
415.896466	2568.051989
416.276262	2565.037379
416.655997	2563.623336
417.035670	2562.829354
417.415283	2564.296330
417.794834	2558.924980
418.174324	2565.196176
418.553753	2565.750703
418.933121	2568.961918
419.312428	2565.090312
419.691674	2569.760941
420.070859	2569.017370
420.449983	2566.585014
420.829045	2563.893037
421.208047	2564.876063
421.586988	2566.993347
421.965867	2566.648028
422.344686	2567.429407
422.723444	2567.114335
423.102141	2565.869170
423.480777	2568.921588
423.859352	2569.224058
424.237866	2566.441341
424.616319	2569.823955
424.994712	2567.232802
425.373044	2569.294634
425.751314	2569.062741
426.129524	2568.049469
426.507673	2568.435117
426.885762	2568.223389
427.263789	2572.455437
427.641756	2573.786302
428.019662	2571.117011
428.397508	2570.262535
428.775292	2569.932340
429.153016	2569.541650
429.530679	2570.859912
429.908282	2571.411918
430.285824	2570.577607
430.663305	2570.214644
431.040726	2572.737742
431.418086	2569.518965
431.795385	2570.806980
432.172624	2570.179356
432.549802	2569.791187
432.926920	2570.328070
433.303977	2569.617268
433.680974	2571.522824
434.057910	2571.361507
434.434786	2572.974676
434.811601	2572.604151
435.188355	2570.325550
435.565050	2571.154820
435.941683	2572.936868
436.318257	2566.557287
436.694770	2565.458316
437.071222	2569.584500
437.447614	2566.963100
437.823946	2567.880590
438.200218	2570.431414
438.576429	2571.374110
438.952580	2573.887125
439.328670	2573.105746
439.704700	2572.047104
440.080670	2571.495098
440.456580	2571.353945
440.832429	2572.959553
441.208218	2572.556260
441.583947	2576.763103
441.959616	2572.049624
442.335224	2573.090623
442.710773	2572.873853
443.086261	2573.899728
443.461689	2573.224213
443.837057	2573.297310
444.212365	2575.515418
444.587612	2573.662794
444.962800	2571.018708
445.337927	2577.299986
445.712995	2575.039029
446.088002	2574.605489
446.462949	2573.851837
446.837837	2576.201015
447.212664	2575.961560
447.587431	2575.790161
447.962139	2575.810325
448.336786	2577.811663
448.711374	2573.551888
449.085901	2572.334450
449.460369	2576.677404
449.834776	2577.027764
450.209124	2579.470203
450.583412	2577.496591
450.957640	2574.746642
451.331808	2576.826118
451.705917	2575.361662
452.079965	2575.389389
452.453954	2575.165058
452.827883	2575.228072
453.201752	2575.666652
453.575562	2573.614903
453.949311	2577.370562
454.323001	2575.386868
454.696632	2577.647826
455.070202	2576.964749
455.443713	2577.138669
455.817164	2573.219172
456.190556	2572.009295
456.563888	2573.413257
456.937160	2572.974676
457.310373	2575.281004
457.683526	2575.903587
458.056619	2576.647157
458.429653	2580.196129
458.802628	2578.386355
459.175542	2576.526169
459.548398	2576.092630
459.921194	2579.066911
460.293930	2576.742939
460.666607	2576.087589
461.039224	2578.643454
461.411782	2577.521797
461.784280	2579.097157
462.156719	2578.277970
462.529099	2574.010633
462.901419	2577.244533
463.273680	2576.349729
463.645882	2577.080696
464.018024	2578.678742
464.390106	2579.981880
464.762130	2581.413568
465.134094	2578.285532
465.505999	2577.708320
465.877845	2578.610686
466.249631	2580.281829
466.621358	2578.923238
466.993026	2584.486151
467.364634	2585.396079
467.736184	2578.857703
468.107674	2579.664287
468.479105	2578.903073
468.850477	2579.548341
469.221790	2580.339802
469.593043	2579.994483
469.964238	2577.925089
470.335373	2578.814853
470.706449	2575.598597
471.077467	2579.661767
471.448425	2579.268557
471.819324	2577.662949
472.190164	2578.693865
472.560945	2579.127404
472.931667	2581.854669
473.302330	2578.756880
473.672934	2580.410378
474.043479	2580.178485
474.413965	2580.682600
474.784393	2577.194122
475.154761	2577.504153
475.525070	2578.003227
475.895321	2576.332085
476.265513	2575.679255
476.635645	2580.516242
477.005719	2578.681262
477.375734	2580.934658
477.745691	2579.999524
478.115588	2582.502457
478.485427	2580.039853
478.855207	2581.973136
479.224928	2582.585636
479.594591	2580.854000
479.964194	2579.666808
480.333739	2578.746797
480.703226	2581.393403
481.072653	2580.276787
481.442022	2580.836356
481.811333	2580.705286
482.180584	2580.690162
482.549777	2587.089907
482.918912	2582.205029
483.287988	2581.723599
483.657005	2581.819381
484.025964	2580.944740
484.394864	2581.942889
484.763706	2582.978846
485.132489	2580.420460
485.501213	2583.472879
485.869879	2581.879874
486.238487	2579.447518
486.607036	2583.790472
486.975527	2581.370718
487.343959	2582.162179
487.712333	2581.143866
488.080648	2580.745615
488.448905	2580.589339
488.817104	2583.878692
489.185244	2582.628486
489.553326	2583.049422
489.921350	2582.731829
490.289315	2583.626634
490.657222	2581.118660
491.025070	2581.829463
491.392861	2582.885585
491.760593	2585.781727
492.128267	2582.129412
492.495883	2583.694690
492.863440	2583.641758
493.230939	2579.845769
493.598380	2582.232755
493.965763	2579.235789
494.333088	2581.111098
494.700354	2579.044225
495.067563	2581.453897
495.434713	2577.257136
495.801805	2582.774679
496.168839	2583.581264
496.535815	2583.737540
496.902733	2583.024216
497.269593	2582.958681
497.636395	2583.661922
498.003139	2584.158476
498.369825	2579.664287
498.736453	2584.251737
499.103023	2583.132601
499.469535	2581.166551
499.835989	2585.496902
500.202385	2585.242324
500.568723	2583.225862
500.935003	2581.743763
501.301226	2583.334247
501.667390	2581.716037
502.033497	2582.376428
502.399546	2584.715523
502.765537	2583.467838
503.131470	2581.247210
503.497345	2583.729978
503.863163	2583.470358
504.228923	2586.137129
504.594625	2583.457756
504.960269	2585.857345
505.325856	2585.857345
505.691385	2583.127560
506.056856	2583.535893
506.422270	2581.496747
506.787625	2583.334247
507.152924	2584.445822
507.518164	2584.589495
507.883347	2583.828280
508.248472	2582.560430
508.613540	2581.148907
508.978550	2582.983887
509.343503	2584.143353
509.708398	2587.233580
510.073236	2585.282653
510.438016	2582.124370
510.802738	2582.817529
511.167403	2583.329206
511.532010	2582.414237
511.896561	2584.405493
512.261053	2584.503795
512.625488	2580.612024
512.989866	2581.854669
513.354186	2580.034812
513.718449	2582.631006
514.082655	2582.540266
514.446803	2583.581264
514.810894	2585.375915
515.174927	2584.763414
515.538904	2588.125864
515.902822	2584.120667
516.266684	2584.256778
516.630488	2584.108064
516.994235	2585.328024
517.357925	2583.596387
517.721558	2587.417582
518.085133	2584.866758
518.448651	2582.474731
518.812112	2583.848445
519.175516	2586.250555
519.538863	2583.387179
519.902152	2585.607808
520.265385	2584.947417
520.628560	2586.008579
520.991678	2585.552355
521.354739	2584.516398
521.717743	2587.077304
522.080690	2587.548652
522.443580	2584.103023
522.806413	2585.610328
523.169189	2585.305338
523.531908	2584.052612
523.894569	2583.006572
524.257174	2585.549834
524.619722	2586.101841
524.982213	2586.558065
525.344647	2584.629824
525.707025	2586.764752
526.069345	2584.808785
526.431608	2585.232242
526.793815	2584.770976
527.155964	2584.531521
527.518057	2586.379104
527.880093	2583.561099
528.242072	2585.630493
528.603995	2588.052767
528.965860	2583.954309
529.327669	2584.143352
529.689421	2584.408013
530.051117	2585.612849
530.412755	2584.937334
530.774337	2584.866758
531.135862	2586.001018
531.497331	2582.129412
531.858743	2583.664443
532.220098	2584.460945
532.581396	2581.481623
532.942638	2581.794175
533.303824	2584.854155
533.664953	2586.285843
534.026025	2588.274578
534.387040	2585.040678
534.747999	2583.724937
535.108902	2584.982705
535.469748	2584.622262
535.830537	2587.765422
536.191270	2584.836511
536.551947	2584.589495
536.912567	2585.149063
537.273131	2586.560586
537.633638	2586.968919
537.994089	2587.422623
538.354483	2587.052098
538.714821	2586.999166
539.075103	2584.594536
539.435328	2586.429516
539.795497	2585.630493
540.155609	2587.712489
540.515665	2586.986563
540.875665	2585.678384
541.235609	2584.181161
541.595496	2587.160483
541.955328	2587.591502
542.315102	2586.298446
542.674821	2582.502457
543.034483	2584.549165
543.394090	2586.545462
543.753640	2587.026893
544.113134	2586.979002
544.472571	2586.200143
544.831953	2587.503282
545.191278	2588.970257
545.550548	2585.512026
545.909761	2584.826429
546.268918	2586.391707
546.628019	2588.728282
546.987064	2586.842890
547.346053	2585.927921
547.704986	2587.551172
548.063863	2584.541604
548.422684	2588.030082
548.781449	2588.287181
549.140158	2585.479258
549.498811	2584.546645
549.857408	2585.302818
550.215949	2585.194433
550.574434	2583.606470
550.932864	2583.639237
551.291237	2580.314596
551.649555	2584.914649
552.007817	2585.607808
552.366022	2586.038826
552.724173	2587.646954
553.082267	2586.318610
553.440305	2582.993969
553.798288	2586.686615
554.156215	2585.091089
554.514086	2585.017993
554.871902	2586.046388
555.229661	2586.071594
555.587365	2585.509505
555.945014	2586.603436
556.302606	2584.952458
556.660143	2589.388673
557.017625	2584.614700
557.375050	2587.901533
557.732421	2587.538570
558.089735	2585.539752
558.446994	2585.272571
558.804197	2587.094948
559.161345	2586.127047
559.518437	2586.487489
559.875474	2588.014959
560.232455	2587.082345
560.589381	2584.725606
560.946251	2588.768611
561.303065	2588.758529
561.659825	2585.413723
562.016528	2586.079156
562.373177	2586.764753
562.729770	2585.874989
563.086307	2586.961357
563.442789	2586.810123
563.799216	2585.348188
564.155587	2584.458425
564.511904	2587.510843
564.868164	2587.788107
565.224370	2585.809454
565.580520	2587.962027
565.936615	2589.733992
566.292654	2586.784917
566.648638	2589.655854
567.004567	2587.430185
567.360441	2586.051429
567.716260	2586.734506
568.072023	2587.198292
568.427732	2582.751994
568.783385	2583.982036
569.138982	2584.375246
569.494525	2582.817529
569.850013	2582.525142
570.205445	2587.964547
570.560823	2587.107551
570.916145	2589.812130
571.271412	2583.419947
571.626625	2586.905905
571.981782	2585.660740
572.336884	2589.605443
572.691931	2587.079825
573.046923	2584.967581
573.401860	2588.362798
573.756743	2587.931780
574.111570	2586.588312
574.466342	2586.621080
574.821059	2589.343303
575.175722	2588.025041
575.530330	2589.587799
575.884882	2587.851121
576.239380	2586.064032
576.593823	2586.893302
576.948211	2589.398755
577.302544	2587.911615
577.656823	2586.681573
578.011047	2587.563775
578.365216	2584.786100
578.719330	2589.965885
579.073389	2585.660740
579.427394	2583.863568
579.781344	2584.924731
580.135239	2589.716348
580.489080	2587.238621
580.842866	2585.670822
581.196597	2589.376070
581.550273	2589.776842
581.903895	2583.694690
582.257463	2585.897674
582.610975	2585.698548
582.964434	2586.626121
583.317837	2585.817016
583.671186	2586.263158
584.024481	2588.965216
584.377721	2587.410020
584.730906	2590.275916
585.084037	2588.529156
585.437113	2589.565113
585.790135	2586.394228
586.143103	2587.654516
586.496016	2589.018148
586.848874	2583.931624
587.201679	2585.088569
587.554428	2582.043712
587.907124	2584.753332
588.259765	2583.301480
588.612352	2587.548652
588.964884	2588.826584
589.317362	2588.927408
589.669786	2585.965730
590.022155	2589.776842
590.374470	2586.459763
590.726731	2587.183168
591.078937	2590.190217
591.431090	2587.664598
591.783188	2588.415730
592.135232	2587.362129
592.487222	2588.042685
592.839157	2587.651996
593.191038	2589.492017
593.542866	2587.488158
593.894639	2587.026892
594.246358	2586.482448
594.598022	2585.731316
594.949633	2589.217274
595.301190	2586.855493
595.652692	2588.032603
596.004141	2588.030082
596.355535	2588.153590
596.706876	2586.444639
597.058162	2585.552355
597.409395	2588.304825
597.760573	2587.828436
598.111698	2587.778024
598.462768	2587.934300
598.813785	2586.469845
599.164748	2588.128385
599.515657	2584.531521
599.866511	2590.225505
600.217312	2587.548652
600.568060	2588.599732
600.918753	2588.730803
601.269392	2588.667788
601.619978	2587.936821
601.970510	2590.870772
602.320988	2586.734506
602.671412	2586.487489
603.021783	2584.554207
603.372100	2587.546131
603.722363	2587.556214
604.072572	2586.633683
604.422728	2586.298446
604.772830	2585.403641
605.122878	2584.725606
605.472872	2582.232755
605.822813	2582.510019
606.172701	2584.647468
606.522534	2587.006728
606.872314	2589.678539
607.222041	2586.263158
607.571714	2589.398755
607.921333	2586.202664
608.270899	2590.185175
608.620411	2587.641913
608.969870	2589.534867
609.319276	2590.666606
609.668627	2590.661564
610.017926	2586.981522
610.367171	2588.937490
610.716362	2587.175607
611.065500	2589.726430
611.414585	2588.924887
611.763616	2589.013107
612.112594	2585.000349
612.461518	2589.161821
612.810389	2588.488827
613.159207	2587.591502
613.507971	2586.182499
613.856682	2589.355906
614.205340	2585.335585
614.553945	2587.750298
614.902496	2587.410020
615.250994	2587.636872
615.599439	2589.214753
615.947830	2589.444126
616.296169	2588.181317
616.644454	2587.896492
616.992686	2588.493868
617.340864	2589.297932
617.688990	2586.699218
618.037063	2588.319948
618.385082	2589.043354
618.733048	2589.592840
619.080961	2590.298601
619.428821	2586.099320
619.776628	2587.631831
620.124382	2589.832295
620.472083	2588.506471
620.819731	2586.691656
621.167326	2587.740216
621.514868	2590.079311
621.862357	2587.919177
622.209793	2590.094435
622.557176	2587.619228
622.904506	2584.894484
623.251783	2585.035637
623.599007	2584.748291
623.946179	2585.718713
624.293297	2586.744588
624.640363	2587.944382
624.987376	2588.130905
625.334336	2588.272057
625.681243	2590.243149
626.028097	2589.199630
626.374899	2586.621080
626.721647	2587.778024
627.068343	2588.929928
627.414987	2585.834660
627.761577	2588.806420
628.108115	2588.393045
628.454600	2587.657037
628.801032	2588.793817
629.147412	2588.445977
629.493739	2587.934300
629.840014	2588.229208
630.186236	2587.195771
630.532405	2588.098138
630.878521	2587.536049
631.224585	2590.182655
631.570597	2587.747777
631.916556	2588.052767
632.262462	2589.403797
632.608316	2589.093766
632.954117	2589.665937
633.299866	2589.171903
633.645562	2589.615525
633.991206	2594.079467
634.336797	2585.501943
634.682336	2592.632656
635.027823	2590.280957
635.373257	2589.600402
635.718639	2589.739033
636.063968	2589.935638
636.409245	2589.618046
636.754470	2587.989753
637.099642	2590.628797
637.444762	2590.800196
637.789829	2589.237438
638.134845	2586.855493
638.479808	2590.253231
638.824719	2590.001173
639.169577	2588.997984
639.514383	2588.826584
639.859137	2589.320617
640.203839	2589.797007
640.548489	2587.306677
640.893086	2587.780545
641.237632	2583.936665
641.582125	2588.075452
641.926566	2583.475400
642.270955	2589.492017
642.615292	2587.430185
642.959576	2589.071080
643.303809	2588.940010
643.647990	2589.784404
643.992118	2590.545618
644.336195	2591.077460
