Dividing Wavelength (nm)	Counts (n)	Blue Motor Position (mm): 29.500000	Red Motor Position (mm): 0.000000	
326.493990	2153.948927
326.888308	2153.948927
327.282561	2153.948927
327.676750	2131.266256
328.070874	2132.987810
328.464933	2137.900414
328.858929	2146.384676
329.252859	2155.972951
329.646726	2170.796463
330.040528	2186.139215
330.434265	2206.112267
330.827938	2225.109855
331.221547	2244.561147
331.615091	2263.793149
332.008571	2283.322579
332.401986	2302.874694
332.795338	2323.634166
333.188625	2343.387927
333.581847	2362.398118
333.975006	2383.790255
334.368100	2400.269787
334.761129	2420.865421
335.154095	2433.823707
335.546996	2460.488890
335.939833	2494.201606
336.332606	2503.056393
336.725315	2516.367560
337.117960	2522.472397
337.510540	2529.903058
337.903056	2541.071734
338.295508	2548.325954
338.687896	2553.500699
339.080220	2564.364385
339.472480	2569.072823
339.864676	2570.872515
340.256807	2576.382496
340.648875	2578.179667
341.040879	2577.700758
341.432818	2579.818042
341.824694	2577.516756
342.216506	2580.352405
342.608253	2580.627148
342.999937	2578.915676
343.391557	2579.467682
343.783113	2578.051118
344.174605	2577.478947
344.566033	2574.424008
344.957397	2570.481826
345.348697	2570.890159
345.739934	2569.460992
346.131106	2567.321022
346.522215	2568.374623
346.913260	2561.664848
347.304241	2561.616957
347.695159	2562.496638
348.086012	2561.039744
348.476802	2559.111503
348.867528	2556.696790
349.258191	2555.565051
349.648789	2554.869372
350.039324	2551.723692
350.429796	2553.447767
350.820203	2550.228990
351.210548	2548.451983
351.600828	2551.738816
351.991045	2548.583053
352.381198	2546.816129
352.771288	2546.937117
353.161314	2549.177909
353.551276	2549.238403
353.941175	2548.348640
354.331010	2546.622044
354.720782	2549.760163
355.110490	2549.084648
355.500135	2548.704041
355.889717	2548.865358
356.279235	2545.903680
356.668689	2553.208312
357.058080	2547.889895
357.447408	2548.078938
357.836672	2547.521890
358.225873	2544.827394
358.615010	2547.317724
359.004084	2551.529608
359.393095	2551.678322
359.782043	2556.817778
360.170927	2555.703683
360.559748	2555.731409
360.948505	2556.996739
361.337199	2556.926163
361.725830	2557.921791
362.114398	2557.697459
362.502903	2558.178890
362.891344	2557.110165
363.279722	2558.499003
363.668037	2555.633107
364.056289	2558.688046
364.444478	2560.651576
364.832603	2559.383725
365.220665	2561.206103
365.608665	2557.899106
365.996601	2560.258366
366.384474	2560.039075
366.772284	2561.448078
367.160031	2560.104610
367.547715	2563.572924
367.935336	2558.577141
368.322893	2561.125444
368.710388	2561.349775
369.097820	2565.337328
369.485189	2562.496638
369.872495	2562.536967
370.259738	2564.931515
370.646918	2563.537636
371.034035	2562.718449
371.421090	2565.856567
371.808081	2565.312122
372.195010	2566.370765
372.581875	2566.532082
372.968678	2566.254818
373.355418	2565.569221
373.742096	2566.529561
374.128710	2566.189283
374.515262	2565.995199
374.901751	2566.464026
375.288177	2567.948646
375.674540	2566.489232
376.060841	2568.906465
376.447079	2567.699109
376.833254	2568.667010
377.219367	2564.283727
377.605417	2565.977555
377.991404	2566.723645
378.377329	2564.417318
378.763191	2563.434292
379.148991	2568.097360
379.534727	2570.312947
379.920402	2569.811352
380.306013	2571.593400
380.691563	2570.471743
381.077049	2569.299675
381.462474	2571.905952
381.847835	2570.428893
382.233134	2572.649522
382.618371	2571.154820
383.003545	2572.684810
383.388657	2573.640108
383.773706	2573.665314
384.158693	2573.403174
384.543618	2574.832341
384.928480	2571.984089
385.313280	2572.652042
385.698017	2572.994841
386.082692	2574.726477
386.467305	2574.635736
386.851856	2576.168247
387.236344	2575.225551
387.620770	2579.757549
388.005133	2576.334605
388.389435	2574.759245
388.773674	2578.179668
389.157851	2577.932651
389.541965	2574.928123
389.926018	2576.775706
390.310008	2577.912486
390.693936	2577.302507
391.077802	2576.911817
391.461606	2578.058680
391.845348	2579.732343
392.229027	2579.351736
392.612645	2576.742939
392.996200	2577.146231
393.379694	2580.448187
393.763125	2580.057497
394.146494	2579.697055
394.529801	2579.891139
394.913047	2578.023392
395.296230	2580.201170
395.679351	2580.778382
396.062410	2579.165213
396.445408	2582.396593
396.828343	2579.631520
397.211217	2575.651529
397.594028	2578.605645
397.976778	2578.300655
398.359466	2578.618248
398.742092	2578.146900
399.124656	2585.728795
399.507158	2584.584453
399.889598	2584.569330
400.271977	2584.246696
400.654294	2584.362643
401.036549	2583.157807
401.418742	2582.467169
401.800874	2582.550348
402.182944	2584.707962
402.564952	2582.043712
402.946898	2584.239134
403.328783	2583.210739
403.710606	2584.604618
404.092367	2585.738878
404.474067	2582.792323
404.855705	2585.232242
405.237282	2585.469176
405.618797	2584.529001
406.000250	2586.303487
406.381642	2583.712334
406.762972	2585.287694
407.144240	2585.169227
407.525447	2589.839856
407.906593	2587.132757
408.287677	2584.453383
408.668700	2587.437747
409.049661	2589.025710
409.430560	2586.666450
409.811399	2588.768611
410.192176	2588.715679
410.572891	2590.782552
410.953545	2587.588981
411.334138	2590.341451
411.714669	2588.077973
412.095139	2588.748447
412.475547	2590.354054
412.855894	2590.916143
413.236180	2589.708786
413.616405	2591.765577
413.996568	2589.038313
414.376670	2591.639548
414.756711	2590.429671
415.136691	2592.294898
415.516609	2592.952769
415.896466	2591.810947
416.276262	2592.897316
416.655997	2589.665937
417.035670	2591.044692
417.415283	2591.206009
417.794834	2589.504620
418.174324	2591.868921
418.553753	2594.855804
418.933121	2595.334714
419.312428	2595.533840
419.691674	2593.192224
420.070859	2597.083994
420.449983	2593.865218
420.829045	2595.405290
421.208047	2593.376226
421.586988	2595.097780
421.965867	2599.163470
422.344686	2597.003336
422.723444	2597.807400
423.102141	2599.254211
423.480777	2596.658017
423.859352	2601.832761
424.237866	2599.985178
424.616319	2599.327308
424.994712	2600.564911
425.373044	2602.722525
425.751314	2601.358893
426.129524	2601.114397
426.507673	2604.015581
426.885762	2601.114397
427.263789	2604.121445
427.641756	2603.997937
428.019662	2607.945160
428.397508	2603.967690
428.775292	2606.674790
429.153016	2611.781478
429.530679	2609.540686
429.908282	2608.910541
430.285824	2612.898094
430.663305	2612.136880
431.040726	2614.889350
431.418086	2617.104937
431.795385	2618.130812
432.172624	2621.750360
432.549802	2625.997532
432.926920	2626.055506
433.303977	2634.035652
433.680974	2634.738893
434.057910	2637.667803
434.434786	2640.369862
434.811601	2646.557878
435.188355	2652.158600
435.565050	2655.858807
435.941683	2660.582368
436.318257	2665.237874
436.694770	2671.345232
437.071222	2682.191274
437.447614	2685.825946
437.823946	2692.281144
438.200218	2706.391333
438.576429	2710.404092
438.952580	2719.561348
439.328670	2732.335632
439.704700	2742.571694
440.080670	2750.433374
440.456580	2768.213523
440.832429	2781.204577
441.208218	2785.973508
441.583947	2799.675365
441.959616	2812.888229
442.335224	2830.988492
442.710773	2845.940554
443.086261	2866.543750
443.461689	2877.099926
443.837057	2891.119375
444.212365	2917.482089
444.587612	2937.603854
444.962800	2947.134156
445.337927	2973.517034
445.712995	2973.701037
446.088002	3024.173069
446.462949	3046.376831
446.837837	3071.456571
447.212664	3090.592791
447.587431	3165.010304
447.962139	3260.260386
448.336786	3370.102087
448.711374	3391.763925
449.085901	3324.885458
449.460369	3331.864935
449.834776	3344.346832
450.209124	3441.883077
450.583412	3477.687872
450.957640	3544.427707
451.331808	3527.675953
451.705917	3510.594003
452.079965	3537.831358
452.453954	3581.913727
452.827883	3601.349896
453.201752	3634.422386
453.575562	3675.472502
453.949311	3757.411416
454.323001	3797.637303
454.696632	3828.383301
455.070202	3932.284002
455.443713	3977.175477
455.817164	4057.181109
456.190556	4127.664002
456.563888	4150.823063
456.937160	4229.732244
457.310373	4186.932848
457.683526	4251.840224
458.056619	4288.675935
458.429653	4314.826921
458.802628	4377.412846
459.175542	4430.410496
459.548398	4551.423394
459.921194	4705.959965
460.293930	4777.055358
460.666607	4971.631293
461.039224	5146.191328
461.411782	5268.290594
461.784280	5259.445890
462.156719	5306.981450
462.529099	5323.072813
462.901419	5273.578765
463.273680	5224.571188
463.645882	5261.459831
464.018024	5302.431809
464.390106	5392.456734
464.762130	5618.416373
465.134094	5943.800169
465.505999	6449.561490
465.877845	7009.550503
466.249631	7329.346180
466.621358	7333.179977
466.993026	7238.323106
467.364634	7131.601879
467.736184	6953.258459
468.107674	6875.448249
468.479105	6852.011925
468.850477	6842.698393
469.221790	6739.989925
469.593043	6587.653817
469.964238	6539.052053
470.335373	6551.536471
470.706449	6722.605506
471.077467	6915.709424
471.448425	7517.708893
471.819324	8066.158705
472.190164	8130.960217
472.560945	7721.011066
472.931667	7327.864081
473.302330	7182.411669
473.672934	7103.550378
474.043479	7203.876902
474.413965	7133.782178
474.784393	7110.391224
475.154761	7271.380472
475.525070	7305.317520
475.895321	7278.796010
476.265513	7386.608646
476.635645	7551.771970
477.005719	7572.501194
477.375734	7668.842686
477.745691	7789.716952
478.115588	8006.413471
478.485427	8238.157833
478.855207	8711.088640
479.224928	9134.442220
479.594591	9516.665025
479.964194	9540.605465
480.333739	9639.417121
480.703226	9662.654320
481.072653	9776.125652
481.442022	9900.014528
481.811333	10052.126304
482.180584	9905.600127
482.549777	9864.562614
482.918912	9813.992279
483.287988	9806.851484
483.657005	9723.614473
484.025964	9651.964553
484.394864	9714.926044
484.763706	9684.694244
485.132489	9603.481256
485.501213	9596.673178
485.869879	9660.728599
486.238487	9601.094270
486.607036	9686.594759
486.975527	9637.602306
487.343959	9698.176810
487.712333	9748.502649
488.080648	9786.613772
488.448905	9892.485565
488.817104	9905.431248
489.185244	10071.280168
489.553326	10283.016192
489.921350	10753.444066
490.289315	11384.798173
490.657222	11674.044458
491.025070	11851.949297
491.392861	11763.565267
491.760593	11606.361926
492.128267	11359.635254
492.495883	11129.587239
492.863440	10888.894828
493.230939	10670.265027
493.598380	10486.837603
493.965763	10474.524585
494.333088	10341.037352
494.700354	10270.073029
495.067563	10249.474874
495.434713	10246.679555
495.801805	10295.147728
496.168839	10253.429660
496.535815	10229.138860
496.902733	10269.261403
497.269593	10232.869314
497.636395	10240.683102
498.003139	10350.401295
498.369825	10283.908476
498.736453	10370.079439
499.103023	10315.135903
499.469535	10319.463734
499.835989	10371.962310
500.202385	10348.576397
500.568723	10364.256906
500.935003	10428.902143
501.301226	10398.627493
501.667390	10561.476927
502.033497	10664.518112
502.399546	10585.203118
502.765537	10494.900929
503.131470	10601.599471
503.497345	10688.352687
503.863163	10472.901333
504.228923	10603.510068
504.594625	10716.189939
504.960269	10634.339244
505.325856	10781.598910
505.691385	10652.633592
506.056856	10724.094468
506.422270	10825.593059
506.787625	10761.446897
507.152924	10815.556122
507.518164	10873.985616
507.883347	10747.107335
508.248472	10817.310444
508.613540	10924.888667
508.978550	11003.084525
509.343503	10982.110804
509.708398	11034.763135
510.073236	11159.750983
510.438016	11185.818790
510.802738	11087.334808
511.167403	11217.978831
511.532010	11278.122317
511.896561	11373.911802
512.261053	11567.875237
512.625488	11486.465643
512.989866	11483.072947
513.354186	11453.990530
513.718449	11468.980401
514.082655	11609.694129
514.446803	11561.604042
514.810894	11680.444202
515.174927	11661.771768
515.538904	11653.279945
515.902822	11807.544294
516.266684	11685.994513
516.630488	11783.588731
516.994235	11770.471648
517.357925	11887.761654
517.721558	11951.212137
518.085133	12016.268227
518.448651	12041.592464
518.812112	12008.787155
519.175516	12009.447546
519.538863	12099.505239
519.902152	12110.472269
520.265385	12222.136348
520.628560	12243.105027
520.991678	12191.223992
521.354739	12243.157959
521.717743	12317.885503
522.080690	12290.698561
522.443580	12427.013881
522.806413	12436.135849
523.169189	12435.329264
523.531908	12500.466013
523.894569	12452.343159
524.257174	12472.293525
524.619722	12577.704052
524.982213	12553.219168
525.344647	12535.413812
525.707025	12549.740772
526.069345	12655.277327
526.431608	12628.599541
526.793815	12704.342878
527.155964	12602.516611
527.518057	12627.979479
527.880093	12605.102723
528.242072	12716.055999
528.603995	12635.195891
528.965860	12649.321204
529.327669	12688.226309
529.689421	12621.637708
530.051117	12647.304743
530.412755	12675.648630
530.774337	12672.225687
531.135862	12638.762507
531.497331	12698.800129
531.858743	12658.518789
532.220098	12751.822985
532.581396	12683.056606
532.942638	12600.739604
533.303824	12659.980724
533.664953	12642.245945
534.026025	12594.223913
534.387040	12707.690204
534.747999	12679.379084
535.108902	12725.606465
535.469748	12600.817742
535.830537	12627.440076
536.191270	12670.695696
536.551947	12595.209459
536.912567	12650.309270
537.273131	12687.820496
537.633638	12560.516238
537.994089	12621.441103
538.354483	12540.853217
538.714821	12669.745439
539.075103	12752.064961
539.435328	12687.583562
539.795497	12660.449551
540.155609	12647.319866
540.515665	12756.367585
540.875665	12609.959875
541.235609	12710.566182
541.595496	12669.112774
541.955328	12851.663037
542.315102	12693.297710
542.674821	12646.782983
543.034483	12661.714881
543.394090	12661.175477
543.753640	12624.238943
544.113134	12877.317469
544.472571	12644.506902
544.831953	12923.650714
545.191278	12727.809449
545.550548	12659.844613
545.909761	12781.313735
546.268918	12823.094818
546.628019	12893.953277
546.987064	12777.900874
547.346053	12622.512348
547.704986	12820.223881
548.063863	12696.887011
548.422684	12752.584199
548.781449	12715.461143
549.140158	12806.154021
549.498811	12762.227927
549.857408	12634.069193
550.215949	12837.900687
550.574434	12802.441211
550.932864	12749.589754
551.291237	12939.452211
551.649555	12835.226355
552.007817	12881.486503
552.366022	12810.013024
552.724173	12840.491840
553.082267	12938.033126
553.440305	13025.960931
553.798288	12855.169160
554.156215	12920.535281
554.514086	12971.496305
554.871902	12907.093044
555.229661	12932.243361
555.587365	12895.899162
555.945014	12912.141760
556.302606	12882.310732
556.660143	12946.865227
557.017625	12976.429074
557.375050	12933.629678
557.732421	13049.155280
558.089735	13037.348898
558.446994	13010.361081
558.804197	13126.995737
559.161345	13122.131023
559.518437	12931.046087
559.875474	13023.125282
560.232455	13059.025859
560.589381	13103.327519
560.946251	13040.204712
561.303065	13212.143346
561.659825	13159.571673
562.016528	13089.759254
562.373177	13017.983305
562.729770	13151.347030
563.086307	13041.245710
563.442789	13150.626145
563.799216	13186.279706
564.155587	13126.731076
564.511904	13148.191268
564.868164	13160.978155
565.224370	13221.580386
565.580520	13161.535202
565.936615	13235.930030
566.292654	13169.863188
566.648638	13232.464237
567.004567	13240.177202
567.360441	13234.740318
567.716260	13211.692163
568.072023	13297.807673
568.427732	13278.177420
568.783385	13175.726050
569.138982	13284.259572
569.494525	13286.011373
569.850013	13223.934605
570.205445	13219.321949
570.560823	13232.396181
570.916145	13185.881455
571.271412	13196.157847
571.626625	13151.233604
571.981782	13148.884427
572.336884	13095.914503
572.691931	13180.943645
573.046923	13075.633941
573.401860	13055.025704
573.756743	13057.949573
574.111570	13080.644848
574.466342	13059.129203
574.821059	13110.052419
575.175722	12970.059576
575.530330	12993.526148
575.884882	12933.468361
576.239380	12937.649998
576.593823	12911.385587
576.948211	12900.370666
577.302544	12779.894650
577.656823	12813.604846
578.011047	12868.132487
578.365216	12801.498515
578.719330	12741.186151
579.073389	12707.201212
579.427394	12721.140002
579.781344	12710.089793
580.135239	12643.934731
580.489080	12675.237776
580.842866	12553.967779
581.196597	12649.918581
581.550273	12642.442550
581.903895	12602.713216
582.257463	12710.493085
582.610975	12550.449054
582.964434	12620.611833
583.317837	12528.434335
583.671186	12484.399856
584.024481	12539.658464
584.377721	12429.771392
584.730906	12503.672187
585.084037	12520.620546
585.437113	12438.767331
585.790135	12458.884056
586.143103	12369.728729
586.496016	12382.356820
586.848874	12398.972463
587.201679	12393.926268
587.554428	12272.066456
587.907124	12310.109523
588.259765	12251.362437
588.612352	12322.856081
588.964884	12188.385823
589.317362	12241.048236
589.669786	12225.592059
590.022155	12184.413393
590.374470	12283.726645
590.726731	12174.656240
591.078937	12063.569374
591.431090	12084.507807
591.783188	12012.835202
592.135232	11933.497523
592.487222	11995.919610
592.839157	12007.678101
593.191038	11939.541866
593.542866	11884.028680
593.894639	11738.886299
594.246358	11803.423150
594.598022	11810.170735
594.949633	11712.384953
595.301190	11696.248220
595.652692	11653.920171
596.004141	11743.398132
596.355535	11519.812876
596.706876	11511.389108
597.058162	11466.306069
597.409395	11564.815257
597.760573	11593.489340
598.111698	11484.751651
598.462768	11487.438586
598.813785	11502.428457
599.164748	11370.622449
599.515657	11448.047010
599.866511	11320.304172
600.217312	11451.480036
600.568060	11219.193749
600.918753	11380.314067
601.269392	11383.613502
601.619978	11286.445262
601.970510	11327.838176
602.320988	11361.863444
602.671412	11443.636000
603.021783	11363.960564
603.372100	11287.279573
603.722363	11304.661471
604.072572	11307.333283
604.422728	11313.995168
604.772830	11262.401478
605.122878	11269.287695
605.472872	11236.288302
605.822813	11299.383383
606.172701	11263.813002
606.522534	11291.577156
606.872314	11344.710918
607.222041	11278.608788
607.571714	11360.640964
607.921333	11221.202649
608.270899	11279.833788
608.620411	11347.344921
608.969870	11293.996910
609.319276	11264.843917
609.668627	11287.110694
610.017926	11364.250430
610.367171	11394.366283
610.716362	11391.906200
611.065500	11364.010975
611.414585	11377.904395
611.763616	11440.152563
612.112594	11408.763819
612.461518	11433.770462
612.810389	11481.384160
613.159207	11422.677403
613.507971	11420.991137
613.856682	11516.737772
614.205340	11475.942235
614.553945	11611.307298
614.902496	11488.996303
615.250994	11551.017618
615.599439	11545.608460
615.947830	11582.272772
616.296169	11542.848429
616.644454	11559.421222
616.992686	11566.002448
617.340864	11663.332006
617.688990	11553.694471
618.037063	11678.609222
618.385082	11655.717343
618.733048	11694.572036
619.080961	11681.308760
619.428821	11669.623366
619.776628	11674.669561
620.124382	11621.608896
620.472083	11636.177830
620.819731	11649.884728
621.167326	11584.818555
621.514868	11555.539533
621.862357	11470.288581
622.209793	11458.782147
622.557176	11363.456448
622.904506	11316.087246
623.251783	11245.753068
623.599007	11178.738489
623.946179	11127.603545
624.293297	11104.784762
624.640363	10970.833743
624.987376	10961.353853
625.334336	10889.209900
625.681243	10815.183077
626.028097	10785.052100
626.374899	10744.788404
626.721647	10716.361338
627.068343	10673.798876
627.414987	10617.274938
627.761577	10548.067458
628.108115	10601.241549
628.454600	10475.404266
628.801032	10484.732922
629.147412	10473.390325
629.493739	10450.261512
629.840014	10370.865859
630.186236	10408.273741
630.532405	10312.257404
630.878521	10343.711684
631.224585	10299.848604
631.570597	10222.527387
631.916556	10222.040915
632.262462	10209.669924
632.608316	10183.808804
632.954117	10159.971708
633.299866	10148.876129
633.645562	10124.832346
633.991206	10022.693528
634.336797	9922.634185
634.682336	9913.842413
635.027823	9856.733702
635.373257	9825.899484
635.718639	9753.085058
636.063968	9730.241069
636.409245	9610.095250
636.754470	9601.051420
637.099642	9543.330208
637.444762	9445.350342
637.789829	9446.446793
638.134845	9377.017502
638.479808	9357.387249
