Dividing Wavelength (nm)	Counts (n)	Blue Motor Position (mm): 36.500000	Red Motor Position (mm): 0.000000	
326.493990	2128.828858
326.888308	2128.828858
327.282561	2128.828858
327.676750	2094.443147
328.070874	2098.218972
328.464933	2098.849116
328.858929	2104.643922
329.252859	2113.155910
329.646726	2126.653600
330.040528	2139.397637
330.434265	2155.892292
330.827938	2170.584735
331.221547	2190.978723
331.615091	2212.164172
332.008571	2230.418190
332.401986	2251.200347
332.795338	2269.885383
333.188625	2289.276182
333.581847	2306.937864
333.975006	2324.907057
334.368100	2341.749552
334.761129	2359.592716
335.154095	2378.227341
335.546996	2404.121228
335.939833	2424.114444
336.332606	2438.819490
336.725315	2452.158383
337.117960	2462.454940
337.510540	2469.079016
337.903056	2478.090078
338.295508	2488.482417
338.687896	2494.534322
339.080220	2505.758451
339.472480	2511.636437
339.864676	2517.849659
340.256807	2518.154649
340.648875	2522.941224
341.040879	2526.585978
341.432818	2526.338962
341.824694	2531.760723
342.216506	2527.818541
342.608253	2529.124199
342.999937	2529.151926
343.391557	2527.337110
343.783113	2526.021369
344.174605	2529.890455
344.566033	2519.977026
344.957397	2522.056502
345.348697	2523.793179
345.739934	2520.100534
346.131106	2518.144566
346.522215	2516.216325
346.913260	2517.007786
347.304241	2514.197343
347.695159	2510.915552
348.086012	2511.160048
348.476802	2507.227948
348.867528	2507.389265
349.258191	2506.333143
349.648789	2505.645025
350.039324	2503.474809
350.429796	2503.066475
350.820203	2498.836947
351.210548	2497.869046
351.600828	2498.423573
351.991045	2496.190341
352.381198	2500.495487
352.771288	2497.586741
353.161314	2495.905516
353.551276	2498.423573
353.941175	2497.183449
354.331010	2496.911226
354.720782	2495.109014
355.110490	2496.016422
355.500135	2496.699498
355.889717	2495.441730
356.279235	2495.716473
356.668689	2496.197903
357.058080	2497.501041
357.447408	2496.281082
357.836672	2494.204127
358.225873	2492.744713
358.615010	2493.402583
359.004084	2498.501710
359.393095	2499.567914
359.782043	2502.433810
360.170927	2502.232164
360.559748	2502.317864
360.948505	2499.782163
361.337199	2499.298213
361.725830	2501.544047
362.114398	2503.729387
362.502903	2501.889366
362.891344	2503.313492
363.279722	2501.730569
363.668037	2503.258039
364.056289	2504.087309
364.444478	2505.347597
364.832603	2505.995386
365.220665	2505.970180
365.608665	2505.052690
365.996601	2506.859943
366.384474	2506.343225
366.772284	2509.675428
367.160031	2509.279697
367.547715	2507.669049
367.935336	2508.364728
368.322893	2507.719460
368.710388	2510.923113
369.097820	2509.877074
369.485189	2510.570233
369.872495	2510.983607
370.259738	2512.140552
370.646918	2512.344719
371.034035	2511.094513
371.421090	2513.105933
371.808081	2509.297341
372.195010	2513.783968
372.581875	2512.125429
372.968678	2515.044257
373.355418	2512.173320
373.742096	2514.822446
374.128710	2514.867816
374.515262	2514.353619
374.901751	2512.289266
375.288177	2515.979391
375.674540	2514.104082
376.060841	2516.342354
376.447079	2516.448218
376.833254	2517.574916
377.219367	2512.458145
377.605417	2515.122395
377.991404	2515.397137
378.377329	2515.233300
378.763191	2512.788340
379.148991	2515.485358
379.534727	2519.447705
379.920402	2518.245389
380.306013	2517.988291
380.691563	2520.372756
381.077049	2517.196829
381.462474	2519.059536
381.847835	2519.611542
382.233134	2522.210257
382.618371	2519.704803
383.003545	2520.922242
383.388657	2518.436953
383.773706	2523.543642
384.158693	2520.377798
384.543618	2522.910977
384.928480	2522.381656
385.313280	2524.057840
385.698017	2526.391894
386.082692	2526.021369
386.467305	2525.174455
386.851856	2526.336441
387.236344	2523.838550
387.620770	2526.235618
388.005133	2524.176307
388.389435	2526.855680
388.773674	2524.713190
389.157851	2527.324507
389.541965	2527.780732
389.926018	2526.220495
390.310008	2528.375588
390.693936	2529.043541
391.077802	2528.355423
391.461606	2527.710156
391.845348	2528.262162
392.229027	2530.450023
392.612645	2528.904909
392.996200	2527.788294
393.379694	2532.244674
393.763125	2530.507996
394.146494	2529.280475
394.529801	2533.951104
394.913047	2533.071423
395.296230	2532.191742
395.679351	2532.922709
396.062410	2534.800539
396.445408	2535.481094
396.828343	2539.105684
397.211217	2534.016639
397.594028	2537.673996
397.976778	2541.187681
398.359466	2545.923845
398.742092	2542.669780
399.124656	2550.095399
399.507158	2554.672767
399.889598	2564.903789
400.271977	2568.871177
400.654294	2577.554564
401.036549	2585.380956
401.418742	2592.362954
401.800874	2608.499687
402.182944	2619.297839
402.564952	2637.098153
402.946898	2652.632469
403.328783	2664.983296
403.710606	2676.618279
404.092367	2709.715974
404.474067	2723.533777
404.855705	2744.436921
405.237282	2754.862027
405.618797	2789.928294
406.000250	2818.952737
406.381642	2853.020855
406.762972	2876.215203
407.144240	2902.595562
407.525447	2931.536826
407.906593	2969.272383
408.287677	3009.616737
408.668700	3025.244314
409.049661	3069.286355
409.430560	3113.668673
409.811399	3132.396560
410.192176	3212.528221
410.572891	3233.224678
410.953545	3299.707415
411.334138	3299.634318
411.714669	3358.938452
412.095139	3361.196889
412.475547	3455.395889
412.855894	3490.018534
413.236180	3535.235163
413.616405	3557.907753
413.996568	3635.551604
414.376670	3653.427536
414.756711	3671.353879
415.136691	3727.915625
415.516609	3808.833706
415.896466	3867.795042
416.276262	3932.026903
416.655997	3963.372798
417.035670	4113.775623
417.415283	4217.537693
417.794834	4224.464238
418.174324	4230.664857
418.553753	4213.131724
418.933121	4385.990369
419.312428	4474.583607
419.691674	4479.367662
420.070859	4608.781642
420.449983	4581.791305
420.829045	4707.656313
421.208047	4667.690046
421.586988	4765.415334
421.965867	4808.928053
422.344686	4955.464313
422.723444	4860.985528
423.102141	4741.633690
423.480777	5022.310013
423.859352	4853.050752
424.237866	5106.630873
424.616319	5120.562102
424.994712	5245.015587
425.373044	5154.874715
425.751314	5310.890865
426.129524	5154.630219
426.507673	5355.515159
426.885762	5445.918171
427.263789	5399.824381
427.641756	5306.850380
428.019662	5436.397952
428.397508	5454.707422
428.775292	5426.265232
429.153016	5533.503178
429.530679	5469.906501
429.908282	5564.128187
430.285824	5447.042348
430.663305	5722.581735
431.040726	5477.758098
431.418086	5483.515096
431.795385	5588.850006
432.172624	5610.148881
432.549802	5611.880517
432.926920	5625.136231
433.303977	5637.315659
433.680974	5678.138923
434.057910	5701.998704
434.434786	5707.954827
434.811601	5681.513975
435.188355	5916.953504
435.565050	5794.370286
435.941683	5772.844559
436.318257	5987.446479
436.694770	5975.057843
437.071222	6014.121744
437.447614	5943.326300
437.823946	5861.465523
438.200218	6011.820458
438.576429	5878.081167
438.952580	5980.812320
439.328670	6024.793867
439.704700	5932.414723
440.080670	5922.917189
440.456580	6192.361821
440.832429	6078.005766
441.208218	5920.517600
441.583947	6075.260858
441.959616	6081.519451
442.335224	6009.010014
442.710773	6146.010932
443.086261	6170.263923
443.461689	5965.414116
443.837057	6115.282578
444.212365	6271.991887
444.587612	6162.077089
444.962800	6314.324976
445.337927	6295.667666
445.712995	5909.003604
446.088002	6487.849053
446.462949	6309.596374
446.837837	6252.197796
447.212664	6420.244660
447.587431	6562.253964
447.962139	7102.390913
448.336786	8027.082201
448.711374	7769.169209
449.085901	6845.229053
449.460369	6766.428256
449.834776	6699.033070
450.209124	7094.587207
450.583412	7247.934066
450.957640	7388.468832
451.331808	7152.041237
451.705917	6711.514967
452.079965	6622.485670
452.453954	6844.966913
452.827883	6719.427058
453.201752	6809.769576
453.575562	6609.343382
453.949311	6815.829043
454.323001	6710.146294
454.696632	6776.651716
455.070202	6914.827222
455.443713	7071.002169
455.817164	7171.979001
456.190556	7249.736278
456.563888	7328.985737
456.937160	7369.604834
457.310373	7030.158740
457.683526	7053.408542
458.056619	6942.732530
458.429653	6931.049656
458.802628	6866.303596
459.175542	6974.408620
459.548398	7330.064544
459.921194	7489.233936
460.293930	7495.207703
460.666607	8023.220677
461.039224	8334.219541
461.411782	8456.520453
461.784280	8468.437741
462.156719	8360.335238
462.529099	8244.726457
462.901419	7833.370824
463.273680	7722.987198
463.645882	7741.130311
464.018024	7607.328006
464.390106	7767.747603
464.762130	8156.917119
465.134094	8624.902554
465.505999	9649.650663
465.877845	10867.974040
466.249631	11510.353151
466.621358	11136.438167
466.993026	10496.748512
467.364634	10245.961190
467.736184	9884.051714
468.107674	9553.359584
468.479105	9583.135159
468.850477	9345.888377
469.221790	9121.022668
469.593043	8792.039489
469.964238	8653.541349
470.335373	8665.004932
470.706449	8723.131957
471.077467	8708.686531
471.448425	10014.579790
471.819324	11083.576628
472.190164	11102.947262
472.560945	9857.119350
472.931667	9074.664218
473.302330	8939.979710
473.672934	8584.283457
474.043479	8938.308568
474.413965	8881.545175
474.784393	8766.228781
475.154761	8920.644365
475.525070	9003.702415
475.895321	8839.408691
476.265513	9011.347325
476.635645	9183.580867
477.005719	9175.383951
477.375734	9298.688053
477.745691	9534.971975
478.115588	9659.853959
478.485427	9907.949304
478.855207	10439.891858
479.224928	11257.965263
479.594591	11884.810059
479.964194	11688.903258
480.333739	11637.670012
480.703226	11545.598378
481.072653	11638.242183
481.442022	11881.808052
481.811333	12067.705641
482.180584	11874.460570
482.549777	11583.822927
482.918912	11401.184444
483.287988	11430.266860
483.657005	11438.751122
484.025964	11121.896959
484.394864	11253.198852
484.763706	11222.561240
485.132489	10984.772533
485.501213	10944.793663
485.869879	11026.714933
486.238487	10860.908863
486.607036	10972.325924
486.975527	10756.514128
487.343959	10949.144178
487.712333	10991.704120
488.080648	10930.224728
488.448905	10971.829371
488.817104	10911.600185
489.185244	11177.455516
489.553326	11331.112405
489.921350	11868.222142
490.289315	12925.125252
490.657222	13267.674176
491.025070	13179.885002
491.392861	13045.560937
491.760593	12666.597238
492.128267	12314.563383
492.495883	11992.302582
492.863440	11652.738021
493.230939	11317.244191
493.598380	11254.333112
493.965763	11127.452311
494.333088	11026.109995
494.700354	10947.110073
495.067563	11006.492345
495.434713	10827.662453
495.801805	10955.203645
496.168839	10881.328056
496.535815	10823.332102
496.902733	10818.215331
497.269593	10754.280897
497.636395	10856.770075
498.003139	10838.740389
498.369825	10710.846316
498.736453	10872.546366
499.103023	10796.664398
499.469535	10832.499440
499.835989	10812.806173
500.202385	10775.806624
500.568723	10627.715168
500.935003	10849.175577
501.301226	10654.909673
501.667390	10911.839640
502.033497	11010.482418
502.399546	10867.953875
502.765537	10780.159660
503.131470	10849.820845
503.497345	11022.001454
503.863163	10637.709256
504.228923	10949.983531
504.594625	11007.253559
504.960269	10750.643705
505.325856	10982.163736
505.691385	10770.843608
506.056856	10927.288256
506.422270	10947.193252
506.787625	10836.739051
507.152924	10958.296393
507.518164	10935.467528
507.883347	10856.878460
508.248472	10776.356110
508.613540	11013.260094
508.978550	10893.603266
509.343503	10877.453930
509.708398	10992.977011
510.073236	11100.998856
510.438016	11107.769125
510.802738	11060.730119
511.167403	11107.259969
511.532010	11012.864363
511.896561	11240.278375
512.261053	11305.926801
512.625488	11180.424755
512.989866	11164.237610
513.354186	11152.854685
513.718449	11049.090095
514.082655	11237.581357
514.446803	11141.917902
514.810894	11265.161510
515.174927	11126.950716
515.538904	11152.952987
515.902822	11299.907663
516.266684	11188.956908
516.630488	11135.447581
516.994235	11183.149499
517.357925	11248.913871
517.721558	11337.955772
518.085133	11346.989519
518.448651	11364.701613
518.812112	11243.164435
519.175516	11262.819894
519.538863	11380.077133
519.902152	11297.389607
520.265385	11455.432300
520.628560	11367.038188
520.991678	11357.094512
521.354739	11405.658468
521.717743	11347.130672
522.080690	11331.737508
522.443580	11457.622682
522.806413	11414.243553
523.169189	11445.110538
523.531908	11497.369659
523.894569	11324.077475
524.257174	11326.716519
524.619722	11445.050044
524.982213	11399.409958
525.344647	11443.542739
525.707025	11391.011395
526.069345	11491.166519
526.431608	11409.025959
526.793815	11515.943791
527.155964	11305.536111
527.518057	11357.160047
527.880093	11306.256996
528.242072	11369.349557
528.603995	11280.053079
528.965860	11202.832684
529.327669	11249.357493
529.689421	11204.181193
530.051117	11177.417707
530.412755	11280.776484
530.774337	11165.560913
531.135862	11149.502317
531.497331	11164.892960
531.858743	11029.157372
532.220098	11191.101919
532.581396	11057.435725
532.942638	11046.158664
533.303824	11003.359267
533.664953	11022.162771
534.026025	10936.790831
534.387040	11030.115192
534.747999	11033.505367
535.108902	11089.867988
535.469748	10856.051711
535.830537	10960.577515
536.191270	10930.111302
536.551947	10963.957609
536.912567	10954.613830
537.273131	10882.613551
537.633638	10861.970026
537.994089	10855.224962
538.354483	10799.474841
538.714821	10945.055803
539.075103	10953.966042
539.435328	10923.991341
539.795497	10744.775802
540.155609	10908.754454
540.515665	10991.721764
540.875665	10723.242513
541.235609	10793.896805
541.595496	10788.679210
541.955328	10942.318456
542.315102	10827.458286
542.674821	10778.344845
543.034483	10779.960535
543.394090	10782.707964
543.753640	10709.928826
544.113134	10935.021386
544.472571	10788.391865
544.831953	10936.183372
545.191278	10737.052754
545.550548	10766.805644
545.909761	10902.758001
546.268918	10879.616585
546.628019	10959.360077
546.987064	10821.582822
547.346053	10746.756975
547.704986	10847.610299
548.063863	10829.535242
548.422684	10825.527524
548.781449	10738.870090
549.140158	10845.402273
549.498811	10717.064579
549.857408	10575.894627
550.215949	10806.315687
550.574434	10660.815384
550.932864	10758.414643
551.291237	10817.539816
551.649555	10762.256003
552.007817	10779.060689
552.366022	10740.221119
552.724173	10731.268030
553.082267	10717.707326
553.440305	10845.729948
553.798288	10652.878088
554.156215	10808.803497
554.514086	10786.433376
554.871902	10635.697835
555.229661	10671.306025
555.587365	10646.374999
555.945014	10540.213340
556.302606	10667.946096
556.660143	10563.775693
557.017625	10716.477284
557.375050	10614.948446
557.732421	10744.523744
558.089735	10660.505353
558.446994	10654.559312
558.804197	10690.170023
559.161345	10692.768738
559.518437	10550.527541
559.875474	10638.268824
560.232455	10661.463172
560.589381	10615.445000
560.946251	10609.146078
561.303065	10720.106915
561.659825	10660.780096
562.016528	10589.329302
562.373177	10461.319282
562.729770	10584.320916
563.086307	10496.171300
563.442789	10589.740156
563.799216	10467.860180
564.155587	10519.600062
564.511904	10471.993926
564.868164	10465.314397
565.224370	10481.073044
565.580520	10401.314428
565.936615	10405.677547
566.292654	10274.020253
566.648638	10403.570345
567.004567	10364.834118
567.360441	10347.737045
567.716260	10263.035578
568.072023	10352.175781
568.427732	10304.504110
568.783385	10211.658659
569.138982	10287.346543
569.494525	10293.471545
569.850013	10175.241363
570.205445	10256.751780
570.560823	10155.550617
570.916145	10070.040044
571.271412	10145.561570
571.626625	10088.331871
571.981782	10057.512777
572.336884	10036.851608
572.691931	10043.067351
573.046923	9991.987859
573.401860	9947.388771
573.756743	9881.558864
574.111570	9921.280636
574.466342	9903.676926
574.821059	9936.391494
575.175722	9831.963992
575.530330	9833.030196
575.884882	9829.307304
576.239380	9754.400799
576.593823	9739.839426
576.948211	9749.773020
577.302544	9624.054205
577.656823	9647.548502
578.011047	9655.216097
578.365216	9625.488413
578.719330	9546.586794
579.073389	9553.941837
579.427394	9508.936936
579.781344	9479.612544
580.135239	9433.307026
580.489080	9438.612840
580.842866	9341.515176
581.196597	9338.009053
581.550273	9381.637719
581.903895	9353.694603
582.257463	9418.796064
582.610975	9293.205798
582.964434	9326.873144
583.317837	9239.336028
583.671186	9230.060305
584.024481	9227.479235
584.377721	9146.503180
584.730906	9119.573337
585.084037	9152.756732
585.437113	9082.775434
585.790135	9106.693188
586.143103	9006.139813
586.496016	8980.757604
586.848874	9034.203917
587.201679	9026.271661
587.554428	8915.383921
587.907124	8958.135426
588.259765	8930.933360
588.612352	8934.875542
588.964884	8806.880646
589.317362	8829.228081
589.669786	8817.835073
590.022155	8869.963124
590.374470	8885.210094
590.726731	8826.644489
591.078937	8675.845934
591.431090	8785.576730
591.783188	8660.593923
592.135232	8655.257862
592.487222	8655.837594
592.839157	8705.550933
593.191038	8637.208010
593.542866	8587.262778
593.894639	8491.485897
594.246358	8528.750106
594.598022	8553.040906
594.949633	8453.911656
595.301190	8422.044002
595.652692	8456.013818
596.004141	8567.375427
596.355535	8343.641457
596.706876	8322.324938
597.058162	8257.183148
597.409395	8337.125766
597.760573	8396.276144
598.111698	8307.115777
598.462768	8296.647821
598.813785	8259.030731
599.164748	8221.446408
599.515657	8216.672436
599.866511	8125.840926
600.217312	8255.232222
600.568060	8109.134542
600.918753	8217.531953
601.269392	8185.200512
601.619978	8092.440761
601.970510	8155.303949
602.320988	8151.265985
602.671412	8211.180099
603.021783	8148.092579
603.372100	8121.238352
603.722363	8127.930484
604.072572	8102.114735
604.422728	8110.125129
604.772830	8034.994292
605.122878	8045.754635
605.472872	8037.577884
605.822813	8070.070641
606.172701	8015.981581
606.522534	8088.788445
606.872314	8091.752643
607.222041	8056.951038
607.571714	8112.439018
607.921333	8073.236485
608.270899	8083.923732
608.620411	8167.811052
608.969870	8072.747493
609.319276	8064.739621
609.668627	8088.092766
610.017926	8116.396324
610.367171	8160.256883
610.716362	8143.643761
611.065500	8137.034808
611.414585	8159.425093
611.763616	8154.210019
612.112594	8129.856205
612.461518	8143.502608
612.810389	8207.406795
613.159207	8143.832804
613.507971	8091.954290
613.856682	8208.178092
614.205340	8164.801483
614.553945	8248.819874
614.902496	8142.038153
615.250994	8194.907254
615.599439	8183.980553
615.947830	8196.969086
616.296169	8165.615630
616.644454	8178.062238
616.992686	8176.885129
617.340864	8233.144406
617.688990	8135.199828
618.037063	8232.877225
618.385082	8176.033174
618.733048	8270.607741
619.080961	8206.484264
619.428821	8222.893220
619.776628	8224.163590
620.124382	8178.488216
620.472083	8158.757140
620.819731	8185.490379
621.167326	8079.837876
621.514868	8089.479083
621.862357	7973.535065
622.209793	7990.470822
622.557176	7930.551667
622.904506	7896.095380
623.251783	7825.877148
623.599007	7785.268134
623.946179	7787.264431
624.293297	7744.311279
624.640363	7662.009402
624.987376	7650.704614
625.334336	7595.579597
625.681243	7546.466155
626.028097	7531.322529
626.374899	7507.525763
626.721647	7500.921851
627.068343	7432.558764
627.414987	7400.025677
627.761577	7356.477670
628.108115	7396.882518
628.454600	7289.052237
628.801032	7343.937800
629.147412	7300.641850
629.493739	7295.366282
629.840014	7229.334729
630.186236	7281.755167
630.532405	7162.872156
630.878521	7213.543314
631.224585	7179.150042
631.570597	7097.614420
631.916556	7134.906355
632.262462	7131.173381
632.608316	7089.409942
632.954117	7068.209369
633.299866	7055.719911
633.645562	7046.113992
633.991206	6966.234389
634.336797	6911.182468
634.682336	6868.201591
635.027823	6832.681621
635.373257	6828.197514
635.718639	6752.378560
636.063968	6767.736436
636.409245	6668.269429
636.754470	6668.871847
637.099642	6622.863756
637.444762	6564.335960
637.789829	6575.159317
638.134845	6518.471542
638.479808	6504.714234
638.824719	6504.169789
639.169577	6437.745025
639.514383	6454.794208
639.859137	6384.439865
640.203839	6388.792901
640.548489	6379.244956
