Dividing Wavelength (nm)	Counts (n)	Blue Motor Position (mm): 24.000000	Red Motor Position (mm): 0.000000	
326.493990	2134.676596
326.888308	2134.676596
327.282561	2134.676596
327.676750	2099.653180
328.070874	2097.079671
328.464933	2101.573859
328.858929	2107.661053
329.252859	2118.469287
329.646726	2129.569907
330.040528	2144.390900
330.434265	2161.152736
330.827938	2176.734943
331.221547	2195.425021
331.615091	2211.851620
332.008571	2231.166801
332.401986	2255.296284
332.795338	2272.496701
333.188625	2292.941101
333.581847	2310.842238
333.975006	2329.565083
334.368100	2345.684173
334.761129	2361.339476
335.154095	2381.267157
335.546996	2401.451937
335.939833	2424.706780
336.332606	2439.754624
336.725315	2453.118723
337.117960	2461.093828
337.510540	2467.909468
337.903056	2482.238948
338.295508	2488.048878
338.687896	2498.214365
339.080220	2505.075375
339.472480	2514.638444
339.864676	2515.694566
340.256807	2520.793693
340.648875	2524.214116
341.040879	2524.098169
341.432818	2528.748633
341.824694	2528.012625
342.216506	2528.393232
342.608253	2530.656710
342.999937	2528.736031
343.391557	2530.623943
343.783113	2527.538757
344.174605	2526.613705
344.566033	2523.843591
344.957397	2525.613036
345.348697	2520.143384
345.739934	2521.055833
346.131106	2519.800585
346.522215	2518.537776
346.913260	2517.103568
347.304241	2513.380676
347.695159	2510.701303
348.086012	2509.625016
348.476802	2507.784995
348.867528	2504.596465
349.258191	2505.445900
349.648789	2504.757782
350.039324	2500.739983
350.429796	2502.138903
350.820203	2499.091525
351.210548	2499.058758
351.600828	2495.343428
351.991045	2499.346104
352.381198	2495.459374
352.771288	2495.134220
353.161314	2496.102121
353.551276	2498.879797
353.941175	2496.951556
354.331010	2497.251504
354.720782	2496.414673
355.110490	2494.612460
355.500135	2497.024652
355.889717	2494.804024
356.279235	2498.363079
356.668689	2496.603716
357.058080	2494.206647
357.447408	2495.310660
357.836672	2492.916112
358.225873	2495.459374
358.615010	2492.442243
359.004084	2500.624036
359.393095	2498.592451
359.782043	2498.877276
360.170927	2499.197390
360.559748	2499.966166
360.948505	2501.092863
361.337199	2501.463388
361.725830	2503.399191
362.114398	2503.016064
362.502903	2501.070178
362.891344	2503.174860
363.279722	2502.922802
363.668037	2503.941115
364.056289	2504.404902
364.444478	2504.422546
364.832603	2506.471775
365.220665	2505.173678
365.608665	2505.576970
365.996601	2508.672238
366.384474	2506.786847
366.772284	2508.954543
367.160031	2506.260046
367.547715	2509.390603
367.935336	2508.803308
368.322893	2508.586539
368.710388	2510.973525
369.097820	2513.718433
369.485189	2509.297341
369.872495	2509.776251
370.259738	2505.594614
370.646918	2511.344050
371.034035	2510.469410
371.421090	2510.935716
371.808081	2508.193329
372.195010	2512.236334
372.581875	2509.420850
372.968678	2512.397651
373.355418	2511.911180
373.742096	2512.029647
374.128710	2514.023423
374.515262	2511.777589
374.901751	2512.627023
375.288177	2513.907477
375.674540	2514.162055
376.060841	2513.274812
376.447079	2514.436798
376.833254	2515.901253
377.219367	2512.737929
377.605417	2513.226921
377.991404	2510.736591
378.377329	2511.303721
378.763191	2508.379851
379.148991	2515.152642
379.534727	2511.379338
379.920402	2512.548886
380.306013	2516.912004
380.691563	2514.560306
381.077049	2515.407220
381.462474	2518.268075
381.847835	2518.835204
382.233134	2517.186747
382.618371	2516.123064
383.003545	2518.260513
383.388657	2519.092303
383.773706	2517.032992
384.158693	2520.294618
384.543618	2518.477282
384.928480	2518.202540
385.313280	2519.730009
385.698017	2520.181192
386.082692	2519.422499
386.467305	2518.164731
386.851856	2519.339320
387.236344	2520.695390
387.620770	2520.859228
388.005133	2520.425688
388.389435	2520.874351
388.773674	2521.670853
389.157851	2523.157994
389.541965	2522.855525
389.926018	2517.708507
390.310008	2521.171779
390.693936	2522.714372
391.077802	2521.784279
391.461606	2520.219001
391.845348	2522.996677
392.229027	2525.464322
392.612645	2523.034486
392.996200	2523.818385
393.379694	2523.289064
393.763125	2525.643283
394.146494	2523.546163
394.529801	2522.512726
394.913047	2525.504651
395.296230	2525.068591
395.679351	2523.311749
396.062410	2524.612367
396.445408	2525.640762
396.828343	2523.815864
397.211217	2519.528363
397.594028	2521.262520
397.976778	2521.227232
398.359466	2524.312418
398.742092	2524.146060
399.124656	2525.098838
399.507158	2526.023890
399.889598	2525.693694
400.271977	2524.569517
400.654294	2530.538243
401.036549	2525.827285
401.418742	2526.137316
401.800874	2528.040351
402.182944	2528.201668
402.564952	2528.809127
402.946898	2527.795855
403.328783	2528.927594
403.710606	2528.920033
404.092367	2528.665454
404.474067	2529.988757
404.855705	2529.013294
405.237282	2531.974972
405.618797	2529.204858
406.000250	2531.357431
406.381642	2528.978006
406.762972	2531.501103
407.144240	2528.894827
407.525447	2532.897503
407.906593	2529.492204
408.287677	2530.407173
408.668700	2530.991947
409.049661	2530.197965
409.430560	2532.708460
409.811399	2530.195445
410.192176	2531.624612
410.572891	2533.966228
410.953545	2530.447502
411.334138	2531.957328
411.714669	2533.482277
412.095139	2533.048738
412.475547	2532.310209
412.855894	2531.327184
413.236180	2531.589324
413.616405	2533.343645
413.996568	2533.535209
414.376670	2535.675179
414.756711	2533.822555
415.136691	2536.005374
415.516609	2532.804242
415.896466	2532.532019
416.276262	2535.319778
416.655997	2534.273738
417.035670	2529.071267
417.415283	2535.014788
417.794834	2532.199303
418.174324	2535.322298
418.553753	2532.605116
418.933121	2534.901362
419.312428	2536.355735
419.691674	2535.665097
420.070859	2534.041845
420.449983	2536.164171
420.829045	2536.602751
421.208047	2537.663914
421.586988	2535.274407
421.965867	2539.274563
422.344686	2536.088553
422.723444	2538.253729
423.102141	2538.714995
423.480777	2539.214069
423.859352	2539.458565
424.237866	2539.738349
424.616319	2537.449665
424.994712	2536.993441
425.373044	2539.236754
425.751314	2539.745911
426.129524	2537.245498
426.507673	2537.096784
426.885762	2537.631147
427.263789	2540.872608
427.641756	2536.960673
428.019662	2541.482588
428.397508	2539.912269
428.775292	2540.035777
429.153016	2540.857485
429.530679	2540.456713
429.908282	2539.387989
430.285824	2541.724563
430.663305	2538.979655
431.040726	2544.144317
431.418086	2541.316230
431.795385	2540.101312
432.172624	2541.089378
432.549802	2542.354708
432.926920	2541.275901
433.303977	2540.625592
433.680974	2541.938813
434.057910	2543.511652
434.434786	2542.556354
434.811601	2540.063503
435.188355	2540.043339
435.565050	2542.780685
435.941683	2543.655325
436.318257	2542.803370
436.694770	2537.845396
437.071222	2540.791950
437.447614	2538.780530
437.823946	2541.240613
438.200218	2542.851261
438.576429	2542.621889
438.952580	2544.678680
439.328670	2545.376879
439.704700	2545.505429
440.080670	2544.096426
440.456580	2543.700696
440.832429	2546.770758
441.208218	2546.574153
441.583947	2546.896787
441.959616	2545.603731
442.335224	2547.519370
442.710773	2543.085675
443.086261	2547.905018
443.461689	2543.993083
443.837057	2545.941489
444.212365	2544.938299
444.587612	2551.184289
444.962800	2549.543393
445.337927	2546.115408
445.712995	2549.099772
446.088002	2549.359391
446.462949	2547.554658
446.837837	2549.170348
447.212664	2548.167158
447.587431	2547.668084
447.962139	2550.390307
448.336786	2552.696635
448.711374	2550.725544
449.085901	2549.689587
449.460369	2551.390976
449.834776	2551.932900
450.209124	2554.929866
450.583412	2554.395504
450.957640	2552.719320
451.331808	2553.321738
451.705917	2554.093034
452.079965	2554.904660
452.453954	2551.789227
452.827883	2554.561862
453.201752	2557.107644
453.575562	2554.249310
453.949311	2556.437171
454.323001	2560.913716
454.696632	2558.927501
455.070202	2562.443706
455.443713	2563.923284
455.817164	2561.286761
456.190556	2563.567883
456.563888	2564.699622
456.937160	2563.071329
457.310373	2571.311095
457.683526	2576.599266
458.056619	2579.162692
458.429653	2578.356108
458.802628	2581.075810
459.175542	2585.481779
459.548398	2592.977975
459.921194	2599.289499
460.293930	2603.703029
460.666607	2619.539814
461.039224	2629.969962
461.411782	2634.471712
461.784280	2642.351035
462.156719	2647.099802
462.529099	2650.245482
462.901419	2648.894453
463.273680	2654.694301
463.645882	2662.434992
464.018024	2670.067299
464.390106	2682.705472
464.762130	2702.300437
465.134094	2730.374623
465.505999	2786.825463
465.877845	2851.747963
466.249631	2882.572098
466.621358	2879.862478
466.993026	2870.755634
467.364634	2876.242930
467.736184	2877.170502
468.107674	2881.800802
468.479105	2907.004051
468.850477	2909.789288
469.221790	2916.322623
469.593043	2916.914959
469.964238	2929.449788
470.335373	2953.995166
470.706449	2978.802684
471.077467	3003.791684
471.448425	3135.993423
471.819324	3254.679828
472.190164	3279.779733
472.560945	3202.173691
472.931667	3164.044923
473.302330	3180.746266
473.672934	3178.986903
474.043479	3247.292017
474.413965	3270.428393
474.784393	3293.453863
475.154761	3346.335567
475.525070	3391.277454
475.895321	3407.396543
476.265513	3465.662199
476.635645	3527.441540
477.005719	3579.055393
477.375734	3639.899600
477.745691	3723.940675
478.115588	3797.879279
478.485427	3890.591139
478.855207	4048.875808
479.224928	4283.901962
479.594591	4471.042196
479.964194	4493.099765
480.333739	4527.737533
480.703226	4592.284467
481.072653	4677.459802
481.442022	4831.058718
481.811333	4941.321356
482.180584	4971.003670
482.549777	4975.880986
482.918912	5003.065408
483.287988	5093.193677
483.657005	5165.672867
484.025964	5155.918234
484.394864	5268.472076
484.763706	5344.336400
485.132489	5333.366849
485.501213	5405.170524
485.869879	5498.149566
486.238487	5540.936359
486.607036	5640.557121
486.975527	5660.704092
487.343959	5798.330113
487.712333	5911.078039
488.080648	5955.495646
488.448905	6063.404064
488.817104	6121.742817
489.185244	6314.140974
489.553326	6481.184648
489.921350	6804.335213
490.289315	7367.921089
490.657222	7617.632124
491.025070	7688.162908
491.392861	7724.718835
491.760593	7637.915207
492.128267	7577.922955
492.495883	7503.754979
492.863440	7411.146463
493.230939	7330.533372
493.598380	7379.540949
493.965763	7403.597335
494.333088	7416.585868
494.700354	7461.850388
495.067563	7556.384626
495.434713	7551.897999
495.801805	7705.219652
496.168839	7736.472285
496.535815	7783.733102
496.902733	7845.023451
497.269593	7890.613126
497.636395	8018.822271
498.003139	8102.026515
498.369825	8074.070796
498.736453	8255.615349
499.103023	8270.640508
499.469535	8367.120631
499.835989	8423.871421
500.202385	8476.473340
500.568723	8431.158408
500.935003	8651.741657
501.301226	8591.693953
501.667390	8828.159356
502.033497	8966.854101
502.399546	8922.746526
502.765537	8920.898943
503.131470	9036.782467
503.497345	9230.899658
503.863163	8981.044949
504.228923	9294.261920
504.594625	9388.163493
504.960269	9249.546886
505.325856	9481.742432
505.691385	9361.836067
506.056856	9540.489518
506.422270	9611.625240
506.787625	9555.013082
507.152924	9711.387154
507.518164	9733.003622
507.883347	9719.079955
508.248472	9685.354636
508.613540	9934.919477
508.978550	9875.716167
509.343503	9893.324917
509.708398	10037.839674
510.073236	10168.244242
510.438016	10220.944464
510.802738	10211.817455
511.167403	10290.958529
511.532010	10242.860881
511.896561	10465.727772
512.261053	10572.880017
512.625488	10487.571091
512.989866	10494.820270
513.354186	10517.359269
513.718449	10462.393048
514.082655	10661.387555
514.446803	10587.398540
514.810894	10726.143697
515.174927	10625.171906
515.538904	10667.855356
515.902822	10837.384318
516.266684	10747.785370
516.630488	10714.375123
516.994235	10791.575353
517.357925	10866.154183
517.721558	10976.810031
518.085133	11007.697180
518.448651	11027.821467
518.812112	10932.707496
519.175516	10959.022319
519.538863	11091.962588
519.902152	11023.866681
520.265385	11194.043432
520.628560	11118.206834
520.991678	11112.391863
521.354739	11179.497183
521.717743	11130.008176
522.080690	11120.475354
522.443580	11260.816036
522.806413	11220.093595
523.169189	11263.263516
523.531908	11324.770634
523.894569	11154.034315
524.257174	11165.296252
524.619722	11285.268152
524.982213	11238.783673
525.344647	11305.243724
525.707025	11253.844120
526.069345	11356.718946
526.431608	11282.926536
526.793815	11396.634802
527.155964	11191.167454
527.518057	11249.372616
527.880093	11195.878412
528.242072	11267.848445
528.603995	11173.152891
528.965860	11107.892634
529.327669	11156.403657
529.689421	11108.404311
530.051117	11082.943963
530.412755	11196.957219
530.774337	11082.805332
531.135862	11065.143649
531.497331	11088.958060
531.858743	10943.266193
532.220098	11112.258273
532.581396	10987.270425
532.942638	10967.229318
533.303824	10931.056518
533.664953	10951.213572
534.026025	10863.573113
534.387040	10967.045316
534.747999	10967.776283
535.108902	11024.131342
535.469748	10789.531165
535.830537	10893.996476
536.191270	10872.004442
536.551947	10896.174254
536.912567	10892.907587
537.273131	10825.918214
537.633638	10804.513475
537.994089	10795.913266
538.354483	10742.439227
538.714821	10892.058152
539.075103	10891.821218
539.435328	10858.622699
539.795497	10694.560868
540.155609	10850.866884
540.515665	10939.487848
540.875665	10672.054637
541.235609	10748.670093
541.595496	10738.250028
541.955328	10891.851465
542.315102	10782.468509
542.674821	10726.267205
543.034483	10732.049409
543.394090	10736.750285
543.753640	10665.869141
544.113134	10880.261852
544.472571	10734.257434
544.831953	10883.639425
545.191278	10689.323109
545.550548	10715.413601
545.909761	10859.207473
546.268918	10832.469193
546.628019	10910.624722
546.987064	10774.488362
547.346053	10699.284429
547.704986	10796.624069
548.063863	10787.343305
548.422684	10776.787128
548.781449	10694.160096
549.140158	10796.435026
549.498811	10670.191930
549.857408	10535.338544
550.215949	10760.093347
550.574434	10609.955183
550.932864	10717.077182
551.291237	10770.510892
551.649555	10719.050793
552.007817	10732.044367
552.366022	10692.738491
552.724173	10684.864209
553.082267	10668.024234
553.440305	10809.065637
553.798288	10608.505851
554.156215	10764.438822
554.514086	10738.013094
554.871902	10590.624879
555.229661	10630.102154
555.587365	10606.930491
555.945014	10499.745478
556.302606	10620.370207
556.660143	10516.136789
557.017625	10672.331900
557.375050	10572.842208
557.732421	10705.389267
558.089735	10614.794691
558.446994	10622.270722
558.804197	10649.941615
559.161345	10657.384879
559.518437	10504.988278
559.875474	10597.508574
560.232455	10623.669642
560.589381	10575.919833
560.946251	10572.880017
561.303065	10674.297950
561.659825	10614.940884
562.016528	10543.106962
562.373177	10422.552809
562.729770	10537.135716
563.086307	10450.281676
563.442789	10541.750892
563.799216	10424.276884
564.155587	10477.229164
564.511904	10427.160424
564.868164	10424.095403
565.224370	10433.590416
565.580520	10359.790444
565.936615	10364.186330
566.292654	10231.919056
566.648638	10362.570640
567.004567	10319.138579
567.360441	10306.311363
567.716260	10211.719153
568.072023	10310.228340
568.427732	10265.263768
568.783385	10172.980406
569.138982	10241.235108
569.494525	10258.478375
569.850013	10139.348348
570.205445	10212.046828
570.560823	10112.312640
570.916145	10033.501761
571.271412	10104.145971
571.626625	10050.803001
571.981782	10020.873671
572.336884	9994.415175
572.691931	10000.918263
573.046923	9948.638978
573.401860	9906.144571
573.756743	9845.156692
574.111570	9882.486436
574.466342	9868.131751
574.821059	9896.591585
575.175722	9787.017065
575.530330	9796.161718
575.884882	9782.709399
576.239380	9716.352691
576.593823	9694.983239
576.948211	9712.478564
577.302544	9591.692518
577.656823	9608.023336
578.011047	9606.150547
578.365216	9583.175488
578.719330	9508.939457
579.073389	9518.817598
579.427394	9467.123086
579.781344	9442.555022
580.135239	9395.158094
580.489080	9401.804855
580.842866	9303.328435
581.196597	9307.855392
581.550273	9346.954581
581.903895	9317.642792
582.257463	9382.623265
582.610975	9259.344368
582.964434	9283.632647
583.317837	9211.032470
583.671186	9190.061270
584.024481	9182.812091
584.377721	9106.403322
584.730906	9083.294673
585.084037	9115.754663
585.437113	9052.102533
585.790135	9065.945542
586.143103	8964.262948
586.496016	8943.662273
586.848874	9000.823917
587.201679	8988.704983
587.554428	8873.970842
587.907124	8922.474303
588.259765	8897.187876
588.612352	8896.598061
588.964884	8770.392774
589.317362	8787.227707
589.669786	8785.221328
590.022155	8835.632867
590.374470	8848.520577
590.726731	8790.766597
591.078937	8638.773288
591.431090	8752.050536
591.783188	8628.587637
592.135232	8625.721741
592.487222	8617.444167
592.839157	8673.118670
593.191038	8600.412628
593.542866	8548.524032
593.894639	8447.910163
594.246358	8502.168102
594.598022	8519.055967
594.949633	8422.832943
595.301190	8391.008139
595.652692	8420.365298
596.004141	8524.697018
596.355535	8307.703071
596.706876	8291.362171
597.058162	8223.530926
597.409395	8305.464799
597.760573	8363.140640
598.111698	8271.210159
598.462768	8259.335721
598.813785	8225.134013
599.164748	8190.203857
599.515657	8179.065428
599.866511	8097.716328
600.217312	8216.916932
600.568060	8079.258144
600.918753	8179.279677
601.269392	8150.711458
601.619978	8059.983292
601.970510	8123.146429
602.320988	8126.019887
602.671412	8178.674739
603.021783	8114.233669
603.372100	8089.620235
603.722363	8088.619566
604.072572	8066.345228
604.422728	8083.848114
604.772830	8003.141762
605.122878	8017.561982
605.472872	8007.729212
605.822813	8034.918675
606.172701	7975.586815
606.522534	8051.977940
606.872314	8060.245432
607.222041	8025.113631
607.571714	8084.369874
607.921333	8042.051908
608.270899	8047.735809
608.620411	8135.673696
608.969870	8042.344295
609.319276	8036.635188
609.668627	8046.820839
610.017926	8082.844925
610.367171	8126.060216
610.716362	8109.593287
611.065500	8107.105477
611.414585	8128.805124
611.763616	8110.876261
612.112594	8098.835465
612.461518	8109.825180
612.810389	8172.753903
613.159207	8114.571426
613.507971	8062.304743
613.856682	8183.569699
614.205340	8134.690671
614.553945	8209.871919
614.902496	8109.439532
615.250994	8167.170826
615.599439	8145.249368
615.947830	8157.557345
616.296169	8132.374261
616.644454	8146.247517
616.992686	8143.858010
617.340864	8203.230199
617.688990	8107.884336
618.037063	8196.830454
618.385082	8143.807598
618.733048	8227.710042
619.080961	8169.635950
619.428821	8189.518261
619.776628	8190.924742
620.124382	8139.694017
620.472083	8127.310422
620.819731	8151.155080
621.167326	8045.038791
621.514868	8056.109165
621.862357	7947.434491
622.209793	7961.123744
622.557176	7891.770070
622.904506	7869.190742
623.251783	7805.778068
623.599007	7758.108917
623.946179	7761.322653
624.293297	7714.563430
624.640363	7633.519321
624.987376	7616.923842
625.334336	7564.155564
625.681243	7509.196905
626.028097	7503.815473
626.374899	7480.752194
626.721647	7476.734395
627.068343	7406.798468
627.414987	7373.705813
627.761577	7331.367682
628.108115	7365.145934
628.454600	7267.498784
628.801032	7313.481669
629.147412	7274.682428
629.493739	7261.542661
629.840014	7201.958743
630.186236	7256.052844
630.532405	7140.779300
630.878521	7186.590785
631.224585	7148.971175
631.570597	7077.187664
631.916556	7107.815195
632.262462	7098.179029
632.608316	7060.831641
632.954117	7038.554782
633.299866	7029.851230
633.645562	7023.300250
633.991206	6940.940399
634.336797	6885.391925
634.682336	6847.560586
635.027823	6808.307642
635.373257	6800.506456
635.718639	6736.476241
636.063968	6742.200471
636.409245	6643.343444
636.754470	6637.616693
637.099642	6595.928871
637.444762	6541.968361
637.789829	6547.357354
638.134845	6491.536657
638.479808	6479.306818
638.824719	6482.860832
639.169577	6406.578092
639.514383	6430.130362
639.859137	6363.582091
640.203839	6371.290015
640.548489	6354.480287
640.893086	6330.318037
641.237632	6307.572351
641.582125	6323.046172
641.926566	6296.179343
