Dividing Wavelength (nm)	Counts (n)	Blue Motor Position (mm): 4.000000	Red Motor Position (mm): 0.000000	
326.493990	2161.291368
326.888308	2161.291368
327.282561	2161.291368
327.676750	2135.815897
328.070874	2138.054169
328.464933	2140.312606
328.858929	2152.308032
329.252859	2162.536533
329.646726	2175.421722
330.040528	2189.799093
330.434265	2212.509491
330.827938	2229.122613
331.221547	2249.488875
331.615091	2267.823552
332.008571	2289.276182
332.401986	2309.022381
332.795338	2328.246822
333.188625	2350.637106
333.581847	2370.045549
333.975006	2386.933414
334.368100	2408.378483
334.761129	2423.529670
335.154095	2441.720674
335.546996	2458.215329
335.939833	2473.336270
336.332606	2486.108034
336.725315	2497.354848
337.117960	2503.545385
337.510540	2510.537465
337.903056	2522.248066
338.295508	2527.354754
338.687896	2535.624767
339.080220	2542.778165
339.472480	2550.775955
339.864676	2552.192519
340.256807	2554.990360
340.648875	2558.428427
341.040879	2558.630073
341.432818	2559.766853
341.824694	2562.358006
342.216506	2560.144940
342.608253	2559.663509
342.999937	2559.595454
343.391557	2558.030176
343.783113	2558.103272
344.174605	2556.207798
344.566033	2555.829712
344.957397	2552.376522
345.348697	2551.897612
345.739934	2550.518856
346.131106	2548.212528
346.522215	2549.049360
346.913260	2545.263453
347.304241	2542.942002
347.695159	2543.335212
348.086012	2541.956457
348.476802	2539.151054
348.867528	2535.793646
349.258191	2537.757175
349.648789	2535.866743
350.039324	2535.400436
350.429796	2533.026052
350.820203	2533.303316
351.210548	2529.880373
351.600828	2528.088242
351.991045	2529.330887
352.381198	2529.900537
352.771288	2528.305012
353.161314	2529.961031
353.551276	2528.068078
353.941175	2527.014477
354.331010	2529.587986
354.720782	2529.827440
355.110490	2530.145033
355.500135	2528.640249
355.889717	2529.028418
356.279235	2530.807945
356.668689	2529.867770
357.058080	2529.530012
357.447408	2527.750485
357.836672	2528.471370
358.225873	2528.337779
358.615010	2528.622605
359.004084	2530.076978
359.393095	2533.081505
359.782043	2533.134437
360.170927	2533.757020
360.559748	2535.634850
360.948505	2533.078985
361.337199	2536.280117
361.725830	2536.229706
362.114398	2539.080478
362.502903	2535.614685
362.891344	2538.180632
363.279722	2536.980838
363.668037	2536.632998
364.056289	2538.856147
364.444478	2539.408153
364.832603	2541.454862
365.220665	2540.416384
365.608665	2542.120294
365.996601	2543.814122
366.384474	2539.919830
366.772284	2543.698175
367.160031	2540.378575
367.547715	2539.453524
367.935336	2542.823535
368.322893	2544.396375
368.710388	2543.554502
369.097820	2545.397044
369.485189	2545.102137
369.872495	2544.161961
370.259738	2544.250182
370.646918	2542.190870
371.034035	2545.081972
371.421090	2543.872095
371.808081	2544.827394
372.195010	2547.199257
372.581875	2544.134235
372.968678	2546.324616
373.355418	2545.049204
373.742096	2549.959288
374.128710	2546.372507
374.515262	2546.458207
374.901751	2547.504246
375.288177	2549.472817
375.674540	2548.305790
376.060841	2547.766386
376.447079	2546.405275
376.833254	2546.246478
377.219367	2544.766900
377.605417	2545.875954
377.991404	2544.018288
378.377329	2543.889739
378.763191	2543.310006
379.148991	2549.324103
379.534727	2547.453835
379.920402	2548.237734
380.306013	2548.787220
380.691563	2552.310987
381.077049	2552.023641
381.462474	2550.108002
381.847835	2550.160934
382.233134	2551.915256
382.618371	2550.952396
383.003545	2554.203940
383.388657	2551.353167
383.773706	2552.028682
384.158693	2551.965667
384.543618	2551.080945
384.928480	2551.385935
385.313280	2553.170503
385.698017	2550.743188
386.082692	2551.544731
386.467305	2554.110678
386.851856	2549.109854
387.236344	2552.189999
387.620770	2552.278219
388.005133	2556.288457
388.389435	2553.382232
388.773674	2555.686039
389.157851	2552.802499
389.541965	2551.872406
389.926018	2554.065308
390.310008	2551.219577
390.693936	2556.936245
391.077802	2556.003632
391.461606	2557.306770
391.845348	2554.607232
392.229027	2554.703014
392.612645	2555.527243
392.996200	2558.778787
393.379694	2558.292316
393.763125	2555.678477
394.146494	2558.526729
394.529801	2554.067829
394.913047	2558.524209
395.296230	2556.974054
395.679351	2556.555638
396.062410	2557.198385
396.445408	2557.079918
396.828343	2556.648899
397.211217	2554.897098
397.594028	2556.482541
397.976778	2555.766698
398.359466	2554.889537
398.742092	2555.441543
399.124656	2560.303736
399.507158	2561.720300
399.889598	2558.877089
400.271977	2558.259548
400.654294	2560.649055
401.036549	2559.610577
401.418742	2559.391287
401.800874	2563.078891
402.182944	2562.887327
402.564952	2557.614280
402.946898	2562.156360
403.328783	2562.163922
403.710606	2559.857594
404.092367	2562.824313
404.474067	2563.199879
404.855705	2560.684343
405.237282	2563.751885
405.618797	2561.493448
406.000250	2562.572255
406.381642	2565.170970
406.762972	2560.202913
407.144240	2561.301884
407.525447	2564.036710
407.906593	2562.857080
408.287677	2563.701474
408.668700	2565.118038
409.049661	2565.854046
409.430560	2567.033676
409.811399	2566.373285
410.192176	2564.661813
410.572891	2564.954200
410.953545	2567.436969
411.334138	2562.973027
411.714669	2566.413614
412.095139	2565.075188
412.475547	2568.087277
412.855894	2565.889334
413.236180	2565.629715
413.616405	2565.322205
413.996568	2562.758778
414.376670	2568.223389
414.756711	2561.685012
415.136691	2565.362534
415.516609	2568.235992
415.896466	2564.132492
416.276262	2567.568039
416.655997	2562.801628
417.035670	2564.165260
417.415283	2561.644683
417.794834	2562.625187
418.174324	2564.913871
418.553753	2567.290775
418.933121	2568.656928
419.312428	2567.898234
419.691674	2567.626012
420.070859	2568.253636
420.449983	2565.158367
420.829045	2569.493759
421.208047	2567.333625
421.586988	2568.876218
421.965867	2567.850343
422.344686	2568.553584
422.723444	2568.344376
423.102141	2568.631722
423.480777	2567.462174
423.859352	2569.851681
424.237866	2569.125755
424.616319	2568.299006
424.994712	2570.247412
425.373044	2567.492421
425.751314	2572.485684
426.129524	2568.099880
426.507673	2569.241702
426.885762	2571.875705
427.263789	2571.918554
427.641756	2571.064079
428.019662	2574.348391
428.397508	2573.100705
428.775292	2571.903431
429.153016	2573.052814
429.530679	2571.540468
429.908282	2568.787998
430.285824	2572.465520
430.663305	2570.171795
431.040726	2572.468040
431.418086	2571.951322
431.795385	2572.190777
432.172624	2573.090623
432.549802	2573.241857
432.926920	2571.482495
433.303977	2572.150447
433.680974	2573.367886
434.057910	2573.380489
434.434786	2571.361507
434.811601	2573.115828
435.188355	2574.189594
435.565050	2571.358986
435.941683	2570.456620
436.318257	2571.923596
436.694770	2567.724314
437.071222	2570.910324
437.447614	2571.331260
437.823946	2569.826476
438.200218	2572.949470
438.576429	2573.289748
438.952580	2571.117011
439.328670	2572.969635
439.704700	2574.476940
440.080670	2573.617423
440.456580	2573.521641
440.832429	2574.673545
441.208218	2575.049111
441.583947	2574.933164
441.959616	2573.458627
442.335224	2575.704461
442.710773	2574.761765
443.086261	2570.746486
443.461689	2575.165057
443.837057	2575.764955
444.212365	2574.857547
444.587612	2573.314954
444.962800	2574.718915
445.337927	2576.594225
445.712995	2575.331416
446.088002	2576.216138
446.462949	2575.487691
446.837837	2576.606828
447.212664	2576.281673
447.587431	2574.587845
447.962139	2574.575242
448.336786	2576.926941
448.711374	2576.127918
449.085901	2576.523648
449.460369	2576.034657
449.834776	2577.501632
450.209124	2576.977352
450.583412	2574.996179
450.957640	2576.644636
451.331808	2577.037846
451.705917	2578.096488
452.079965	2577.849472
452.453954	2576.758062
452.827883	2576.821077
453.201752	2576.747980
453.575562	2578.789647
453.949311	2577.264698
454.323001	2579.356777
454.696632	2578.219997
455.070202	2579.185378
455.443713	2579.195460
455.817164	2575.114646
456.190556	2571.487536
456.563888	2575.641447
456.937160	2572.246229
457.310373	2580.004565
457.683526	2577.592373
458.056619	2577.035326
458.429653	2581.423650
458.802628	2580.072621
459.175542	2577.728484
459.548398	2581.453897
459.921194	2579.003896
460.293930	2577.441138
460.666607	2577.670511
461.039224	2578.111612
461.411782	2580.120512
461.784280	2577.284863
462.156719	2578.262847
462.529099	2578.280491
462.901419	2578.313258
463.273680	2579.074472
463.645882	2579.508012
464.018024	2582.205029
464.390106	2580.012127
464.762130	2578.575398
465.134094	2581.216963
465.505999	2581.970615
465.877845	2578.610686
466.249631	2582.159658
466.621358	2579.197981
466.993026	2584.513877
467.364634	2583.946748
467.736184	2580.637230
468.107674	2581.403485
468.479105	2579.760069
468.850477	2580.296952
469.221790	2579.921386
469.593043	2579.707137
469.964238	2577.589852
470.335373	2581.932807
470.706449	2580.208732
471.077467	2579.976839
471.448425	2581.383321
471.819324	2578.920717
472.190164	2581.101016
472.560945	2580.395255
472.931667	2580.188567
473.302330	2583.278795
473.672934	2581.406006
474.043479	2579.760069
474.413965	2582.053794
474.784393	2576.785788
475.154761	2576.372414
475.525070	2578.290573
475.895321	2577.579770
476.265513	2577.834348
476.635645	2580.241499
477.005719	2580.095306
477.375734	2582.210070
477.745691	2581.234607
478.115588	2580.929617
478.485427	2580.566654
478.855207	2581.234607
479.224928	2581.577405
479.594591	2582.356263
479.964194	2581.547158
480.333739	2582.129412
480.703226	2582.129412
481.072653	2583.190574
481.442022	2581.791654
481.811333	2581.103537
482.180584	2582.653692
482.549777	2581.685790
482.918912	2583.210739
483.287988	2583.414906
483.657005	2582.076479
484.025964	2580.896849
484.394864	2582.613362
484.763706	2583.268712
485.132489	2582.764597
485.501213	2585.436408
485.869879	2581.252251
486.238487	2578.966087
486.607036	2584.473548
486.975527	2583.908939
487.343959	2583.119998
487.712333	2582.562951
488.080648	2583.656881
488.448905	2583.119998
488.817104	2580.193608
489.185244	2581.191757
489.553326	2584.080338
489.921350	2584.869279
490.289315	2583.155286
490.657222	2584.594536
491.025070	2584.488672
491.392861	2584.755853
491.760593	2580.543969
492.128267	2586.812643
492.495883	2581.579926
492.863440	2585.948086
493.230939	2582.439442
493.598380	2584.211408
493.965763	2580.601942
494.333088	2580.125553
494.700354	2581.721078
495.067563	2580.617065
495.434713	2578.948443
495.801805	2584.014803
496.168839	2581.600090
496.535815	2584.902046
496.902733	2585.330544
497.269593	2585.880030
497.636395	2583.452714
498.003139	2585.958168
498.369825	2583.866089
498.736453	2587.120154
499.103023	2583.578743
499.469535	2582.323496
499.835989	2587.258786
500.202385	2584.670153
500.568723	2583.641758
500.935003	2584.584453
501.301226	2581.068249
501.667390	2582.633527
502.033497	2584.854155
502.399546	2584.957499
502.765537	2584.604618
503.131470	2583.031778
503.497345	2583.815677
503.863163	2585.209557
504.228923	2584.171079
504.594625	2584.871799
504.960269	2586.545462
505.325856	2584.523960
505.691385	2581.915162
506.056856	2586.981522
506.422270	2583.971953
506.787625	2583.372056
507.152924	2585.764083
507.518164	2583.581264
507.883347	2584.390369
508.248472	2586.406831
508.613540	2583.311562
508.978550	2585.398600
509.343503	2584.743250
509.708398	2587.609146
510.073236	2585.393559
510.438016	2585.822057
510.802738	2585.733837
511.167403	2583.931624
511.532010	2586.190061
511.896561	2583.374577
512.261053	2585.421285
512.625488	2582.958681
512.989866	2581.811819
513.354186	2585.350709
513.718449	2583.548496
514.082655	2581.345512
514.446803	2584.738209
514.810894	2586.913467
515.174927	2588.292222
515.538904	2585.973291
515.902822	2586.076635
516.266684	2584.576892
516.630488	2584.445822
516.994235	2585.552355
517.357925	2586.757191
517.721558	2587.863724
518.085133	2587.256265
518.448651	2586.530339
518.812112	2586.883220
519.175516	2586.046388
519.538863	2585.486820
519.902152	2585.784248
520.265385	2586.568147
520.628560	2588.521595
520.991678	2588.148549
521.354739	2586.091758
521.717743	2585.275092
522.080690	2584.934814
522.443580	2585.610328
522.806413	2584.113106
523.169189	2586.076635
523.531908	2587.175607
523.894569	2584.014803
524.257174	2586.253075
524.619722	2587.780545
524.982213	2586.167376
525.344647	2585.423806
525.707025	2587.876327
526.069345	2586.590833
526.431608	2587.180648
526.793815	2584.244176
527.155964	2587.014290
527.518057	2587.120154
527.880093	2587.725092
528.242072	2586.598394
528.603995	2587.074783
528.965860	2585.849783
529.327669	2586.361460
529.689421	2586.147211
530.051117	2588.796337
530.412755	2586.462283
530.774337	2588.065370
531.135862	2585.630493
531.497331	2583.709813
531.858743	2582.550348
532.220098	2585.759042
532.581396	2583.293918
532.942638	2581.504308
533.303824	2586.648806
533.664953	2586.621080
534.026025	2588.708117
534.387040	2587.188209
534.747999	2587.324321
535.108902	2586.651327
535.469748	2587.790627
535.830537	2586.144691
536.191270	2587.772983
536.551947	2586.409351
536.912567	2587.820874
537.273131	2587.478076
537.633638	2587.316759
537.994089	2585.489341
538.354483	2585.370873
538.714821	2587.778024
539.075103	2587.931780
539.435328	2588.622418
539.795497	2586.298446
540.155609	2587.788107
540.515665	2586.921028
540.875665	2589.008066
541.235609	2587.924218
541.595496	2587.987232
541.955328	2586.832808
542.315102	2589.393714
542.674821	2586.084197
543.034483	2588.093097
543.394090	2587.899012
543.753640	2588.274578
544.113134	2587.213415
544.472571	2586.026223
544.831953	2586.971440
545.191278	2587.702407
545.550548	2586.253075
545.909761	2589.880186
546.268918	2587.604105
546.628019	2587.984712
546.987064	2585.403641
547.346053	2588.617377
547.704986	2588.367839
548.063863	2584.627303
548.422684	2589.799527
548.781449	2587.420102
549.140158	2587.997315
549.498811	2587.662078
549.857408	2588.730802
550.215949	2584.738209
550.574434	2586.986563
550.932864	2584.518918
551.291237	2582.575554
551.649555	2589.219794
552.007817	2585.353229
552.366022	2587.838518
552.724173	2587.778024
553.082267	2588.869434
553.440305	2587.846080
553.798288	2586.852973
554.156215	2587.525967
554.514086	2588.468662
554.871902	2587.377253
555.229661	2588.708117
555.587365	2584.816347
555.945014	2587.281471
556.302606	2586.910946
556.660143	2588.753488
557.017625	2586.921028
557.375050	2586.338775
557.732421	2590.507809
558.089735	2590.601071
558.446994	2587.321800
558.804197	2586.971440
559.161345	2587.841039
559.518437	2591.173242
559.875474	2590.177614
560.232455	2587.498240
560.589381	2586.686615
560.946251	2589.865062
561.303065	2587.238621
561.659825	2587.273909
562.016528	2587.072263
562.373177	2587.314238
562.729770	2588.249372
563.086307	2586.719382
563.442789	2590.001173
563.799216	2585.995977
564.155587	2585.988415
564.511904	2588.083014
564.868164	2588.705597
565.224370	2590.878334
565.580520	2588.466142
565.936615	2589.071080
566.292654	2587.316759
566.648638	2591.130392
567.004567	2588.433374
567.360441	2589.912953
567.716260	2588.687953
568.072023	2589.892788
568.427732	2583.752663
568.783385	2584.009762
569.138982	2584.158476
569.494525	2584.430698
569.850013	2584.700400
570.205445	2589.272727
570.560823	2588.982860
570.916145	2589.096286
571.271412	2584.927252
571.626625	2589.091245
571.981782	2587.316759
572.336884	2587.077304
572.691931	2587.137798
573.046923	2588.002356
573.401860	2587.241142
573.756743	2588.231728
574.111570	2586.966399
574.466342	2590.510330
574.821059	2588.246852
575.175722	2588.350195
575.530330	2586.260637
575.884882	2589.083683
576.239380	2587.962027
576.593823	2591.032089
576.948211	2589.199630
577.302544	2585.912797
577.656823	2586.822726
578.011047	2589.083683
578.365216	2588.451018
578.719330	2589.030751
579.073389	2585.743919
579.427394	2587.430185
579.781344	2588.708117
580.135239	2588.967737
580.489080	2587.233580
580.842866	2589.146698
581.196597	2588.604774
581.550273	2587.241142
581.903895	2585.963209
582.257463	2589.330700
582.610975	2587.911615
582.964434	2588.438416
583.317837	2587.765422
583.671186	2588.824064
584.024481	2589.060998
584.377721	2587.737695
584.730906	2588.778693
585.084037	2589.532346
585.437113	2589.423961
585.790135	2587.931780
586.143103	2586.734506
586.496016	2588.813982
586.848874	2585.645616
587.201679	2586.003538
587.554428	2583.122519
587.907124	2590.727099
588.259765	2584.387848
588.612352	2589.403797
588.964884	2590.154928
589.317362	2587.969588
589.669786	2586.225349
590.022155	2588.370360
590.374470	2587.014290
590.726731	2588.723241
591.078937	2590.212902
591.431090	2591.117789
591.783188	2585.917839
592.135232	2586.230390
592.487222	2588.622418
592.839157	2589.013107
593.191038	2588.292222
593.542866	2588.713158
593.894639	2586.656368
594.246358	2589.600402
594.598022	2587.384814
594.949633	2589.126533
595.301190	2584.105544
595.652692	2588.083014
596.004141	2585.454052
596.355535	2589.968406
596.706876	2588.125864
597.058162	2589.360947
597.409395	2588.549321
597.760573	2586.726944
598.111698	2587.178127
598.462768	2588.957654
598.813785	2589.461770
599.164748	2586.731985
599.515657	2587.838518
599.866511	2588.128385
600.217312	2588.541759
600.568060	2587.246183
600.918753	2589.610484
601.269392	2588.783735
601.619978	2587.833477
601.970510	2591.382449
602.320988	2586.144691
602.671412	2588.859352
603.021783	2587.266347
603.372100	2589.285329
603.722363	2587.778024
604.072572	2588.899681
604.422728	2588.458580
604.772830	2586.958837
605.122878	2584.602097
605.472872	2583.266192
605.822813	2585.113775
606.172701	2587.856162
606.522534	2589.088724
606.872314	2587.662078
607.222041	2587.851121
607.571714	2590.475042
607.921333	2587.558734
608.270899	2585.544793
608.620411	2588.224167
608.969870	2586.666450
609.319276	2590.525453
609.668627	2587.369691
610.017926	2589.618046
610.367171	2587.415061
610.716362	2590.016297
611.065500	2588.909763
611.414585	2587.788107
611.763616	2588.965216
612.112594	2586.731985
612.461518	2588.025041
612.810389	2588.393045
613.159207	2588.950093
613.507971	2587.800710
613.856682	2589.391194
614.205340	2586.858014
614.553945	2592.294898
614.902496	2588.435895
615.250994	2588.743405
615.599439	2586.638724
615.947830	2587.999835
616.296169	2587.314238
616.644454	2586.066553
616.992686	2587.422623
617.340864	2589.870103
617.688990	2587.168045
618.037063	2588.309866
618.385082	2584.574371
618.733048	2589.224836
619.080961	2589.000504
619.428821	2586.290884
619.776628	2589.479414
620.124382	2590.099476
620.472083	2587.546131
620.819731	2588.002356
621.167326	2585.232242
621.514868	2586.817685
621.862357	2590.054105
622.209793	2586.326172
622.557176	2586.981522
622.904506	2585.985894
623.251783	2581.524473
623.599007	2585.761563
623.946179	2582.736871
624.293297	2584.017324
624.640363	2587.147880
624.987376	2587.382294
625.334336	2586.825246
625.681243	2587.266347
626.028097	2588.377922
626.374899	2588.592171
626.721647	2586.187540
627.068343	2586.961357
627.414987	2587.626790
627.761577	2587.412541
628.108115	2588.632500
628.454600	2590.996801
628.801032	2587.591502
629.147412	2587.329362
629.493739	2587.715010
629.840014	2590.810278
630.186236	2588.473704
630.532405	2590.885896
630.878521	2584.531521
631.224585	2591.994950
631.570597	2587.309197
631.916556	2590.217943
632.262462	2588.264496
632.608316	2587.344485
632.954117	2587.039495
633.299866	2587.732654
633.645562	2585.897674
633.991206	2588.377922
634.336797	2588.183837
634.682336	2588.602253
635.027823	2585.680904
635.373257	2589.247521
635.718639	2587.843559
636.063968	2586.810123
636.409245	2586.593353
636.754470	2585.912797
637.099642	2589.101327
637.444762	2588.594691
637.789829	2589.106368
638.134845	2586.651327
638.479808	2587.036975
638.824719	2587.122674
639.169577	2589.406317
639.514383	2590.689291
639.859137	2588.420772
640.203839	2587.578899
640.548489	2589.008066
640.893086	2585.277612
641.237632	2587.921697
641.582125	2585.101172
641.926566	2584.294587
642.270955	2588.216605
642.615292	2587.800710
642.959576	2588.133426
643.303809	2587.440267
643.647990	2586.222828
643.992118	2587.021851
644.336195	2587.669640
