Dividing Wavelength (nm)	Counts (n)	Blue Motor Position (mm): 2.600000	Red Motor Position (mm): 0.000000	
326.493990	2064.317212
326.888308	2064.317212
327.282561	2064.317212
327.676750	2039.630682
328.070874	2040.714530
328.464933	2046.037988
328.858929	2055.233053
329.252859	2066.623540
329.646726	2079.092834
330.040528	2094.949783
330.434265	2111.401589
330.827938	2134.691720
331.221547	2155.063022
331.615091	2174.547082
332.008571	2194.013498
332.401986	2214.644420
332.795338	2234.136041
333.188625	2256.564134
333.581847	2274.873605
333.975006	2291.128806
334.368100	2309.302165
334.761129	2329.141626
335.154095	2340.574963
335.546996	2355.360668
335.939833	2371.694006
336.332606	2386.230173
336.725315	2394.749723
337.117960	2404.509397
337.510540	2416.512384
337.903056	2422.997829
338.295508	2431.101483
338.687896	2437.884356
339.080220	2446.202260
339.472480	2447.999431
339.864676	2451.681994
340.256807	2451.956737
340.648875	2455.800617
341.040879	2455.838425
341.432818	2459.778087
341.824694	2457.935545
342.216506	2458.643828
342.608253	2457.050823
342.999937	2458.986626
343.391557	2457.562500
343.783113	2454.131995
344.174605	2454.646193
344.566033	2452.818774
344.957397	2451.994546
345.348697	2450.184771
345.739934	2450.991356
346.131106	2444.208483
346.522215	2446.323248
346.913260	2442.882660
347.304241	2439.855447
347.695159	2438.375868
348.086012	2438.779161
348.476802	2435.416711
348.867528	2432.616350
349.258191	2430.836823
349.648789	2430.262131
350.039324	2425.800710
350.429796	2429.294230
350.820203	2429.188366
351.210548	2431.393870
351.600828	2428.669127
351.991045	2426.899682
352.381198	2429.054775
352.771288	2427.653334
353.161314	2427.315577
353.551276	2427.673499
353.941175	2428.026380
354.331010	2426.687953
354.720782	2429.747934
355.110490	2425.581420
355.500135	2427.958324
355.889717	2430.483942
356.279235	2425.099990
356.668689	2430.244487
357.058080	2431.749272
357.447408	2429.546288
357.836672	2431.139292
358.225873	2429.238777
358.615010	2429.906730
359.004084	2431.222471
359.393095	2433.571649
359.782043	2436.019129
360.170927	2432.371854
360.559748	2430.667944
360.948505	2434.010229
361.337199	2433.942174
361.725830	2435.434355
362.114398	2436.606423
362.502903	2435.179777
362.891344	2437.995261
363.279722	2436.578697
363.668037	2435.512493
364.056289	2437.407967
364.444478	2436.974428
364.832603	2439.638678
365.220665	2436.119952
365.608665	2440.714964
365.996601	2439.752103
366.384474	2438.035591
366.772284	2439.651280
367.160031	2439.386620
367.547715	2441.403081
367.935336	2438.912751
368.322893	2438.781681
368.710388	2437.271856
369.097820	2441.239244
369.485189	2435.015939
369.872495	2442.139090
370.259738	2439.704212
370.646918	2444.072372
371.034035	2441.937444
371.421090	2442.902825
371.808081	2443.066662
372.195010	2443.346446
372.581875	2442.154213
372.968678	2443.364090
373.355418	2445.904832
373.742096	2442.854934
374.128710	2444.894080
374.515262	2445.587239
374.901751	2443.447269
375.288177	2444.233689
375.674540	2446.555141
376.060841	2445.020109
376.447079	2442.769234
376.833254	2444.158072
377.219367	2444.846189
377.605417	2446.585387
377.991404	2443.608586
378.377329	2446.575305
378.763191	2444.851231
379.148991	2448.107816
379.534727	2446.255192
379.920402	2447.270984
380.306013	2448.264092
380.691563	2448.954730
381.077049	2446.182095
381.462474	2449.758794
381.847835	2449.060594
382.233134	2449.184102
382.618371	2450.265430
383.003545	2448.558999
383.388657	2449.836932
383.773706	2449.899946
384.158693	2449.375666
384.543618	2449.582353
384.928480	2453.441357
385.313280	2447.533124
385.698017	2448.773248
386.082692	2450.358691
386.467305	2450.872889
386.851856	2452.753239
387.236344	2450.101592
387.620770	2449.050512
388.005133	2448.667384
388.389435	2448.765687
388.773674	2449.819288
389.157851	2453.748867
389.541965	2453.363219
389.926018	2453.219546
390.310008	2453.574947
390.693936	2451.918928
391.077802	2453.375822
391.461606	2457.252469
391.845348	2454.530246
392.229027	2453.340534
392.612645	2452.516305
392.996200	2452.271809
393.379694	2455.271296
393.763125	2454.076542
394.146494	2452.806171
394.529801	2453.809361
394.913047	2455.704835
395.296230	2454.752057
395.679351	2458.404373
396.062410	2455.598971
396.445408	2455.412448
396.828343	2455.838425
397.211217	2457.862449
397.594028	2456.634928
397.976778	2454.820112
398.359466	2459.263889
398.742092	2457.857408
399.124656	2457.207099
399.507158	2457.426389
399.889598	2459.112655
400.271977	2457.491924
400.654294	2457.340689
401.036549	2459.586523
401.418742	2457.456636
401.800874	2459.357151
402.182944	2458.200206
402.564952	2458.469908
402.946898	2459.825978
403.328783	2461.091308
403.710606	2461.555094
404.092367	2462.349076
404.474067	2458.348920
404.855705	2461.207254
405.237282	2461.166925
405.618797	2460.294805
406.000250	2462.575928
406.381642	2459.926801
406.762972	2458.031327
407.144240	2456.864300
407.525447	2458.311111
407.906593	2456.829012
408.287677	2459.952007
408.668700	2463.190948
409.049661	2462.946452
409.430560	2462.144909
409.811399	2462.870835
410.192176	2462.659107
410.572891	2462.815382
410.953545	2461.086267
411.334138	2461.797069
411.714669	2460.302367
412.095139	2460.279682
412.475547	2463.407718
412.855894	2464.090794
413.236180	2463.299333
413.616405	2463.659776
413.996568	2463.899230
414.376670	2464.279837
414.756711	2464.110959
415.136691	2463.052317
415.516609	2463.697584
415.896466	2466.603809
416.276262	2462.994343
416.655997	2464.027780
417.035670	2461.333283
417.415283	2463.291771
417.794834	2466.984417
418.174324	2464.431072
418.553753	2464.347893
418.933121	2465.255301
419.312428	2464.912502
419.691674	2467.120528
420.070859	2465.711525
420.449983	2467.317133
420.829045	2464.491566
421.208047	2466.497945
421.586988	2464.771350
421.965867	2465.920733
422.344686	2464.902420
422.723444	2469.300827
423.102141	2464.869653
423.480777	2465.467029
423.859352	2467.496094
424.237866	2468.398460
424.616319	2467.092801
424.994712	2467.319653
425.373044	2464.940229
425.751314	2464.983078
426.129524	2465.015846
426.507673	2467.289406
426.885762	2462.364199
427.263789	2466.883593
427.641756	2469.169757
428.019662	2467.896865
428.397508	2468.630353
428.775292	2468.985755
429.153016	2467.980044
429.530679	2465.981227
429.908282	2469.167236
430.285824	2468.423666
430.663305	2468.408543
431.040726	2469.371403
431.418086	2470.460292
431.795385	2473.502628
432.172624	2468.496763
432.549802	2470.447689
432.926920	2471.206383
433.303977	2470.175467
433.680974	2472.333081
434.057910	2473.812659
434.434786	2470.719912
434.811601	2472.237299
435.188355	2470.520786
435.565050	2471.755869
435.941683	2472.549850
436.318257	2473.132104
436.694770	2467.914509
437.071222	2469.578090
437.447614	2470.863584
437.823946	2472.779223
438.200218	2468.985755
438.576429	2470.916517
438.952580	2469.089098
439.328670	2472.885087
439.704700	2472.620427
440.080670	2473.570684
440.456580	2468.620271
440.832429	2473.575725
441.208218	2471.786116
441.583947	2473.628657
441.959616	2472.277628
442.335224	2473.225365
442.710773	2476.663432
443.086261	2472.096147
443.461689	2474.430201
443.837057	2471.579428
444.212365	2472.257463
444.587612	2472.025570
444.962800	2467.760754
445.337927	2470.465333
445.712995	2467.866618
446.088002	2475.135962
446.462949	2471.912144
446.837837	2472.355766
447.212664	2473.966415
447.587431	2475.173771
447.962139	2473.850468
448.336786	2475.025057
448.711374	2473.013637
449.085901	2476.766776
449.460369	2472.559933
449.834776	2472.759058
450.209124	2474.916672
450.583412	2474.251240
450.957640	2474.193267
451.331808	2473.260653
451.705917	2476.799543
452.079965	2477.336426
452.453954	2474.621765
452.827883	2475.055304
453.201752	2473.656384
453.575562	2476.257619
453.949311	2474.036991
454.323001	2474.606641
454.696632	2473.517752
455.070202	2475.859368
455.443713	2475.947588
455.817164	2474.193267
456.190556	2477.326344
456.563888	2475.866930
456.937160	2475.027578
457.310373	2475.466158
457.683526	2475.014975
458.056619	2478.879019
458.429653	2474.566312
458.802628	2476.817187
459.175542	2476.812146
459.548398	2475.899697
459.921194	2474.962043
460.293930	2478.117805
460.666607	2475.317444
461.039224	2476.023205
461.411782	2475.650160
461.784280	2474.195787
462.156719	2475.438432
462.529099	2478.561426
462.901419	2476.192084
463.273680	2475.103195
463.645882	2473.215283
464.018024	2475.307362
464.390106	2471.667648
464.762130	2479.688124
465.134094	2475.304841
465.505999	2477.943885
465.877845	2477.439770
466.249631	2478.780717
466.621358	2477.815336
466.993026	2476.353401
467.364634	2479.587301
467.736184	2475.849286
468.107674	2480.217445
468.479105	2478.266519
468.850477	2479.146200
469.221790	2478.763073
469.593043	2477.482619
469.964238	2476.635706
470.335373	2479.657877
470.706449	2478.884060
471.077467	2479.536890
471.448425	2480.043526
471.819324	2477.538072
472.190164	2480.487147
472.560945	2477.548154
472.931667	2477.948926
473.302330	2480.159472
473.672934	2478.014461
474.043479	2478.236272
474.413965	2477.356591
474.784393	2478.415233
475.154761	2480.411530
475.525070	2478.397589
475.895321	2480.756849
476.265513	2479.620069
476.635645	2479.995635
477.005719	2479.572178
477.375734	2479.942703
477.745691	2479.080665
478.115588	2481.190388
478.485427	2479.388176
478.855207	2478.432877
479.224928	2484.298259
479.594591	2477.764924
479.964194	2479.804071
480.333739	2477.603607
480.703226	2480.000676
481.072653	2477.845583
481.442022	2478.256437
481.811333	2480.174596
482.180584	2475.398102
482.549777	2478.251395
482.918912	2476.993627
483.287988	2479.236941
483.657005	2481.097127
484.025964	2480.456900
484.394864	2481.039153
484.763706	2479.723412
485.132489	2480.101499
485.501213	2480.434215
485.869879	2482.538897
486.238487	2479.511684
486.607036	2482.637199
486.975527	2481.202991
487.343959	2479.388176
487.712333	2482.188537
488.080648	2479.269708
488.448905	2479.743577
488.817104	2480.603094
489.185244	2482.115440
489.553326	2481.843217
489.921350	2479.695686
490.289315	2481.888588
490.657222	2481.734833
491.025070	2481.084524
491.392861	2482.528814
491.760593	2479.972949
492.128267	2481.608804
492.495883	2479.267188
492.863440	2481.228197
493.230939	2481.465131
493.598380	2482.007055
493.965763	2482.095275
494.333088	2483.811788
494.700354	2482.254072
495.067563	2481.875985
495.434713	2481.923876
495.801805	2482.763228
496.168839	2479.811633
496.535815	2481.147538
496.902733	2482.271716
497.269593	2482.851448
497.636395	2485.573671
498.003139	2480.867754
498.369825	2482.420430
498.736453	2483.784062
499.103023	2481.737353
499.469535	2481.397075
499.835989	2481.082003
500.202385	2482.818681
500.568723	2479.234420
500.935003	2481.276088
501.301226	2475.758545
501.667390	2482.342292
502.033497	2482.521253
502.399546	2481.011427
502.765537	2479.884729
503.131470	2482.478403
503.497345	2482.518732
503.863163	2482.496047
504.228923	2484.177272
504.594625	2482.228866
504.960269	2483.526963
505.325856	2482.198619
505.691385	2481.760038
506.056856	2480.633341
506.422270	2486.062663
506.787625	2482.163331
507.152924	2482.785913
507.518164	2481.649133
507.883347	2482.823722
508.248472	2482.201139
508.613540	2484.643578
508.978550	2484.943527
509.343503	2481.777682
509.708398	2482.644761
510.073236	2485.646768
510.438016	2483.035450
510.802738	2483.007724
511.167403	2480.940851
511.532010	2482.485965
511.896561	2485.545945
512.261053	2483.479072
512.625488	2483.547127
512.989866	2484.141984
513.354186	2484.560399
513.718449	2483.348002
514.082655	2482.707775
514.446803	2485.351861
514.810894	2481.634010
515.174927	2481.548310
515.538904	2481.923876
515.902822	2481.114771
516.266684	2483.831953
516.630488	2482.400265
516.994235	2485.508136
517.357925	2485.480410
517.721558	2481.409678
518.085133	2481.389514
518.448651	2480.794657
518.812112	2482.052425
519.175516	2482.014617
519.538863	2478.266519
519.902152	2482.085193
520.265385	2483.652992
520.628560	2482.901860
520.991678	2483.642909
521.354739	2484.091572
521.717743	2481.545789
522.080690	2482.322127
522.443580	2484.522591
522.806413	2485.303970
523.169189	2486.685246
523.531908	2483.005203
523.894569	2483.534525
524.257174	2483.232055
524.619722	2483.763897
524.982213	2486.163486
525.344647	2482.581747
525.707025	2483.547128
526.069345	2483.196767
526.431608	2482.433033
526.793815	2486.385297
527.155964	2483.781541
527.518057	2485.482931
527.880093	2482.922024
528.242072	2485.450163
528.603995	2483.723568
528.965860	2483.867241
529.327669	2484.376397
529.689421	2484.668784
530.051117	2484.472179
530.412755	2485.084679
530.774337	2484.182313
531.135862	2484.404124
531.497331	2483.600060
531.858743	2484.502426
532.220098	2485.349340
532.581396	2486.486120
532.942638	2484.898157
533.303824	2486.302118
533.664953	2483.574854
534.026025	2486.118116
534.387040	2483.426140
534.747999	2486.644917
535.108902	2485.314052
535.469748	2485.490492
535.830537	2485.349340
536.191270	2486.725575
536.551947	2483.731130
536.912567	2479.791468
537.273131	2483.474031
537.633638	2481.006386
537.994089	2484.406644
538.354483	2484.404124
538.714821	2484.399083
539.075103	2484.061325
539.435328	2484.787251
539.795497	2484.903198
540.155609	2483.894967
540.515665	2486.823878
540.875665	2487.207005
541.235609	2484.220122
541.595496	2485.770276
541.955328	2485.278764
542.315102	2485.855976
542.674821	2483.126191
543.034483	2487.368322
543.394090	2483.451346
543.753640	2484.204998
544.113134	2483.519401
544.472571	2484.930924
544.831953	2486.118116
545.191278	2484.028558
545.550548	2484.197436
545.909761	2484.459576
546.268918	2486.707931
546.628019	2483.045533
546.987064	2485.069556
547.346053	2485.702221
547.704986	2486.907057
548.063863	2485.228352
548.422684	2485.278764
548.781449	2485.500575
549.140158	2484.368836
549.498811	2485.021665
549.857408	2487.096100
550.215949	2484.081490
550.574434	2481.001345
550.932864	2487.010400
551.291237	2486.317242
551.649555	2484.981336
552.007817	2485.664412
552.366022	2486.828919
552.724173	2485.064515
553.082267	2487.723723
553.440305	2484.404124
553.798288	2487.285143
554.156215	2484.313383
554.514086	2484.071408
554.871902	2483.095944
555.229661	2483.002683
555.587365	2480.267857
555.945014	2485.190544
556.302606	2486.231542
556.660143	2485.737509
557.017625	2484.257930
557.375050	2486.493682
557.732421	2485.160297
558.089735	2486.322283
558.446994	2487.201964
558.804197	2487.431337
559.161345	2485.538383
559.518437	2486.828919
559.875474	2486.644917
560.232455	2485.976964
560.589381	2484.499906
560.946251	2486.163486
561.303065	2486.539052
561.659825	2485.785400
562.016528	2485.089721
562.373177	2486.135760
562.729770	2484.462097
563.086307	2484.452015
563.442789	2483.405975
563.799216	2488.633652
564.155587	2483.446304
564.511904	2485.435040
564.868164	2486.090390
565.224370	2485.888743
565.580520	2483.199288
565.936615	2486.440750
566.292654	2485.266161
566.648638	2485.407313
567.004567	2484.192395
567.360441	2485.505616
567.716260	2484.683908
568.072023	2487.330513
568.427732	2483.801706
568.783385	2487.070894
569.138982	2485.467807
569.494525	2486.050060
569.850013	2485.258599
570.205445	2486.347488
570.560823	2486.092910
570.916145	2484.368836
571.271412	2485.881182
571.626625	2488.502582
571.981782	2488.714310
572.336884	2484.741881
572.691931	2479.927579
573.046923	2482.453197
573.401860	2480.623258
573.756743	2487.907726
574.111570	2485.276243
574.466342	2484.361274
574.821059	2485.989567
575.175722	2485.382108
575.530330	2485.810606
575.884882	2484.207519
576.239380	2483.332878
576.593823	2486.022334
576.948211	2486.496203
577.302544	2486.836480
577.656823	2485.341778
578.011047	2484.152066
578.365216	2485.855976
578.719330	2487.806902
579.073389	2484.273054
579.427394	2486.473517
579.781344	2487.451501
580.135239	2486.095431
580.489080	2484.159628
580.842866	2487.320431
581.196597	2488.459732
581.550273	2486.574340
581.903895	2481.886067
582.257463	2487.438898
582.610975	2484.424288
582.964434	2485.329175
583.317837	2488.447129
583.671186	2486.581902
584.024481	2486.798672
584.377721	2485.702221
584.730906	2483.100985
585.084037	2489.326810
585.437113	2487.648106
585.790135	2484.951089
586.143103	2487.005359
586.496016	2489.215905
586.848874	2484.603249
587.201679	2484.862869
587.554428	2487.212046
587.907124	2484.091572
588.259765	2485.379587
588.612352	2485.031747
588.964884	2487.254896
589.317362	2485.238435
589.669786	2488.041316
590.022155	2484.686428
590.374470	2479.912456
590.726731	2484.668784
591.078937	2479.037815
591.431090	2488.590802
591.783188	2482.922024
592.135232	2486.274392
592.487222	2486.118116
592.839157	2486.430668
593.191038	2485.424957
593.542866	2483.312714
593.894639	2484.666264
594.246358	2484.688949
594.598022	2485.243476
594.949633	2485.762715
595.301190	2486.299598
595.652692	2483.516881
596.004141	2487.610298
596.355535	2488.885709
596.706876	2487.438898
597.058162	2484.467138
597.409395	2485.319093
597.760573	2486.304639
598.111698	2486.546614
598.462768	2485.571151
598.813785	2487.978302
599.164748	2485.518219
599.515657	2484.499906
599.866511	2486.712972
600.217312	2486.102993
600.568060	2486.821357
600.918753	2485.210708
601.269392	2485.170379
601.619978	2484.885554
601.970510	2485.813126
602.320988	2486.760863
602.671412	2485.987046
603.021783	2486.849083
603.372100	2484.676346
603.722363	2485.881182
604.072572	2487.663230
604.422728	2484.361274
604.772830	2486.223980
605.122878	2485.069556
605.472872	2487.270020
605.822813	2484.600729
606.172701	2485.954278
606.522534	2484.618373
606.872314	2488.207674
607.222041	2484.973774
607.571714	2483.211891
607.921333	2481.008907
608.270899	2483.184164
608.620411	2478.896663
608.969870	2485.429998
609.319276	2483.201808
609.668627	2484.283136
610.017926	2485.518219
610.367171	2485.538383
610.716362	2485.356902
611.065500	2486.375215
611.414585	2484.835142
611.763616	2484.010914
612.112594	2487.322952
612.461518	2483.766418
612.810389	2483.910091
613.159207	2487.017962
613.507971	2486.352530
613.856682	2487.358240
614.205340	2486.513847
614.553945	2485.886223
614.902496	2484.928404
615.250994	2485.107365
615.599439	2485.465287
615.947830	2485.974443
616.296169	2485.939155
616.644454	2486.322283
616.992686	2487.786738
617.340864	2485.235914
617.688990	2484.847745
618.037063	2485.679536
618.385082	2485.813126
618.733048	2487.401090
619.080961	2486.334886
619.428821	2485.702221
619.776628	2484.986377
620.124382	2487.259937
620.472083	2488.726913
620.819731	2487.161635
621.167326	2483.020327
621.514868	2487.234732
621.862357	2486.392859
622.209793	2487.509474
622.557176	2486.009731
622.904506	2486.317242
623.251783	2485.820688
623.599007	2485.281284
623.946179	2485.918990
624.293297	2485.853455
624.640363	2485.135091
624.987376	2486.728096
625.334336	2482.044864
625.681243	2484.048722
626.028097	2480.537559
626.374899	2484.207519
626.721647	2486.382777
627.068343	2485.324134
627.414987	2484.648620
627.761577	2487.872438
628.108115	2484.094093
628.454600	2487.756491
628.801032	2483.816829
629.147412	2487.713641
629.493739	2487.897643
629.840014	2484.394041
630.186236	2486.322283
630.532405	2487.421254
630.878521	2482.652323
631.224585	2485.079638
631.570597	2484.961171
631.916556	2488.079125
632.262462	2484.794813
632.608316	2485.361943
632.954117	2486.062663
633.299866	2484.333547
633.645562	2484.547797
633.991206	2486.584423
634.336797	2484.280615
634.682336	2482.765749
635.027823	2483.773979
635.373257	2483.940337
635.718639	2484.467138
636.063968	2486.370174
636.409245	2484.570482
636.754470	2488.363950
637.099642	2481.029071
637.444762	2482.221304
637.789829	2487.023003
638.134845	2486.637355
638.479808	2486.344968
638.824719	2483.466469
639.169577	2488.469814
639.514383	2489.944352
639.859137	2485.563589
640.203839	2485.417396
640.548489	2484.164669
640.893086	2486.501244
641.237632	2486.198774
641.582125	2485.089721
641.926566	2486.007211
642.270955	2488.038796
642.615292	2480.855151
642.959576	2482.564103
643.303809	2479.851962
643.647990	2485.314052
643.992118	2482.647282
644.336195	2488.288333
