Dividing Wavelength (nm)	Counts (n)	Blue Motor Position (mm): 6.200000	Red Motor Position (mm): 0.000000	
326.493990	2062.053734
326.888308	2062.053734
327.282561	2062.053734
327.676750	2038.962729
328.070874	2040.583460
328.464933	2045.944727
328.858929	2054.819678
329.252859	2065.138920
329.646726	2077.721640
330.040528	2097.964393
330.434265	2112.533328
330.827938	2135.213479
331.221547	2156.343475
331.615091	2174.867195
332.008571	2196.728159
332.401986	2214.707434
332.795338	2236.883470
333.188625	2253.509195
333.581847	2274.712288
333.975006	2291.411110
334.368100	2306.763944
334.761129	2327.092397
335.154095	2340.635457
335.546996	2357.102386
335.939833	2377.483771
336.332606	2391.087325
336.725315	2402.404715
337.117960	2411.156158
337.510540	2420.951120
337.903056	2430.889755
338.295508	2436.815631
338.687896	2445.476334
339.080220	2446.948351
339.472480	2451.450101
339.864676	2457.524691
340.256807	2461.358489
340.648875	2462.485187
341.040879	2462.162553
341.432818	2462.366720
341.824694	2463.584158
342.216506	2462.744806
342.608253	2464.945270
342.999937	2463.006946
343.391557	2461.658437
343.783113	2461.310598
344.174605	2459.692388
344.566033	2459.316822
344.957397	2458.863118
345.348697	2455.825823
345.739934	2454.081583
346.131106	2451.790379
346.522215	2448.682508
346.913260	2446.270315
347.304241	2448.911880
347.695159	2445.541869
348.086012	2443.774944
348.476802	2442.847372
348.867528	2440.616661
349.258191	2434.917637
349.648789	2437.609613
350.039324	2431.913109
350.429796	2433.783377
350.820203	2434.365631
351.210548	2438.252360
351.600828	2434.219437
351.991045	2435.091557
352.381198	2431.706422
352.771288	2432.661721
353.161314	2433.795980
353.551276	2434.592483
353.941175	2431.272883
354.331010	2434.572318
354.720782	2431.328335
355.110490	2434.368151
355.500135	2432.722214
355.889717	2435.351176
356.279235	2435.588110
356.668689	2434.584921
357.058080	2434.524427
357.447408	2435.003337
357.836672	2434.463933
358.225873	2435.320929
358.615010	2438.070879
359.004084	2434.332863
359.393095	2437.254212
359.782043	2437.677669
360.170927	2437.758327
360.559748	2439.535334
360.948505	2436.306475
361.337199	2442.302927
361.725830	2438.612803
362.114398	2442.305448
362.502903	2439.996599
362.891344	2441.904676
363.279722	2441.156065
363.668037	2440.472988
364.056289	2443.674121
364.444478	2444.611776
364.832603	2443.648915
365.220665	2444.397527
365.608665	2447.117229
365.996601	2441.854265
366.384474	2445.902311
366.772284	2444.692434
367.160031	2446.625717
367.547715	2445.035233
367.935336	2445.970367
368.322893	2443.512804
368.710388	2442.320571
369.097820	2445.723350
369.485189	2440.568770
369.872495	2449.882302
370.259738	2446.320727
370.646918	2447.777620
371.034035	2446.807198
371.421090	2448.871551
371.808081	2450.061263
372.195010	2448.380038
372.581875	2449.320213
372.968678	2447.845676
373.355418	2448.649740
373.742096	2448.279215
374.128710	2450.630913
374.515262	2448.795933
374.901751	2450.900615
375.288177	2449.758794
375.674540	2447.523042
376.060841	2452.087807
376.447079	2450.683846
376.833254	2450.966150
377.219367	2453.355657
377.605417	2457.073508
377.991404	2449.511777
378.377329	2452.914556
378.763191	2455.064608
379.148991	2453.015379
379.534727	2450.328444
379.920402	2451.800461
380.306013	2451.800461
380.691563	2455.495627
381.077049	2454.573096
381.462474	2455.583847
381.847835	2452.433126
382.233134	2453.990842
382.618371	2455.407407
383.003545	2454.583178
383.388657	2454.331120
383.773706	2458.439661
384.158693	2453.466562
384.543618	2453.441357
384.928480	2457.065946
385.313280	2456.493775
385.698017	2455.518312
386.082692	2456.108127
386.467305	2457.267593
386.851856	2456.773559
387.236344	2457.711214
387.620770	2455.601491
388.005133	2453.655606
388.389435	2457.111317
388.773674	2453.539659
389.157851	2458.651389
389.541965	2457.532253
389.926018	2457.882613
390.310008	2459.768005
390.693936	2456.702983
391.077802	2458.923612
391.461606	2457.323045
391.845348	2457.938066
392.229027	2461.658437
392.612645	2460.725824
392.996200	2460.020063
393.379694	2458.159877
393.763125	2459.974692
394.146494	2460.935032
394.529801	2461.222378
394.913047	2461.955866
395.296230	2460.672892
395.679351	2460.239353
396.062410	2461.981071
396.445408	2459.727676
396.828343	2462.260855
397.211217	2462.028962
397.594028	2461.479477
397.976778	2458.638786
398.359466	2461.537450
398.742092	2460.458643
399.124656	2463.528706
399.507158	2463.614405
399.889598	2464.080712
400.271977	2463.964765
400.654294	2462.717080
401.036549	2464.226905
401.418742	2463.143057
401.800874	2464.554580
402.182944	2462.679271
402.564952	2465.575414
402.946898	2465.257821
403.328783	2464.423510
403.710606	2466.807976
404.092367	2465.008284
404.474067	2466.560960
404.855705	2465.162039
405.237282	2466.248408
405.618797	2464.940229
406.000250	2467.521299
406.381642	2465.651031
406.762972	2464.496607
407.144240	2461.930660
407.525447	2463.405197
407.906593	2461.514765
408.287677	2465.141875
408.668700	2467.934674
409.049661	2466.046762
409.430560	2469.888121
409.811399	2471.551702
410.192176	2468.156485
410.572891	2469.217648
410.953545	2468.262349
411.334138	2470.339304
411.714669	2469.026084
412.095139	2468.136320
412.475547	2468.438789
412.855894	2469.051290
413.236180	2468.373254
413.616405	2470.629171
413.996568	2468.005250
414.376670	2467.750672
414.756711	2470.107411
415.136691	2468.184211
415.516609	2469.464664
415.896466	2469.915847
416.276262	2469.961218
416.655997	2467.775878
417.035670	2471.292083
417.415283	2469.106742
417.794834	2471.332412
418.174324	2469.260497
418.553753	2471.760910
418.933121	2470.477936
419.312428	2466.593727
419.691674	2472.126393
420.070859	2471.597072
420.449983	2472.282669
420.829045	2470.372072
421.208047	2474.430201
421.586988	2471.576908
421.965867	2474.649491
422.344686	2468.463995
422.723444	2473.348873
423.102141	2469.779736
423.480777	2471.418111
423.859352	2473.437093
424.237866	2471.607155
424.616319	2470.908955
424.994712	2473.638740
425.373044	2471.254274
425.751314	2471.221506
426.129524	2470.757720
426.507673	2471.965077
426.885762	2466.316464
427.263789	2472.481795
427.641756	2472.484315
428.019662	2475.476240
428.397508	2472.726291
428.775292	2475.430870
429.153016	2475.352732
429.530679	2474.566312
429.908282	2473.996662
430.285824	2474.785602
430.663305	2472.340643
431.040726	2476.176961
431.418086	2476.522280
431.795385	2474.344501
432.172624	2475.980356
432.549802	2476.595376
432.926920	2476.048411
433.303977	2475.972794
433.680974	2474.394913
434.057910	2475.690489
434.434786	2475.254429
434.811601	2473.386682
435.188355	2475.171250
435.565050	2474.818370
435.941683	2477.646457
436.318257	2475.478761
436.694770	2474.478092
437.071222	2475.224183
437.447614	2477.608648
437.823946	2476.718885
438.200218	2477.013792
438.576429	2478.097640
438.952580	2477.059162
439.328670	2477.210397
439.704700	2476.237454
440.080670	2476.726446
440.456580	2475.272073
440.832429	2477.714513
441.208218	2476.335757
441.583947	2475.975314
441.959616	2475.587146
442.335224	2476.582773
442.710773	2478.879019
443.086261	2478.594194
443.461689	2478.584112
443.837057	2478.606797
444.212365	2477.086889
444.587612	2475.307362
444.962800	2474.573874
445.337927	2475.723257
445.712995	2471.498770
446.088002	2476.670994
446.462949	2476.260140
446.837837	2477.656539
447.212664	2478.178299
447.587431	2478.538741
447.962139	2477.041518
448.336786	2480.298104
448.711374	2480.134266
449.085901	2479.078145
449.460369	2478.405151
449.834776	2478.868937
450.209124	2481.170223
450.583412	2476.643267
450.957640	2479.526807
451.331808	2479.897332
451.705917	2477.439770
452.079965	2479.793988
452.453954	2478.674852
452.827883	2477.449852
453.201752	2480.207363
453.575562	2482.347333
453.949311	2479.156282
454.323001	2478.911787
454.696632	2478.495891
455.070202	2479.368011
455.443713	2480.217445
455.817164	2479.330202
456.190556	2479.415902
456.563888	2483.053094
456.937160	2481.903711
457.310373	2481.926397
457.683526	2479.826756
458.056619	2480.005717
458.429653	2480.419092
458.802628	2478.747949
459.175542	2482.619555
459.548398	2482.110399
459.921194	2481.437405
460.293930	2480.978660
460.666607	2481.429843
461.039224	2477.661580
461.411782	2480.872795
461.784280	2479.433546
462.156719	2480.774493
462.529099	2481.356746
462.901419	2482.969915
463.273680	2479.501602
463.645882	2475.357773
464.018024	2480.134266
464.390106	2476.454224
464.762130	2483.098465
465.134094	2481.676859
465.505999	2481.654174
465.877845	2481.639051
466.249631	2481.056797
466.621358	2482.359936
466.993026	2482.294401
467.364634	2484.767087
467.736184	2483.073259
468.107674	2483.385811
468.479105	2481.611324
468.850477	2480.686273
469.221790	2485.384628
469.593043	2483.342961
469.964238	2485.530822
470.335373	2483.436222
470.706449	2481.981849
471.077467	2482.327168
471.448425	2483.869761
471.819324	2481.639051
472.190164	2483.824391
472.560945	2480.910604
472.931667	2483.224494
473.302330	2485.087200
473.672934	2480.799699
474.043479	2484.197436
474.413965	2482.768269
474.784393	2483.781541
475.154761	2484.804895
475.525070	2481.780203
475.895321	2483.542086
476.265513	2482.377580
476.635645	2483.529483
477.005719	2483.784062
477.375734	2485.266161
477.745691	2483.491675
478.115588	2481.250882
478.485427	2482.659884
478.855207	2484.255410
479.224928	2483.476551
479.594591	2483.015286
479.964194	2485.036788
480.333739	2483.968064
480.703226	2483.645430
481.072653	2486.954947
481.442022	2484.419247
481.811333	2481.190388
482.180584	2479.355408
482.549777	2480.928248
482.918912	2479.579739
483.287988	2488.245483
483.657005	2486.312200
484.025964	2484.363794
484.394864	2487.307828
484.763706	2484.774648
485.132489	2485.036788
485.501213	2485.248517
485.869879	2484.343630
486.238487	2483.617704
486.607036	2486.196254
486.975527	2484.625934
487.343959	2485.780359
487.712333	2483.753815
488.080648	2485.213229
488.448905	2485.755153
488.817104	2484.396562
489.185244	2484.187354
489.553326	2481.107209
489.921350	2487.335555
490.289315	2485.014103
490.657222	2486.531491
491.025070	2484.036119
491.392861	2488.583240
491.760593	2486.861686
492.128267	2488.489979
492.495883	2485.041830
492.863440	2485.727427
493.230939	2487.378404
493.598380	2487.529639
493.965763	2484.076449
494.333088	2488.885709
494.700354	2482.188537
495.067563	2488.066522
495.434713	2484.431850
495.801805	2486.546614
496.168839	2487.680874
496.535815	2486.034937
496.902733	2488.552993
497.269593	2487.126347
497.636395	2486.947386
498.003139	2486.927221
498.369825	2488.767242
498.736453	2486.413023
499.103023	2487.333034
499.469535	2486.478558
499.835989	2485.513177
500.202385	2485.351861
500.568723	2483.562251
500.935003	2481.397075
501.301226	2483.426140
501.667390	2486.612149
502.033497	2486.082828
502.399546	2486.317242
502.765537	2485.341778
503.131470	2488.426964
503.497345	2488.179948
503.863163	2488.426964
504.228923	2487.554845
504.594625	2488.847901
504.960269	2487.249855
505.325856	2485.520739
505.691385	2487.189361
506.056856	2486.470997
506.422270	2487.564927
506.787625	2489.992243
507.152924	2486.405462
507.518164	2489.069712
507.883347	2489.934269
508.248472	2486.750781
508.613540	2487.655668
508.978550	2487.640544
509.343503	2487.375884
509.708398	2486.629793
510.073236	2485.770276
510.438016	2485.165338
510.802738	2487.627942
511.167403	2487.975781
511.532010	2486.869248
511.896561	2487.920328
512.261053	2489.397387
512.625488	2485.835811
512.989866	2487.504433
513.354186	2487.393528
513.718449	2487.910246
514.082655	2487.010400
514.446803	2489.092397
514.810894	2490.214053
515.174927	2488.631131
515.538904	2488.855462
515.902822	2491.038282
516.266684	2487.580051
516.630488	2488.331183
516.994235	2487.461583
517.357925	2488.500061
517.721558	2486.833960
518.085133	2487.920328
518.448651	2487.065853
518.812112	2485.540904
519.175516	2485.130050
519.538863	2484.421768
519.902152	2487.123826
520.265385	2490.360247
520.628560	2488.268168
520.991678	2490.009887
521.354739	2487.958137
521.717743	2489.601553
522.080690	2488.439567
522.443580	2490.062819
522.806413	2486.866727
523.169189	2489.258755
523.531908	2490.309835
523.894569	2487.569968
524.257174	2486.657519
524.619722	2490.950062
524.982213	2487.958137
525.344647	2488.094248
525.707025	2490.077942
526.069345	2487.622900
526.431608	2488.013590
526.793815	2489.430154
527.155964	2491.310504
527.518057	2487.464104
527.880093	2489.049547
528.242072	2487.474186
528.603995	2489.830926
528.965860	2489.409989
529.327669	2488.124495
529.689421	2488.311018
530.051117	2488.910915
530.412755	2488.729434
530.774337	2490.927377
531.135862	2489.092397
531.497331	2487.693477
531.858743	2490.070381
532.220098	2487.446460
532.581396	2487.416213
532.942638	2490.012407
533.303824	2486.604587
533.664953	2488.671460
534.026025	2487.494351
534.387040	2489.725062
534.747999	2487.726244
535.108902	2490.957624
535.469748	2490.214053
535.830537	2489.904023
536.191270	2487.007880
536.551947	2486.133239
536.912567	2485.125009
537.273131	2487.537201
537.633638	2484.152066
537.994089	2490.566934
538.354483	2491.529795
538.714821	2488.656337
539.075103	2489.331852
539.435328	2487.353199
539.795497	2488.963847
540.155609	2489.324290
540.515665	2488.560555
540.875665	2489.425113
541.235609	2490.506440
541.595496	2490.224136
541.955328	2487.695997
542.315102	2487.416213
542.674821	2492.958962
543.034483	2489.745226
543.394090	2489.624238
543.753640	2490.632469
544.113134	2487.035606
544.472571	2491.703714
544.831953	2488.696666
545.191278	2490.849239
545.550548	2487.169197
545.909761	2492.016266
546.268918	2487.834629
546.628019	2490.241780
546.987064	2489.614156
547.346053	2489.107520
547.704986	2490.098107
548.063863	2491.103817
548.422684	2489.999804
548.781449	2490.196409
549.140158	2487.711121
549.498811	2488.474855
549.857408	2487.552324
550.215949	2490.244300
550.574434	2489.198261
550.932864	2489.939311
551.291237	2492.371667
551.649555	2489.687253
552.007817	2489.717500
552.366022	2488.613487
552.724173	2489.785555
553.082267	2489.752788
553.440305	2487.690956
553.798288	2490.387973
554.156215	2490.249342
554.514086	2486.062663
554.871902	2485.377066
555.229661	2489.566265
555.587365	2484.630976
555.945014	2491.481904
556.302606	2490.173724
556.660143	2490.166163
557.017625	2492.381750
557.375050	2487.857314
557.732421	2489.798158
558.089735	2491.532315
558.446994	2489.057109
558.804197	2491.819661
559.161345	2489.871255
559.518437	2488.464773
559.875474	2490.682881
560.232455	2490.745895
560.589381	2492.409476
560.946251	2490.571975
561.303065	2490.198930
561.659825	2489.813282
562.016528	2491.048364
562.373177	2489.800679
562.729770	2489.160452
563.086307	2491.340751
563.442789	2489.614156
563.799216	2491.555000
564.155587	2490.423261
564.511904	2490.763539
564.868164	2489.430154
565.224370	2491.123982
565.580520	2491.040803
565.936615	2492.837974
566.292654	2489.951913
566.648638	2489.755308
567.004567	2492.772439
567.360441	2491.446616
567.716260	2489.440236
568.072023	2491.996101
568.427732	2492.787563
568.783385	2490.481235
569.138982	2491.769249
569.494525	2492.643890
569.850013	2492.147336
570.205445	2491.378560
570.560823	2492.525423
570.916145	2493.208499
571.271412	2495.522388
571.626625	2493.652120
571.981782	2493.611791
572.336884	2490.813951
572.691931	2489.707418
573.046923	2487.930411
573.401860	2484.971253
573.756743	2491.812099
574.111570	2491.653303
574.466342	2492.154898
574.821059	2491.645741
575.175722	2491.965854
575.530330	2492.817809
575.884882	2492.659013
576.239380	2494.872080
576.593823	2493.730258
576.948211	2492.497696
577.302544	2492.626246
577.656823	2490.468632
578.011047	2494.627584
578.365216	2492.777480
578.719330	2494.400732
579.073389	2491.822182
579.427394	2494.688078
579.781344	2490.602222
580.135239	2492.956441
580.489080	2494.693119
580.842866	2492.538025
581.196597	2494.463746
581.550273	2493.745382
581.903895	2492.807727
582.257463	2494.625063
582.610975	2493.944507
582.964434	2494.549446
583.317837	2495.101452
583.671186	2495.537512
584.024481	2493.826040
584.377721	2494.509117
584.730906	2494.519199
585.084037	2495.439209
585.437113	2494.957779
585.790135	2495.076246
586.143103	2496.142450
586.496016	2498.360558
586.848874	2494.582213
587.201679	2496.177738
587.554428	2494.693119
587.907124	2495.527430
588.259765	2497.952225
588.612352	2497.241422
588.964884	2497.584220
589.317362	2495.426607
589.669786	2492.772439
590.022155	2496.817965
590.374470	2493.296719
590.726731	2493.820999
591.078937	2493.538694
591.431090	2496.565907
591.783188	2496.013901
592.135232	2496.628922
592.487222	2495.300578
592.839157	2495.018273
593.191038	2497.201093
593.542866	2499.265445
593.894639	2497.163284
594.246358	2497.206134
594.598022	2495.572800
594.949633	2496.616319
595.301190	2498.746206
595.652692	2496.664210
596.004141	2497.165805
596.355535	2497.319560
596.706876	2496.460043
597.058162	2497.443068
597.409395	2496.528099
597.760573	2497.548932
598.111698	2496.311329
598.462768	2497.740496
598.813785	2496.230671
599.164748	2495.227481
599.515657	2499.837616
599.866511	2497.236381
600.217312	2496.334014
600.568060	2498.625219
600.918753	2499.688902
601.269392	2498.771412
601.619978	2498.600013
601.970510	2497.916937
602.320988	2497.168325
602.671412	2499.169663
603.021783	2498.857112
603.372100	2499.547750
603.722363	2500.114880
604.072572	2501.501197
604.422728	2500.324088
604.772830	2497.503562
605.122878	2499.283089
605.472872	2500.049345
605.822813	2497.924498
606.172701	2499.502379
606.522534	2500.772750
606.872314	2499.242760
607.222041	2501.223933
607.571714	2497.778305
607.921333	2494.511637
608.270899	2498.136227
608.620411	2496.099601
608.969870	2500.576145
609.319276	2501.208810
609.668627	2498.342914
610.017926	2498.637822
610.367171	2501.647390
610.716362	2500.051865
611.065500	2501.899448
611.414585	2499.295692
611.763616	2499.804849
612.112594	2498.652945
612.461518	2500.503048
612.810389	2500.180415
613.159207	2499.804849
613.507971	2499.482215
613.856682	2502.073368
614.205340	2500.676968
614.553945	2501.614623
614.902496	2498.443737
615.250994	2503.951198
615.599439	2499.628408
615.947830	2501.115549
616.296169	2500.886176
616.644454	2499.978768
616.992686	2500.934067
617.340864	2501.788543
617.688990	2500.676968
618.037063	2501.970024
618.385082	2502.338028
618.733048	2503.421877
619.080961	2502.154026
619.428821	2501.138234
619.776628	2500.649242
620.124382	2503.459685
620.472083	2500.848367
620.819731	2502.406084
621.167326	2501.533964
621.514868	2502.718636
621.862357	2502.887514
622.209793	2501.647390
622.557176	2502.237205
622.904506	2500.787874
623.251783	2502.317864
623.599007	2501.526403
623.946179	2501.995230
624.293297	2506.242402
624.640363	2500.871053
624.987376	2503.331136
625.334336	2497.848881
625.681243	2503.943636
626.028097	2496.449961
626.374899	2505.461023
626.721647	2502.325426
627.068343	2505.196363
627.414987	2504.465395
627.761577	2500.976917
628.108115	2504.861126
628.454600	2503.036228
628.801032	2504.293996
629.147412	2504.021774
629.493739	2501.821310
629.840014	2502.476660
630.186236	2506.554954
630.532405	2504.593945
630.878521	2504.757782
631.224585	2505.786178
631.570597	2505.471106
631.916556	2505.773575
632.262462	2509.083092
632.608316	2503.734428
632.954117	2506.038235
633.299866	2506.156703
633.645562	2507.222907
633.991206	2507.021260
634.336797	2505.292145
634.682336	2507.197701
635.027823	2505.229130
635.373257	2505.340036
635.718639	2505.340036
636.063968	2506.988493
636.409245	2507.071672
636.754470	2506.786847
637.099642	2507.968997
637.444762	2508.299193
637.789829	2508.188288
638.134845	2507.394306
638.479808	2508.541168
638.824719	2509.529234
639.169577	2507.333812
639.514383	2506.660818
639.859137	2510.318175
640.203839	2508.410098
640.548489	2510.008144
640.893086	2509.267094
641.237632	2508.750376
641.582125	2513.030316
641.926566	2509.025119
642.270955	2508.720129
642.615292	2508.082423
642.959576	2511.727178
643.303809	2506.645694
643.647990	2514.305728
643.992118	2512.599297
644.336195	2513.549555
