Dividing Wavelength (nm)	Counts (n)	Blue Motor Position (mm): 45.500000	Red Motor Position (mm): 0.000000	
326.493990	2128.964969
326.888308	2128.964969
327.282561	2128.964969
327.676750	2095.506831
328.070874	2096.399115
328.464933	2097.533375
328.858929	2106.128542
329.252859	2115.520212
329.646726	2124.962293
330.040528	2137.250105
330.434265	2155.428506
330.827938	2171.199756
331.221547	2192.362520
331.615091	2209.532690
332.008571	2230.168653
332.401986	2249.907291
332.795338	2268.846906
333.188625	2287.756274
333.581847	2304.646660
333.975006	2322.152067
334.368100	2343.400530
334.761129	2359.239835
335.154095	2378.353370
335.546996	2398.885990
335.939833	2426.135947
336.332606	2439.384099
336.725315	2451.485389
337.117960	2461.350927
337.510540	2468.279993
337.903056	2481.729792
338.295508	2486.801192
338.687896	2498.075733
339.080220	2507.578308
339.472480	2513.463855
339.864676	2517.030471
340.256807	2520.927283
340.648875	2521.895185
341.040879	2525.345855
341.432818	2528.214271
341.824694	2528.796524
342.216506	2530.702081
342.608253	2529.363654
342.999937	2530.240815
343.391557	2528.221833
343.783113	2528.579755
344.174605	2527.425331
344.566033	2525.779394
344.957397	2524.259486
345.348697	2525.250073
345.739934	2523.866276
346.131106	2521.660771
346.522215	2516.082734
346.913260	2517.222035
347.304241	2515.911335
347.695159	2510.401354
348.086012	2508.730212
348.476802	2507.490088
348.867528	2507.732063
349.258191	2504.649398
349.648789	2503.474809
350.039324	2504.094871
350.429796	2502.948008
350.820203	2500.566063
351.210548	2500.966835
351.600828	2499.784684
351.991045	2498.390805
352.381198	2501.004643
352.771288	2497.632111
353.161314	2496.749909
353.551276	2498.002636
353.941175	2498.030362
354.331010	2501.871722
354.720782	2497.979951
355.110490	2500.006495
355.500135	2496.918788
355.889717	2499.053717
356.279235	2499.192348
356.668689	2500.949191
357.058080	2499.230157
357.447408	2497.047338
357.836672	2496.830568
358.225873	2498.085815
358.615010	2492.475011
359.004084	2501.256701
359.393095	2500.840806
359.782043	2502.879952
360.170927	2502.436331
360.559748	2505.188801
360.948505	2504.447751
361.337199	2504.843482
361.725830	2508.475633
362.114398	2508.112670
362.502903	2507.585870
362.891344	2507.918586
363.279722	2507.815242
363.668037	2508.427742
364.056289	2508.904131
364.444478	2511.094513
364.832603	2510.310613
365.220665	2509.448576
365.608665	2510.963443
365.996601	2511.868330
366.384474	2512.969822
366.772284	2514.870337
367.160031	2513.927641
367.547715	2513.398320
367.935336	2513.748680
368.322893	2514.426715
368.710388	2514.819925
369.097820	2519.183044
369.485189	2515.994514
369.872495	2513.854544
370.259738	2517.753877
370.646918	2516.584329
371.034035	2516.412930
371.421090	2517.398476
371.808081	2519.709845
372.195010	2519.125071
372.581875	2519.752694
372.968678	2523.583971
373.355418	2525.121523
373.742096	2527.216123
374.128710	2530.376926
374.515262	2534.334232
374.901751	2536.469161
375.288177	2537.817669
375.674540	2545.523073
376.060841	2553.334341
376.447079	2560.923798
376.833254	2568.190621
377.219367	2578.333423
377.605417	2589.998653
377.991404	2600.116248
378.377329	2612.353649
378.763191	2627.285547
379.148991	2647.427477
379.534727	2664.217040
379.920402	2681.800585
380.306013	2694.295085
380.691563	2724.330279
381.077049	2746.672673
381.462474	2764.742689
381.847835	2794.651855
382.233134	2819.151862
382.618371	2833.917402
383.003545	2881.440359
383.388657	2898.141702
383.773706	2935.176539
384.158693	2959.638738
384.543618	2994.372288
384.928480	3029.554501
385.313280	3075.050914
385.698017	3092.964654
386.082692	3143.973569
386.467305	3168.849143
386.851856	3211.842624
387.236344	3240.799011
387.620770	3281.791154
388.005133	3322.342195
388.389435	3362.384080
388.773674	3384.550034
389.157851	3440.307716
389.541965	3465.422744
389.926018	3451.347843
390.310008	3526.546735
390.693936	3553.794171
391.077802	3605.382819
391.461606	3609.264508
391.845348	3678.585414
392.229027	3687.672094
392.612645	3711.201680
392.996200	3794.945327
393.379694	3840.192204
393.763125	3911.471598
394.146494	3889.121643
394.529801	3955.798464
394.913047	4008.223944
395.296230	3986.683093
395.679351	4045.818348
396.062410	4071.971855
396.445408	4057.249165
396.828343	4096.197119
397.211217	4120.745018
397.594028	4045.891445
397.976778	4113.014409
398.359466	4142.651352
398.742092	4169.664375
399.124656	4094.979681
399.507158	4177.626878
399.889598	4201.471535
400.271977	4263.664250
400.654294	4237.692226
401.036549	4245.599275
401.418742	4218.256057
401.800874	4319.184998
402.182944	4339.848688
402.564952	4407.589193
402.946898	4392.551431
403.328783	4388.120256
403.710606	4303.078512
404.092367	4496.437008
404.474067	4461.776555
404.855705	4471.886589
405.237282	4396.347419
405.618797	4505.460674
406.000250	4541.157084
406.381642	4620.444352
406.762972	4585.310030
407.144240	4592.508798
407.525447	4592.891926
407.906593	4649.017612
408.287677	4695.323131
408.668700	4626.193788
409.049661	4675.826468
409.430560	4717.791553
409.811399	4643.943691
410.192176	4806.263803
410.572891	4744.532354
410.953545	4844.374926
411.334138	4725.554930
411.714669	4796.836846
412.095139	4689.530845
412.475547	4835.457125
412.855894	4810.853774
413.236180	4821.626720
413.616405	4773.203916
413.996568	4865.250344
414.376670	4805.016118
414.756711	4758.987862
415.136691	4788.952481
415.516609	4868.885016
415.896466	4906.234925
416.276262	4939.577117
416.655997	4922.167492
417.035670	5101.022589
417.415283	5193.462227
417.794834	5139.078260
418.174324	5090.289973
418.553753	4999.304708
418.933121	5186.346639
419.312428	5253.683851
419.691674	5190.366959
420.070859	5321.505014
420.449983	5228.291559
420.829045	5344.858160
421.208047	5248.584724
421.586988	5322.301517
421.965867	5333.571016
422.344686	5469.548579
422.723444	5324.113812
423.102141	5141.487931
423.480777	5441.703766
423.859352	5206.712900
424.237866	5468.038754
424.616319	5461.081962
424.994712	5567.190688
425.373044	5448.597544
425.751314	5586.775571
426.129524	5391.826590
426.507673	5584.186938
426.885762	5666.985370
427.263789	5604.248210
427.641756	5477.697605
428.019662	5605.125371
428.397508	5610.789107
428.775292	5556.173247
429.153016	5655.549512
429.530679	5581.631073
429.908282	5667.963354
430.285824	5542.370567
430.663305	5812.692360
431.040726	5547.318460
431.418086	5549.745775
431.795385	5656.494729
432.172624	5667.998642
432.549802	5660.792312
432.926920	5672.397048
433.303977	5679.389129
433.680974	5722.019646
434.057910	5734.925000
434.434786	5746.524695
434.811601	5709.109251
435.188355	5943.570796
435.565050	5819.944060
435.941683	5803.693900
436.318257	6015.331621
436.694770	5999.550289
437.071222	6033.348705
437.447614	5968.315300
437.823946	5878.923039
438.200218	6033.512543
438.576429	5901.028499
438.952580	6000.031719
439.328670	6039.766094
439.704700	5953.295182
440.080670	5943.648934
440.456580	6210.096600
440.832429	6091.422797
441.208218	5937.735661
441.583947	6089.227375
441.959616	6096.496719
442.335224	6022.522827
442.710773	6160.857130
443.086261	6185.062230
443.461689	5978.201003
443.837057	6128.863447
444.212365	6286.724659
444.587612	6176.366240
444.962800	6332.415157
445.337927	6311.136447
445.712995	5922.390388
446.088002	6500.610734
446.462949	6330.466751
446.837837	6262.930413
447.212664	6435.763852
447.587431	6578.627631
447.962139	7117.620239
448.336786	8042.639202
448.711374	7784.534646
449.085901	6861.736311
449.460369	6780.815709
449.834776	6713.211316
450.209124	7109.047757
450.583412	7259.700119
450.957640	7405.661687
451.331808	7166.572363
451.705917	6724.995013
452.079965	6646.446274
452.453954	6860.413008
452.827883	6731.288893
453.201752	6824.910682
453.575562	6625.696885
453.949311	6829.677093
454.323001	6713.967489
454.696632	6795.422453
455.070202	6928.672752
455.443713	7084.436844
455.817164	7187.147833
456.190556	7264.254801
456.563888	7340.497212
456.937160	7387.969758
457.310373	7042.436470
457.683526	7063.909265
458.056619	6960.505118
458.429653	6946.722603
458.802628	6880.751543
459.175542	6993.685992
459.548398	7344.633479
459.921194	7507.987028
460.293930	7510.006010
460.666607	8036.012605
461.039224	8347.346705
461.411782	8471.837999
461.784280	8491.334662
462.156719	8381.815595
462.529099	8262.771267
462.901419	7851.032506
463.273680	7742.468737
463.645882	7753.435768
464.018024	7618.330324
464.390106	7782.913915
464.762130	8174.498143
465.134094	8642.052559
465.505999	9664.146501
465.877845	10888.665456
466.249631	11540.562265
466.621358	11154.679582
466.993026	10528.396876
467.364634	10269.233677
467.736184	9908.027442
468.107674	9572.828520
468.479105	9607.284807
468.850477	9373.279486
469.221790	9149.394282
469.593043	8821.041247
469.964238	8679.611676
470.335373	8684.161317
470.706449	8749.678673
471.077467	8735.013957
471.448425	10037.801866
471.819324	11111.481935
472.190164	11129.988011
472.560945	9880.454851
472.931667	9098.496272
473.302330	8956.325652
473.672934	8603.505376
474.043479	8963.847053
474.413965	8904.449658
474.784393	8789.312225
475.154761	8947.173437
475.525070	9031.005305
475.895321	8860.155560
476.265513	9035.872539
476.635645	9205.963590
477.005719	9205.512407
477.375734	9318.041043
477.745691	9553.188185
478.115588	9688.054173
478.485427	9931.869579
478.855207	10473.314708
479.224928	11285.938626
479.594591	11917.958166
479.964194	11730.928838
480.333739	11671.115547
480.703226	11586.202352
481.072653	11673.822647
481.442022	11908.836198
481.811333	12096.253695
482.180584	11901.554251
482.549777	11611.297216
482.918912	11441.110382
483.287988	11461.267436
483.657005	11467.916718
484.025964	11151.501135
484.394864	11286.765375
484.763706	11254.597772
485.132489	11008.188693
485.501213	10976.865483
485.869879	11053.344828
486.238487	10898.881354
486.607036	11013.189517
486.975527	10783.839703
487.343959	10976.426903
487.712333	11027.045129
488.080648	10958.185488
488.448905	10999.341468
488.817104	10940.173445
489.185244	11203.092303
489.553326	11368.104392
489.921350	11900.321689
490.289315	12968.315337
490.657222	13301.916213
491.025070	13212.546638
491.392861	13082.043768
491.760593	12703.400182
492.128267	12355.938653
492.495883	12019.126562
492.863440	11681.495283
493.230939	11346.112359
493.598380	11284.491815
493.965763	11157.505149
494.333088	11049.982379
494.700354	10972.688888
495.067563	11032.872703
495.434713	10865.130829
495.801805	10983.113994
496.168839	10914.826524
496.535815	10843.695843
496.902733	10849.835968
497.269593	10787.048397
497.636395	10883.102543
498.003139	10869.614935
498.369825	10741.672971
498.736453	10899.272043
499.103023	10821.136679
499.469535	10853.412667
499.835989	10843.370688
500.202385	10806.439195
500.568723	10650.889352
500.935003	10882.220341
501.301226	10691.720178
501.667390	10945.078488
502.033497	11041.752695
502.399546	10902.500902
502.765537	10807.086984
503.131470	10876.218847
503.497345	11051.804756
503.863163	10665.881744
504.228923	10968.681170
504.594625	11039.048116
504.960269	10790.040322
505.325856	11013.000474
505.691385	10800.319235
506.056856	10951.868922
506.422270	10976.285751
506.787625	10871.013856
507.152924	10991.013482
507.518164	10966.856273
507.883347	10880.952490
508.248472	10806.456839
508.613540	11044.245546
508.978550	10930.665829
509.343503	10897.706765
509.708398	11030.042095
510.073236	11133.166458
510.438016	11132.460697
510.802738	11083.717780
511.167403	11141.209619
511.532010	11042.113138
511.896561	11268.357602
512.261053	11337.991060
512.625488	11208.367871
512.989866	11194.325737
513.354186	11183.373830
513.718449	11079.710063
514.082655	11278.994436
514.446803	11172.028713
514.810894	11298.060080
515.174927	11156.265025
515.538904	11176.447285
515.902822	11329.032929
516.266684	11219.677700
516.630488	11164.847590
516.994235	11218.954294
517.357925	11278.381936
517.721558	11368.575740
518.085133	11387.374203
518.448651	11390.862681
518.812112	11268.927252
519.175516	11293.568412
519.538863	11413.555435
519.902152	11327.928917
520.265385	11487.615027
520.628560	11394.910728
520.991678	11375.577903
521.354739	11441.821185
521.717743	11379.883048
522.080690	11354.273987
522.443580	11494.750780
522.806413	11440.462594
523.169189	11477.918367
523.531908	11539.284333
523.894569	11348.257370
524.257174	11367.328055
524.619722	11474.190434
524.982213	11420.451734
525.344647	11474.124899
525.707025	11430.458424
526.069345	11521.496622
526.431608	11434.756008
526.793815	11543.965044
527.155964	11334.757160
527.518057	11385.826569
527.880093	11340.559528
528.242072	11408.375650
528.603995	11313.375106
528.965860	11232.008362
529.327669	11282.142637
529.689421	11227.985521
530.051117	11203.727489
530.412755	11303.554938
530.774337	11198.217508
531.135862	11175.764208
531.497331	11202.255472
531.858743	11050.211751
532.220098	11219.649973
532.581396	11091.317320
532.942638	11075.858622
533.303824	11036.537622
533.664953	11046.871987
534.026025	10961.056425
534.387040	11063.389327
534.747999	11061.753473
535.108902	11118.416042
535.469748	10879.419980
535.830537	10981.387398
536.191270	10955.080137
536.551947	10982.183901
536.912567	10982.980403
537.273131	10911.413663
537.633638	10891.002031
537.994089	10879.379650
538.354483	10822.265898
538.714821	10974.365071
539.075103	10972.630914
539.435328	10947.750299
539.795497	10769.636252
540.155609	10926.995869
540.515665	11018.255877
540.875665	10754.608572
541.235609	10825.482154
541.595496	10815.722480
541.955328	10969.570934
542.315102	10853.158089
542.674821	10801.761005
543.034483	10803.530450
543.394090	10807.681840
543.753640	10737.637528
544.113134	10958.866044
544.472571	10816.067799
544.831953	10952.214241
545.191278	10756.909859
545.550548	10788.202821
545.909761	10928.762793
546.268918	10899.841694
546.628019	10985.372431
546.987064	10841.928918
547.346053	10764.728688
547.704986	10867.283402
548.063863	10857.569098
548.422684	10847.625422
548.781449	10767.390418
549.140158	10868.112672
549.498811	10742.285472
549.857408	10599.991343
550.215949	10829.104223
550.574434	10683.190546
550.932864	10777.744948
551.291237	10840.446819
551.649555	10789.561412
552.007817	10797.468462
552.366022	10765.336147
552.724173	10762.127453
553.082267	10745.176573
553.440305	10883.581452
553.798288	10686.736997
554.156215	10833.187558
554.514086	10815.775412
554.871902	10660.250775
555.229661	10692.972905
555.587365	10674.507158
555.945014	10565.716537
556.302606	10690.618686
556.660143	10580.482077
557.017625	10736.868752
557.375050	10635.861673
557.732421	10765.492423
558.089735	10683.586276
558.446994	10683.019146
558.804197	10715.443848
559.161345	10727.237627
559.518437	10569.562938
559.875474	10661.392596
560.232455	10688.907214
560.589381	10642.647066
560.946251	10638.735130
561.303065	10743.858312
561.659825	10676.790801
562.016528	10605.496282
562.373177	10480.601696
562.729770	10603.719276
563.086307	10523.338078
563.442789	10613.287386
563.799216	10482.925668
564.155587	10536.828205
564.511904	10489.842131
564.868164	10481.042797
565.224370	10496.957720
565.580520	10420.100288
565.936615	10429.519684
566.292654	10297.002873
566.648638	10433.318193
567.004567	10392.691535
567.360441	10369.003153
567.716260	10281.196335
568.072023	10375.176046
568.427732	10332.321197
568.783385	10231.911494
569.138982	10312.408639
569.494525	10321.540689
569.850013	10191.204177
570.205445	10276.818093
570.560823	10174.938894
570.916145	10087.810112
571.271412	10160.669908
571.626625	10111.075037
571.981782	10082.595038
572.336884	10058.505884
572.691931	10055.950019
573.046923	10007.900262
573.401860	9960.979722
573.756743	9903.923943
574.111570	9944.732083
574.466342	9927.629969
574.821059	9951.396489
575.175722	9842.704171
575.530330	9853.167085
575.884882	9842.794911
576.239380	9768.674826
576.593823	9756.414740
576.948211	9770.920660
577.302544	9652.894646
577.656823	9659.501078
578.011047	9665.807562
578.365216	9638.388726
578.719330	9558.436026
579.073389	9573.524199
579.427394	9521.784317
579.781344	9497.022169
580.135239	9443.769940
580.489080	9462.749885
580.842866	9359.769194
581.196597	9365.208599
581.550273	9399.054906
581.903895	9370.025421
582.257463	9435.434393
582.610975	9312.271442
582.964434	9341.873098
583.317837	9266.946428
583.671186	9246.570084
584.024481	9240.238395
584.377721	9160.081528
584.730906	9133.928022
585.084037	9172.081995
585.437113	9101.256304
585.790135	9122.557700
586.143103	9021.711937
586.496016	8999.427517
586.848874	9052.036998
587.201679	9045.596924
587.554428	8928.984954
587.907124	8978.264753
588.259765	8947.763252
588.612352	8942.369217
588.964884	8828.608019
589.317362	8838.418104
589.669786	8835.819389
590.022155	8886.674549
590.374470	8903.343125
590.726731	8840.915996
591.078937	8688.688273
591.431090	8800.332187
591.783188	8673.753855
592.135232	8674.089092
592.487222	8663.810179
592.839157	8718.685659
593.191038	8656.427409
593.542866	8605.010161
593.894639	8498.404880
594.246358	8552.133498
594.598022	8570.178308
594.949633	8464.883728
595.301190	8443.138711
595.652692	8470.917989
596.004141	8578.985204
596.355535	8355.047068
596.706876	8334.227102
597.058162	8269.733101
597.409395	8343.109615
597.760573	8414.399093
598.111698	8319.748908
598.462768	8302.498080
598.813785	8269.473481
599.164748	8234.760096
599.515657	8226.575783
599.866511	8137.753172
600.217312	8263.663551
600.568060	8120.991336
600.918753	8228.738438
601.269392	8197.838685
601.619978	8106.813091
601.970510	8175.125766
602.320988	8166.540681
602.671412	8226.384219
603.021783	8158.381574
603.372100	8129.026935
603.722363	8133.831155
604.072572	8111.108154
604.422728	8125.735062
604.772830	8050.735295
605.122878	8062.992861
605.472872	8055.181593
605.822813	8079.913494
606.172701	8025.940380
606.522534	8101.333356
606.872314	8099.989889
607.222041	8074.590035
607.571714	8125.336810
607.921333	8077.574398
608.270899	8095.767922
608.620411	8180.182044
608.969870	8087.273578
609.319276	8081.138494
609.668627	8091.490503
610.017926	8126.987788
610.367171	8171.730549
610.716362	8153.070718
611.065500	8146.098803
611.414585	8171.420518
611.763616	8161.086153
612.112594	8140.974470
612.461518	8154.235225
612.810389	8212.551292
613.159207	8154.502406
613.507971	8100.947708
613.856682	8221.960606
614.205340	8179.100716
614.553945	8258.355216
614.902496	8155.556007
615.250994	8213.252013
615.599439	8193.011780
615.947830	8203.096608
616.296169	8175.735746
616.644454	8188.688991
616.992686	8189.939197
617.340864	8248.187209
617.688990	8152.402765
618.037063	8243.297290
618.385082	8185.838218
618.733048	8270.113708
619.080961	8217.385759
619.428821	8235.304540
619.776628	8237.394099
620.124382	8188.255452
620.472083	8172.577463
620.819731	8195.068571
621.167326	8089.915143
621.514868	8102.029036
621.862357	7985.023855
622.209793	8007.073862
622.557176	7937.163140
622.904506	7911.554079
623.251783	7842.553285
623.599007	7800.074002
623.946179	7800.010988
624.293297	7759.180163
624.640363	7676.971546
624.987376	7661.500245
625.334336	7608.179961
625.681243	7555.265489
626.028097	7545.921711
626.374899	7525.101745
626.721647	7514.011207
627.068343	7446.472348
627.414987	7416.850528
627.761577	7375.079528
628.108115	7410.365084
628.454600	7301.108157
628.801032	7359.890531
629.147412	7317.993501
629.493739	7305.367932
629.840014	7241.148673
630.186236	7294.090870
630.532405	7181.481576
630.878521	7227.721559
631.224585	7186.316042
631.570597	7109.330061
631.916556	7144.517315
632.262462	7142.889022
632.608316	7093.800787
632.954117	7077.878303
633.299866	7064.065541
633.645562	7056.082874
633.991206	6981.972871
634.336797	6922.252842
634.682336	6878.697273
635.027823	6845.360122
635.373257	6836.729667
635.718639	6765.977073
636.063968	6783.742099
636.409245	6676.620100
636.754470	6672.080541
637.099642	6629.409695
637.444762	6577.765594
637.789829	6584.616522
638.134845	6526.832296
638.479808	6507.970819
638.824719	6513.372415
639.169577	6443.807013
639.514383	6464.695034
639.859137	6392.089816
640.203839	6401.612555
640.548489	6382.393156
