Dividing Wavelength (nm)	Counts (n)	Blue Motor Position (mm): 3.700000	Red Motor Position (mm): 0.000000	
326.493990	2141.366207
326.888308	2141.366207
327.282561	2141.366207
327.676750	2110.559716
328.070874	2108.200456
328.464933	2114.600201
328.858929	2119.250665
329.252859	2129.698457
329.646726	2141.497277
330.040528	2152.497075
330.434265	2169.006854
330.827938	2187.112158
331.221547	2203.626978
331.615091	2223.158928
332.008571	2243.628534
332.401986	2262.600916
332.795338	2281.906015
333.188625	2301.143058
333.581847	2320.697694
333.975006	2337.865343
334.368100	2358.403004
334.761129	2375.893287
335.154095	2389.973230
335.546996	2407.163564
335.939833	2424.104362
336.332606	2440.195725
336.725315	2451.603856
337.117960	2462.061730
337.510540	2469.252936
337.903056	2480.814822
338.295508	2486.435709
338.687896	2497.816113
339.080220	2503.489932
339.472480	2509.478823
339.864676	2515.059380
340.256807	2518.313445
340.648875	2521.938035
341.040879	2523.881399
341.432818	2526.759898
341.824694	2526.409538
342.216506	2526.795186
342.608253	2527.369878
342.999937	2528.660413
343.391557	2527.780732
343.783113	2529.199817
344.174605	2526.447347
344.566033	2524.748478
344.957397	2521.804444
345.348697	2518.930986
345.739934	2518.769669
346.131106	2515.258506
346.522215	2515.331603
346.913260	2512.682476
347.304241	2511.704492
347.695159	2509.304903
348.086012	2511.593587
348.476802	2505.617299
348.867528	2505.455982
349.258191	2503.137051
349.648789	2507.560664
350.039324	2500.550939
350.429796	2503.275683
350.820203	2497.695126
351.210548	2499.464571
351.600828	2497.279231
351.991045	2498.453819
352.381198	2496.565907
352.771288	2494.544405
353.161314	2493.266472
353.551276	2496.636483
353.941175	2494.504075
354.331010	2495.285454
354.720782	2493.952069
355.110490	2493.536174
355.500135	2495.398880
355.889717	2495.240084
356.279235	2494.012563
356.668689	2495.915598
357.058080	2495.953407
357.447408	2495.847543
357.836672	2492.293529
358.225873	2495.444251
358.615010	2493.813437
359.004084	2499.149499
359.393095	2498.496669
359.782043	2499.083964
360.170927	2496.739827
360.559748	2500.631598
360.948505	2500.109838
361.337199	2501.705364
361.725830	2499.489777
362.114398	2502.403563
362.502903	2500.855929
362.891344	2501.110508
363.279722	2503.883142
363.668037	2503.704181
364.056289	2504.422546
364.444478	2502.809376
364.832603	2502.930364
365.220665	2506.479336
365.608665	2506.675941
365.996601	2506.335663
366.384474	2508.042094
366.772284	2509.007475
367.160031	2506.716271
367.547715	2504.485560
367.935336	2506.131497
368.322893	2507.462361
368.710388	2509.385562
369.097820	2511.616272
369.485189	2507.316168
369.872495	2510.363545
370.259738	2508.430263
370.646918	2510.182064
371.034035	2509.070489
371.421090	2509.640140
371.808081	2510.487054
372.195010	2508.306755
372.581875	2510.066117
372.968678	2511.533093
373.355418	2508.889008
373.742096	2509.370438
374.128710	2511.744822
374.515262	2513.647857
374.901751	2511.190295
375.288177	2511.001251
375.674540	2513.592404
376.060841	2510.703823
376.447079	2513.476458
376.833254	2512.017044
377.219367	2509.103257
377.605417	2514.769514
377.991404	2511.220542
378.377329	2512.208608
378.763191	2508.210973
379.148991	2511.283556
379.534727	2513.118536
379.920402	2512.904287
380.306013	2511.550737
380.691563	2513.310100
381.077049	2515.301356
381.462474	2516.183557
381.847835	2516.919566
382.233134	2515.515605
382.618371	2515.001407
383.003545	2516.110461
383.388657	2515.424864
383.773706	2516.672549
384.158693	2516.478465
384.543618	2518.623476
384.928480	2516.070132
385.313280	2518.532735
385.698017	2516.964936
386.082692	2521.144053
386.467305	2518.686490
386.851856	2519.462828
387.236344	2521.050792
387.620770	2519.435102
388.005133	2519.465349
388.389435	2516.493588
388.773674	2518.494927
389.157851	2518.489885
389.541965	2521.728827
389.926018	2521.126409
390.310008	2520.985257
390.693936	2521.108765
391.077802	2519.556089
391.461606	2518.860410
391.845348	2522.548014
392.229027	2520.942407
392.612645	2522.069105
392.996200	2521.920391
393.379694	2521.386028
393.763125	2522.621111
394.146494	2522.013652
394.529801	2521.733868
394.913047	2523.704959
395.296230	2522.928621
395.679351	2523.770494
396.062410	2520.806296
396.445408	2523.130268
396.828343	2523.188241
397.211217	2518.129443
397.594028	2520.397962
397.976778	2519.208250
398.359466	2520.743281
398.742092	2520.869310
399.124656	2523.238652
399.507158	2525.212264
399.889598	2523.089938
400.271977	2524.052799
400.654294	2528.340300
401.036549	2524.093128
401.418742	2524.566996
401.800874	2527.195958
402.182944	2526.533046
402.564952	2523.836029
402.946898	2527.367357
403.328783	2527.775691
403.710606	2526.497758
404.092367	2525.043385
404.474067	2526.515402
404.855705	2526.091945
405.237282	2528.156298
405.618797	2527.019518
406.000250	2527.463139
406.381642	2526.880886
406.762972	2529.961031
407.144240	2528.489014
407.525447	2530.379447
407.906593	2528.362985
408.287677	2528.700742
408.668700	2528.806607
409.049661	2529.033459
409.430560	2529.524971
409.811399	2529.635877
410.192176	2526.928777
410.572891	2527.856349
410.953545	2528.209230
411.334138	2530.024045
411.714669	2530.903727
412.095139	2526.379291
412.475547	2530.094622
412.855894	2526.701925
413.236180	2533.036135
413.616405	2532.622760
413.996568	2530.457585
414.376670	2529.736700
414.756711	2530.538243
415.136691	2529.739220
415.516609	2531.150743
415.896466	2532.418593
416.276262	2531.803573
416.655997	2527.926925
417.035670	2529.076308
417.415283	2530.371885
417.794834	2525.943231
418.174324	2532.214427
418.553753	2530.591175
418.933121	2530.951618
419.312428	2532.796680
419.691674	2535.392874
420.070859	2532.390867
420.449983	2533.169725
420.829045	2531.964890
421.208047	2534.603934
421.586988	2533.575538
421.965867	2533.247863
422.344686	2534.293903
422.723444	2533.000847
423.102141	2533.646114
423.480777	2535.581918
423.859352	2535.450848
424.237866	2534.651825
424.616319	2534.261135
424.994712	2535.531506
425.373044	2538.094933
425.751314	2538.558719
426.129524	2534.145189
426.507673	2534.997144
426.885762	2534.084695
427.263789	2537.290869
427.641756	2534.901362
428.019662	2534.724921
428.397508	2537.497556
428.775292	2535.337422
429.153016	2534.702236
429.530679	2537.101825
429.908282	2536.448996
430.285824	2535.960004
430.663305	2536.564943
431.040726	2536.380940
431.418086	2534.692154
431.795385	2537.295910
432.172624	2538.644418
432.549802	2538.334387
432.926920	2536.340611
433.303977	2535.619726
433.680974	2535.347504
434.057910	2537.734490
434.434786	2537.484953
434.811601	2537.643749
435.188355	2536.524613
435.565050	2537.384130
435.941683	2539.445962
436.318257	2533.426824
436.694770	2534.399767
437.071222	2536.887576
437.447614	2532.526978
437.823946	2536.781712
438.200218	2536.998482
438.576429	2540.759182
438.952580	2538.536034
439.328670	2538.208359
439.704700	2539.640046
440.080670	2537.237937
440.456580	2538.024357
440.832429	2538.354552
441.208218	2540.910417
441.583947	2538.488143
441.959616	2539.377906
442.335224	2540.053421
442.710773	2537.600900
443.086261	2540.577701
443.461689	2540.328164
443.837057	2538.967052
444.212365	2542.034594
444.587612	2540.184491
444.962800	2538.699871
445.337927	2541.686755
445.712995	2540.234903
446.088002	2542.362269
446.462949	2543.962836
446.837837	2540.192053
447.212664	2539.440921
447.587431	2539.647608
447.962139	2540.701209
448.336786	2542.780685
448.711374	2540.129038
449.085901	2541.774975
449.460369	2542.715150
449.834776	2539.773637
450.209124	2540.373534
450.583412	2542.289173
450.957640	2541.477547
451.331808	2539.723225
451.705917	2542.493339
452.079965	2542.934440
452.453954	2540.781868
452.827883	2543.340253
453.201752	2542.899152
453.575562	2543.811601
453.949311	2541.674152
454.323001	2543.526776
454.696632	2541.384286
455.070202	2542.916796
455.443713	2540.083668
455.817164	2540.267670
456.190556	2537.837834
456.563888	2541.293545
456.937160	2537.437062
457.310373	2541.991745
457.683526	2541.895963
458.056619	2543.113401
458.429653	2541.512835
458.802628	2541.807742
459.175542	2544.945861
459.548398	2542.445448
459.921194	2543.884698
460.293930	2544.129194
460.666607	2541.805222
461.039224	2543.257074
461.411782	2545.273536
461.784280	2545.868392
462.156719	2541.202804
462.529099	2545.971736
462.901419	2545.452497
463.273680	2544.318237
463.645882	2544.860161
464.018024	2544.378731
464.390106	2547.080789
464.762130	2548.983825
465.134094	2543.829245
465.505999	2543.599873
465.877845	2546.208670
466.249631	2544.219935
466.621358	2543.645243
466.993026	2548.512477
467.364634	2548.784699
467.736184	2544.093906
468.107674	2542.979811
468.479105	2542.833617
468.850477	2545.838145
469.221790	2542.800850
469.593043	2546.170861
469.964238	2543.090716
470.335373	2543.703216
470.706449	2546.228834
471.077467	2545.250851
471.448425	2549.094730
471.819324	2544.353525
472.190164	2547.496685
472.560945	2545.858310
472.931667	2546.276725
473.302330	2545.908721
473.672934	2545.941489
474.043479	2547.680687
474.413965	2544.156920
474.784393	2539.743390
475.154761	2542.611807
475.525070	2542.009389
475.895321	2544.996272
476.265513	2541.384286
476.635645	2545.845707
477.005719	2544.744215
477.375734	2547.342929
477.745691	2547.537014
478.115588	2547.577343
478.485427	2545.192877
478.855207	2547.463917
479.224928	2548.250337
479.594591	2548.794782
479.964194	2546.291849
480.333739	2548.784699
480.703226	2545.565923
481.072653	2548.492312
481.442022	2549.301418
481.811333	2546.188505
482.180584	2545.477702
482.549777	2545.830583
482.918912	2545.991900
483.287988	2548.129349
483.657005	2546.816129
484.025964	2548.101623
484.394864	2547.847045
484.763706	2547.416026
485.132489	2549.190512
485.501213	2547.718495
485.869879	2549.843342
486.238487	2547.163968
486.607036	2545.633978
486.975527	2547.443753
487.343959	2547.353012
487.712333	2550.322251
488.080648	2547.302600
488.448905	2547.254709
488.817104	2549.233362
489.185244	2547.479041
489.553326	2548.789741
489.921350	2546.687579
490.289315	2547.552137
490.657222	2548.099102
491.025070	2548.363763
491.392861	2551.257385
491.760593	2546.521221
492.128267	2548.865358
492.495883	2548.414175
492.863440	2544.976108
493.230939	2547.607590
493.598380	2550.357539
493.965763	2545.255892
494.333088	2545.938968
494.700354	2545.956612
495.067563	2546.352343
495.434713	2542.185829
495.801805	2547.254709
496.168839	2549.598846
496.535815	2549.495502
496.902733	2547.037940
497.269593	2552.048847
497.636395	2549.374514
498.003139	2551.176727
498.369825	2549.177909
498.736453	2548.182282
499.103023	2552.056408
499.469535	2551.267468
499.835989	2549.059442
500.202385	2549.243444
500.568723	2547.658002
500.935003	2551.169165
501.301226	2547.282436
501.667390	2548.623383
502.033497	2548.966181
502.399546	2551.106151
502.765537	2546.785882
503.131470	2551.517005
503.497345	2552.172355
503.863163	2550.024823
504.228923	2549.281253
504.594625	2549.064483
504.960269	2553.742674
505.325856	2548.560368
505.691385	2550.037426
506.056856	2550.037426
506.422270	2548.386448
506.787625	2547.201777
507.152924	2547.363094
507.518164	2551.945503
507.883347	2549.855945
508.248472	2549.845862
508.613540	2548.444422
508.978550	2547.756304
509.343503	2546.463248
509.708398	2551.900133
510.073236	2549.160265
510.438016	2551.239741
510.802738	2548.174720
511.167403	2550.617159
511.532010	2550.478527
511.896561	2551.738816
512.261053	2549.157745
512.625488	2546.506098
512.989866	2544.051056
513.354186	2549.608928
513.718449	2544.567774
514.082655	2549.820657
514.446803	2549.298897
514.810894	2550.705379
515.174927	2550.004659
515.538904	2552.699155
515.902822	2548.467107
516.266684	2551.128836
516.630488	2552.157231
516.994235	2550.302087
517.357925	2550.884340
517.721558	2549.742519
518.085133	2550.740667
518.448651	2551.290153
518.812112	2549.734957
519.175516	2552.235369
519.538863	2549.760163
519.902152	2551.539690
520.265385	2553.034392
520.628560	2550.627241
520.991678	2551.887530
521.354739	2553.372149
521.717743	2553.346944
522.080690	2550.518856
522.443580	2549.545914
522.806413	2548.981304
523.169189	2553.185627
523.531908	2551.315359
523.894569	2550.874258
524.257174	2552.915925
524.619722	2551.663198
524.982213	2550.884340
525.344647	2552.026161
525.707025	2550.470965
526.069345	2550.818805
526.431608	2551.496840
526.793815	2549.082127
527.155964	2550.907025
527.518057	2551.975750
527.880093	2551.060780
528.242072	2550.428116
528.603995	2551.968188
528.965860	2551.015410
529.327669	2554.317366
529.689421	2552.631100
530.051117	2551.643034
530.412755	2550.062632
530.774337	2552.865513
531.135862	2552.270657
531.497331	2548.051212
531.858743	2548.492313
532.220098	2549.853424
532.581396	2547.703372
532.942638	2550.077755
533.303824	2555.161759
533.664953	2553.331820
534.026025	2553.339382
534.387040	2552.794937
534.747999	2549.828218
535.108902	2550.977601
535.469748	2549.931562
535.830537	2549.727395
536.191270	2551.101110
536.551947	2552.192519
536.912567	2549.578681
537.273131	2551.930379
537.633638	2552.797458
537.994089	2551.108671
538.354483	2551.862324
538.714821	2552.323589
539.075103	2552.474824
539.435328	2552.573127
539.795497	2550.347457
540.155609	2551.547252
540.515665	2553.450287
540.875665	2551.058260
541.235609	2553.530946
541.595496	2551.275029
541.955328	2553.273847
542.315102	2548.956099
542.674821	2552.779814
543.034483	2550.261758
543.394090	2551.837118
543.753640	2552.069011
544.113134	2554.607232
544.472571	2550.775955
544.831953	2554.027499
545.191278	2552.459701
545.550548	2551.504402
545.909761	2552.273178
546.268918	2554.254351
546.628019	2552.431974
546.987064	2551.655637
547.346053	2553.677139
547.704986	2554.130843
548.063863	2551.484237
548.422684	2550.783517
548.781449	2554.997922
549.140158	2551.305276
549.498811	2551.900132
549.857408	2550.695297
550.215949	2549.626572
550.574434	2546.012065
550.932864	2548.557847
551.291237	2548.139432
551.649555	2551.030533
552.007817	2550.697817
552.366022	2553.180586
552.724173	2550.801161
553.082267	2553.813250
553.440305	2554.193858
553.798288	2552.079093
554.156215	2551.252344
554.514086	2553.057077
554.871902	2552.631100
555.229661	2554.440874
555.587365	2552.769732
555.945014	2551.433826
556.302606	2553.203271
556.660143	2550.329813
557.017625	2551.758980
557.375050	2552.893240
557.732421	2551.990873
558.089735	2549.775286
558.446994	2553.823333
558.804197	2551.116233
559.161345	2553.500699
559.518437	2553.654454
559.875474	2551.159083
560.232455	2553.601522
560.589381	2553.256203
560.946251	2556.253169
561.303065	2550.506253
561.659825	2553.271326
562.016528	2552.200081
562.373177	2550.518856
562.729770	2552.560524
563.086307	2553.654454
563.442789	2552.275698
563.799216	2554.269475
564.155587	2552.071532
564.511904	2552.850390
564.868164	2553.135215
565.224370	2550.302087
565.580520	2550.594474
565.936615	2552.545400
566.292654	2555.071018
566.648638	2553.972047
567.004567	2552.285781
567.360441	2553.402396
567.716260	2551.622869
568.072023	2554.398024
568.427732	2548.207487
568.783385	2552.575647
569.138982	2548.383928
569.494525	2550.339895
569.850013	2548.031047
570.205445	2552.172355
570.560823	2552.936090
570.916145	2552.429454
571.271412	2549.238403
571.626625	2553.606563
571.981782	2553.283929
572.336884	2552.290822
572.691931	2553.046995
573.046923	2552.447098
573.401860	2554.703014
573.756743	2554.766028
574.111570	2554.261913
574.466342	2551.206974
574.821059	2551.980791
575.175722	2550.334854
575.530330	2552.890719
575.884882	2551.821995
576.239380	2553.982129
576.593823	2554.997922
576.948211	2551.549772
577.302544	2552.840308
577.656823	2553.508261
578.011047	2553.261244
578.365216	2553.490617
578.719330	2553.588919
579.073389	2551.897612
579.427394	2551.282591
579.781344	2553.982129
580.135239	2552.797458
580.489080	2553.727551
580.842866	2554.700493
581.196597	2550.574309
581.550273	2553.929197
581.903895	2551.600184
582.257463	2552.570606
582.610975	2553.765359
582.964434	2554.125802
583.317837	2553.470452
583.671186	2554.970195
584.024481	2555.938097
584.377721	2554.408107
584.730906	2552.981460
585.084037	2553.155380
585.437113	2552.933569
585.790135	2556.235525
586.143103	2553.994732
586.496016	2552.719320
586.848874	2547.690769
587.201679	2550.964998
587.554428	2549.835780
587.907124	2551.058260
588.259765	2548.116747
588.612352	2552.999104
588.964884	2555.305432
589.317362	2552.321069
589.669786	2554.398024
590.022155	2554.675288
590.374470	2552.137067
590.726731	2554.614794
591.078937	2551.774104
591.431090	2554.125802
591.783188	2553.069680
592.135232	2555.733930
592.487222	2553.160421
592.839157	2555.108827
593.191038	2552.358877
593.542866	2552.641182
593.894639	2550.473486
594.246358	2554.183775
594.598022	2551.307797
594.949633	2552.099258
595.301190	2553.188147
595.652692	2555.002963
596.004141	2554.287119
596.355535	2552.767211
596.706876	2552.923487
597.058162	2554.937428
597.409395	2552.928528
597.760573	2553.823333
598.111698	2555.025648
598.462768	2553.112530
598.813785	2553.079763
599.164748	2552.000956
599.515657	2554.082952
599.866511	2550.468445
600.217312	2551.774104
600.568060	2554.249310
600.918753	2556.356513
601.269392	2551.640513
601.619978	2553.044474
601.970510	2554.261913
602.320988	2554.803837
602.671412	2552.535318
603.021783	2554.526574
603.372100	2554.766028
603.722363	2555.542366
604.072572	2556.664023
604.422728	2555.766697
604.772830	2549.876109
605.122878	2549.351829
605.472872	2551.017931
605.822813	2547.025337
606.172701	2552.071532
606.522534	2553.175544
606.872314	2551.963147
607.222041	2552.983981
607.571714	2553.611604
607.921333	2552.991542
608.270899	2553.117571
608.620411	2551.665719
608.969870	2555.292829
609.319276	2554.332489
609.668627	2556.139743
610.017926	2558.932542
610.367171	2561.390105
610.716362	2559.603016
611.065500	2557.747871
611.414585	2554.758467
611.763616	2557.810885
612.112594	2553.170503
612.461518	2554.428271
612.810389	2556.114537
613.159207	2552.926007
613.507971	2554.138405
613.856682	2554.546738
614.205340	2553.334341
614.553945	2557.425237
614.902496	2554.009855
615.250994	2554.874413
615.599439	2553.984650
615.947830	2554.234187
616.296169	2554.408107
616.644454	2554.657644
616.992686	2553.374670
617.340864	2550.644885
617.688990	2552.588250
618.037063	2555.350802
618.385082	2551.887530
618.733048	2554.196378
619.080961	2554.617314
619.428821	2554.768549
619.776628	2551.121274
620.124382	2554.526574
620.472083	2554.113199
620.819731	2554.844166
621.167326	2553.891388
621.514868	2555.643189
621.862357	2550.400389
622.209793	2554.120761
622.557176	2555.570093
622.904506	2554.536656
623.251783	2549.535831
623.599007	2551.249824
623.946179	2551.743857
624.293297	2549.969371
624.640363	2554.582026
624.987376	2556.099414
625.334336	2552.817622
625.681243	2555.612942
626.028097	2552.530277
626.374899	2553.667057
626.721647	2552.363919
627.068343	2551.637992
627.414987	2552.245452
627.761577	2555.149156
628.108115	2550.274360
628.454600	2552.505071
628.801032	2553.036913
629.147412	2553.427602
629.493739	2552.217725
629.840014	2554.607232
630.186236	2554.516491
630.532405	2551.209494
630.878521	2552.681511
631.224585	2555.149156
631.570597	2552.008517
631.916556	2552.628579
632.262462	2552.371480
632.608316	2553.193188
632.954117	2553.062118
633.299866	2552.293342
633.645562	2553.505740
633.991206	2555.197047
634.336797	2553.165462
634.682336	2551.378373
635.027823	2552.094217
635.373257	2552.126984
635.718639	2551.592622
636.063968	2553.508261
636.409245	2550.153373
636.754470	2552.026161
637.099642	2551.272509
637.444762	2553.538508
637.789829	2553.777962
638.134845	2551.060780
638.479808	2554.655123
638.824719	2551.945503
639.169577	2551.275029
639.514383	2552.116902
639.859137	2554.534135
640.203839	2552.734443
640.548489	2551.791748
640.893086	2551.375852
641.237632	2547.748742
641.582125	2549.243444
641.926566	2549.109854
642.270955	2553.319217
642.615292	2551.809392
642.959576	2553.651933
643.303809	2554.017417
643.647990	2554.128323
643.992118	2554.279557
644.336195	2551.796789
