Dividing Wavelength (nm)	Counts (n)	Blue Motor Position (mm): 30.700000	Red Motor Position (mm): 0.000000	
326.493990	2131.646863
326.888308	2131.646863
327.282561	2131.646863
327.676750	2100.265680
328.070874	2098.856678
328.464933	2100.492532
328.858929	2105.881525
329.252859	2116.795623
329.646726	2129.527058
330.040528	2141.610703
330.434265	2158.233908
330.827938	2177.100426
331.221547	2193.809331
331.615091	2214.813298
332.008571	2234.362893
332.401986	2254.837539
332.795338	2271.085178
333.188625	2291.274999
333.581847	2311.059008
333.975006	2326.681543
334.368100	2347.229286
334.761129	2363.968438
335.154095	2377.403113
335.546996	2400.161402
335.939833	2425.198292
336.332606	2437.796136
336.725315	2452.843980
337.117960	2461.222378
337.510540	2470.593883
337.903056	2482.528814
338.295508	2486.939824
338.687896	2498.947852
339.080220	2503.563029
339.472480	2510.973525
339.864676	2517.756397
340.256807	2519.903929
340.648875	2527.206040
341.040879	2527.992460
341.432818	2526.901051
341.824694	2531.206196
342.216506	2528.801566
342.608253	2529.346010
342.999937	2530.177801
343.391557	2528.887265
343.783113	2527.475742
344.174605	2527.069929
344.566033	2530.029087
344.957397	2523.979702
345.348697	2522.127078
345.739934	2520.128260
346.131106	2519.603980
346.522215	2518.840246
346.913260	2515.235821
347.304241	2513.335306
347.695159	2511.369256
348.086012	2512.211128
348.476802	2508.296672
348.867528	2507.618637
349.258191	2503.497494
349.648789	2506.202073
350.039324	2506.083606
350.429796	2504.523369
350.820203	2502.375837
351.210548	2499.928357
351.600828	2500.528254
351.991045	2499.807369
352.381198	2497.362410
352.771288	2497.954745
353.161314	2499.194869
353.551276	2497.536329
353.941175	2497.606906
354.331010	2494.912409
354.720782	2495.789570
355.110490	2497.654797
355.500135	2496.255876
355.889717	2499.179746
356.279235	2497.881648
356.668689	2496.984323
357.058080	2498.766371
357.447408	2494.120948
357.836672	2493.619353
358.225873	2494.400732
358.615010	2494.869559
359.004084	2497.521206
359.393095	2499.948522
359.782043	2504.314161
360.170927	2500.485404
360.559748	2502.844664
360.948505	2503.124448
361.337199	2503.247957
361.725830	2504.326764
362.114398	2506.297855
362.502903	2503.547905
362.891344	2503.787360
363.279722	2503.837772
363.668037	2507.275839
364.056289	2507.603514
364.444478	2508.026971
364.832603	2509.526714
365.220665	2507.447238
365.608665	2507.258195
365.996601	2505.972700
366.384474	2510.713906
366.772284	2510.746673
367.160031	2506.998575
367.547715	2509.607372
367.935336	2508.515963
368.322893	2511.480161
368.710388	2512.627023
369.097820	2512.992507
369.485189	2508.997393
369.872495	2507.495129
370.259738	2509.264574
370.646918	2512.175840
371.034035	2511.273474
371.421090	2514.950995
371.808081	2513.882271
372.195010	2511.389420
372.581875	2513.620131
372.968678	2513.312620
373.355418	2515.336644
373.742096	2513.388238
374.128710	2510.955881
374.515262	2515.560975
374.901751	2512.929493
375.288177	2516.957375
375.674540	2513.607528
376.060841	2516.264216
376.447079	2515.613907
376.833254	2516.765811
377.219367	2509.556961
377.605417	2516.851510
377.991404	2513.673063
378.377329	2516.110461
378.763191	2514.096520
379.148991	2516.859072
379.534727	2517.292611
379.920402	2518.837725
380.306013	2515.906294
380.691563	2516.236490
381.077049	2519.452746
381.462474	2516.785975
381.847835	2517.874865
382.233134	2517.849659
382.618371	2517.201871
383.003545	2520.871831
383.388657	2521.892664
383.773706	2520.942407
384.158693	2518.905781
384.543618	2520.826460
384.928480	2521.557428
385.313280	2522.913498
385.698017	2518.275636
386.082692	2522.222860
386.467305	2521.144053
386.851856	2521.575072
387.236344	2522.646317
387.620770	2523.828467
388.005133	2523.578930
388.389435	2524.239321
388.773674	2524.786287
389.157851	2520.070287
389.541965	2527.422810
389.926018	2524.410721
390.310008	2522.653878
390.693936	2526.192768
391.077802	2525.202182
391.461606	2525.943231
391.845348	2525.880217
392.229027	2527.730320
392.612645	2521.333096
392.996200	2527.183355
393.379694	2526.742254
393.763125	2524.887110
394.146494	2525.723941
394.529801	2527.821061
394.913047	2523.959537
395.296230	2526.517923
395.679351	2525.870135
396.062410	2529.124199
396.445408	2526.018849
396.828343	2527.674868
397.211217	2524.725793
397.594028	2523.798220
397.976778	2524.602284
398.359466	2526.931297
398.742092	2525.323169
399.124656	2528.920033
399.507158	2528.224353
399.889598	2533.015970
400.271977	2531.007070
400.654294	2533.777184
401.036549	2530.444982
401.418742	2531.644776
401.800874	2530.936494
402.182944	2532.121165
402.564952	2532.068233
402.946898	2532.766433
403.328783	2535.166022
403.710606	2532.446320
404.092367	2531.601927
404.474067	2535.561753
404.855705	2536.194418
405.237282	2534.999664
405.618797	2535.425642
406.000250	2535.854140
406.381642	2531.397760
406.762972	2539.771116
407.144240	2537.593338
407.525447	2537.225334
407.906593	2536.746424
408.287677	2537.948739
408.668700	2535.624767
409.049661	2537.870601
409.430560	2536.310364
409.811399	2536.554860
410.192176	2538.152906
410.572891	2538.344470
410.953545	2539.062834
411.334138	2536.753986
411.714669	2538.377237
412.095139	2539.526620
412.475547	2542.037115
412.855894	2540.769265
413.236180	2541.525438
413.616405	2544.038453
413.996568	2539.859337
414.376670	2542.427804
414.756711	2539.740869
415.136691	2540.071065
415.516609	2544.043494
415.896466	2542.299255
416.276262	2548.620862
416.655997	2542.130376
417.035670	2538.939326
417.415283	2544.290511
417.794834	2541.664070
418.174324	2545.850748
418.553753	2548.661191
418.933121	2550.569268
419.312428	2552.005997
419.691674	2551.905174
420.070859	2554.188816
420.449983	2554.670247
420.829045	2561.067471
421.208047	2564.724828
421.586988	2566.877401
421.965867	2571.926116
422.344686	2578.527507
422.723444	2582.527663
423.102141	2586.875658
423.480777	2597.641042
423.859352	2599.987699
424.237866	2614.183588
424.616319	2623.285392
424.994712	2635.018677
425.373044	2641.405819
425.751314	2654.459887
426.129524	2661.464570
426.507673	2683.663291
426.885762	2697.546629
427.263789	2711.341746
427.641756	2715.170503
428.019662	2739.380644
428.397508	2756.790269
428.775292	2772.374996
429.153016	2796.627987
429.530679	2811.567447
429.908282	2833.130982
430.285824	2842.988958
430.663305	2894.938049
431.040726	2888.729868
431.418086	2911.319278
431.795385	2948.684311
432.172624	2980.065493
432.549802	3005.626664
432.926920	3035.122455
433.303977	3067.038000
433.680974	3102.653752
434.057910	3136.293372
434.434786	3172.715708
434.811601	3199.154039
435.188355	3281.564302
435.565050	3291.576033
435.941683	3329.258658
436.318257	3417.909869
436.694770	3453.828091
437.071222	3508.292717
437.447614	3533.838764
437.823946	3544.057183
438.200218	3636.547232
438.576429	3636.816934
438.952580	3722.423288
439.328670	3782.947381
439.704700	3801.188796
440.080670	3839.819158
440.456580	3995.265658
440.832429	4007.946680
441.208218	3988.780213
441.583947	4101.878500
441.959616	4154.868588
442.335224	4173.026825
442.710773	4286.598980
443.086261	4360.303169
443.461689	4303.950631
443.837057	4429.742543
444.212365	4567.252617
444.587612	4562.564344
444.962800	4699.159449
445.337927	4738.969441
445.712995	4569.596754
446.088002	4966.663236
446.462949	4909.960338
446.837837	4920.329991
447.212664	5068.839863
447.587431	5224.430035
447.962139	5645.275641
448.336786	6312.041334
448.711374	6200.462955
449.085901	5621.335201
449.460369	5623.518021
449.834776	5626.882991
450.209124	5967.937213
450.583412	6130.443849
450.957640	6282.898423
451.331808	6159.264125
451.705917	5855.300192
452.079965	5837.489796
452.453954	6051.638011
452.827883	5987.365820
453.201752	6108.398883
453.575562	5972.537266
453.949311	6186.806469
454.323001	6121.629391
454.696632	6215.707404
455.070202	6372.325972
455.443713	6541.242434
455.817164	6655.848026
456.190556	6766.697958
456.563888	6861.406115
456.937160	6929.554953
457.310373	6645.864021
457.683526	6698.939809
458.056619	6623.589683
458.429653	6636.202649
458.802628	6596.634633
459.175542	6718.058385
459.548398	7068.111067
459.921194	7234.078454
460.293930	7254.868173
460.666607	7774.011237
461.039224	8078.784275
461.411782	8217.380718
461.784280	8254.627283
462.156719	8171.375148
462.529099	8075.426867
462.901419	7693.894700
463.273680	7599.473888
463.645882	7621.728062
464.018024	7506.119281
464.390106	7670.818818
464.762130	8066.279693
465.134094	8533.622381
465.505999	9535.309732
465.877845	10734.123843
466.249631	11386.854964
466.621358	11021.209993
466.993026	10417.055431
467.364634	10169.975878
467.736184	9819.076283
468.107674	9493.450512
468.479105	9528.852014
468.850477	9301.097725
469.221790	9080.771575
469.593043	8754.603880
469.964238	8624.892471
470.335373	8635.017629
470.706449	8696.766722
471.077467	8686.099641
471.448425	9989.537859
471.819324	11050.481453
472.190164	11066.953423
472.560945	9828.558693
472.931667	9052.614211
473.302330	8917.372656
473.672934	8562.813182
474.043479	8924.611753
474.413965	8873.353300
474.784393	8751.196060
475.154761	8911.988703
475.525070	8989.451073
475.895321	8817.275505
476.265513	8997.748813
476.635645	9168.180142
477.005719	9169.868928
477.375734	9284.227503
477.745691	9513.668059
478.115588	9654.883381
478.485427	9901.526874
478.855207	10428.690414
479.224928	11240.721996
479.594591	11867.488654
479.964194	11678.599140
480.333739	11620.698967
480.703226	11526.694051
481.072653	11628.835390
481.442022	11864.796678
481.811333	12046.605891
482.180584	11848.004594
482.549777	11567.355998
482.918912	11389.967877
483.287988	11413.842781
483.657005	11426.818711
484.025964	11108.873138
484.394864	11241.173180
484.763706	11214.450023
485.132489	10974.440688
485.501213	10935.709503
485.869879	11007.442602
486.238487	10857.783347
486.607036	10962.951899
486.975527	10748.801163
487.343959	10928.316651
487.712333	10986.955353
488.080648	10917.213510
488.448905	10956.978132
488.817104	10903.010059
489.185244	11158.909111
489.553326	11322.673514
489.921350	11861.610669
490.289315	12914.624528
490.657222	13252.333945
491.025070	13159.738031
491.392861	13029.928319
491.760593	12654.233808
492.128267	12306.434522
492.495883	11978.658699
492.863440	11647.883390
493.230939	11313.181021
493.598380	11248.351783
493.965763	11112.530495
494.333088	11010.535350
494.700354	10932.029461
495.067563	10995.124543
495.434713	10822.124746
495.801805	10946.177459
496.168839	10875.379495
496.535815	10808.382560
496.902733	10817.444034
497.269593	10745.282438
497.636395	10844.207520
498.003139	10831.155973
498.369825	10706.687364
498.736453	10861.294511
499.103023	10785.205855
499.469535	10819.584004
499.835989	10806.713938
500.202385	10774.314443
500.568723	10624.461103
500.935003	10842.841367
501.301226	10655.738942
501.667390	10909.853425
502.033497	11010.003508
502.399546	10864.745181
502.765537	10768.181879
503.131470	10839.083187
503.497345	11017.797132
503.863163	10630.218101
504.228923	10937.995667
504.594625	11003.200471
504.960269	10751.387275
505.325856	10971.158897
505.691385	10772.297981
506.056856	10926.363204
506.422270	10947.707450
506.787625	10837.691829
507.152924	10952.451175
507.518164	10928.702300
507.883347	10854.284787
508.248472	10772.207240
508.613540	11009.950576
508.978550	10892.600076
509.343503	10867.651406
509.708398	10987.469551
510.073236	11098.647157
510.438016	11107.743920
510.802738	11056.480426
511.167403	11105.530853
511.532010	11001.569658
511.896561	11234.632283
512.261053	11303.149125
512.625488	11174.335041
512.989866	11153.013481
513.354186	11146.608695
513.718449	11049.511031
514.082655	11237.475493
514.446803	11132.637137
514.810894	11262.426684
515.174927	11126.285283
515.538904	11149.827472
515.902822	11298.226438
516.266684	11181.256546
516.630488	11126.365942
516.994235	11181.185969
517.357925	11247.590568
517.721558	11330.051243
518.085133	11352.375992
518.448651	11358.811025
518.812112	11239.804506
519.175516	11252.120045
519.538863	11371.938190
519.902152	11292.504729
520.265385	11447.255549
520.628560	11361.273629
520.991678	11340.083139
521.354739	11404.544373
521.717743	11338.472490
522.080690	11321.592186
522.443580	11455.218051
522.806413	11406.570917
523.169189	11439.217429
523.531908	11494.531490
523.894569	11319.353914
524.257174	11324.813484
524.619722	11438.574682
524.982213	11385.158616
525.344647	11441.657348
525.707025	11394.199925
526.069345	11479.229067
526.431608	11400.950030
526.793815	11510.305260
527.155964	11299.733743
527.518057	11349.905827
527.880093	11299.418671
528.242072	11372.149918
528.603995	11278.359251
528.965860	11192.062259
529.327669	11238.105637
529.689421	11196.901767
530.051117	11164.013279
530.412755	11273.623087
530.774337	11161.036477
531.135862	11146.429734
531.497331	11160.118987
531.858743	11016.005002
532.220098	11183.996413
532.581396	11051.923223
532.942638	11035.189113
533.303824	11003.109730
533.664953	11010.139619
534.026025	10923.240209
534.387040	11026.581343
534.747999	11026.725016
535.108902	11084.025291
535.469748	10847.920330
535.830537	10947.838520
536.191270	10924.387072
536.551947	10947.715011
536.912567	10952.955291
537.273131	10871.802796
537.633638	10849.029384
537.994089	10843.249701
538.354483	10794.015272
538.714821	10936.473238
539.075103	10943.830802
539.435328	10912.573128
539.795497	10733.813813
540.155609	10895.390355
540.515665	10981.742800
540.875665	10718.851668
541.235609	10783.547316
541.595496	10782.067737
541.955328	10929.040057
542.315102	10819.430249
542.674821	10772.910481
543.034483	10770.710017
543.394090	10772.358475
543.753640	10703.758453
544.113134	10925.077710
544.472571	10771.418300
544.831953	10915.696123
545.191278	10731.295756
545.550548	10751.505742
545.909761	10892.784078
546.268918	10863.628565
546.628019	10952.405805
546.987064	10808.324587
547.346053	10735.187527
547.704986	10838.687457
548.063863	10821.416463
548.422684	10816.062758
548.781449	10727.696372
549.140158	10826.286218
549.498811	10711.055523
549.857408	10567.480941
550.215949	10792.797833
550.574434	10643.975410
550.932864	10743.986861
551.291237	10806.779473
551.649555	10755.526062
552.007817	10767.508885
552.366022	10724.185209
552.724173	10724.331402
553.082267	10702.833402
553.440305	10837.407003
553.798288	10645.979268
554.156215	10797.544079
554.514086	10771.105748
554.871902	10621.776689
555.229661	10660.172637
555.587365	10634.530808
555.945014	10533.435509
556.302606	10656.318675
556.660143	10544.394977
557.017625	10698.351816
557.375050	10607.333783
557.732421	10740.478218
558.089735	10648.857767
558.446994	10656.089303
558.804197	10687.321771
559.161345	10682.706595
559.518437	10534.620180
559.875474	10623.420105
560.232455	10656.238017
560.589381	10601.339851
560.946251	10598.952865
561.303065	10706.904133
561.659825	10644.862653
562.016528	10578.455533
562.373177	10450.316964
562.729770	10565.522453
563.086307	10480.306788
563.442789	10575.277086
563.799216	10452.378796
564.155587	10496.294808
564.511904	10454.959867
564.868164	10446.253794
565.224370	10461.669643
565.580520	10384.103929
565.936615	10389.258509
566.292654	10256.154403
566.648638	10398.874510
567.004567	10347.953815
567.360441	10334.120889
567.716260	10242.152598
568.072023	10345.150933
568.427732	10293.794178
568.783385	10199.980826
569.138982	10269.735272
569.494525	10282.933013
569.850013	10163.535804
570.205445	10242.583617
570.560823	10134.007246
570.916145	10061.878416
571.271412	10124.910483
571.626625	10075.718904
571.981782	10051.196211
572.336884	10025.141008
572.691931	10029.582264
573.046923	9968.974992
573.401860	9940.043810
573.756743	9870.039827
574.111570	9913.476929
574.466342	9892.145287
574.821059	9922.344319
575.175722	9814.158637
575.530330	9824.102313
575.884882	9819.976128
576.239380	9741.376978
576.593823	9722.482734
576.948211	9738.616947
577.302544	9617.873750
577.656823	9633.219022
578.011047	9634.859918
578.365216	9610.763203
578.719330	9536.272593
579.073389	9545.321464
579.427394	9491.739040
579.781344	9469.338673
580.135239	9419.940406
580.489080	9425.531046
580.842866	9325.716200
581.196597	9337.736831
581.550273	9376.611689
581.903895	9343.945012
582.257463	9409.916072
582.610975	9287.390828
582.964434	9311.658942
583.317837	9231.781859
583.671186	9217.404489
584.024481	9213.008603
584.377721	9130.089183
584.730906	9112.324157
585.084037	9142.102253
585.437113	9070.477539
585.790135	9096.767157
586.143103	8990.729006
586.496016	8971.045821
586.848874	9026.652268
587.201679	9016.716154
587.554428	8896.010766
587.907124	8943.155637
588.259765	8915.958612
588.612352	8916.545907
588.964884	8793.917319
589.317362	8814.255854
589.669786	8807.435173
590.022155	8862.388791
590.374470	8877.161892
590.726731	8812.438518
591.078937	8659.825147
591.431090	8775.842262
591.783188	8653.564034
592.135232	8643.736304
592.487222	8644.230338
592.839157	8694.515847
593.191038	8629.608471
593.542866	8576.701561
593.894639	8471.001168
594.246358	8524.011421
594.598022	8541.108494
594.949633	8441.291128
595.301190	8415.629134
595.652692	8443.332795
596.004141	8551.037047
596.355535	8332.364396
596.706876	8313.618865
597.058162	8246.286694
597.409395	8324.049013
597.760573	8383.960606
598.111698	8291.233622
598.462768	8281.620141
598.813785	8247.589832
599.164748	8206.713636
599.515657	8198.647790
599.866511	8119.053012
600.217312	8240.464161
600.568060	8101.333356
600.918753	8201.556536
601.269392	8173.784819
601.619978	8082.340809
601.970510	8151.318917
602.320988	8145.524111
602.671412	8197.458078
603.021783	8138.390878
603.372100	8112.645706
603.722363	8113.248123
604.072572	8091.389680
604.422728	8095.281451
604.772830	8027.329218
605.122878	8035.697533
605.472872	8031.931791
605.822813	8053.601191
606.172701	8010.143924
606.522534	8080.810819
606.872314	8077.788647
607.222041	8049.205305
607.571714	8104.489119
607.921333	8062.760968
608.270899	8069.662307
608.620411	8161.411307
608.969870	8061.097387
609.319276	8059.658137
609.668627	8067.224909
610.017926	8103.770754
610.367171	8154.245307
610.716362	8135.139334
611.065500	8119.176520
611.414585	8148.775655
611.763616	8134.277297
612.112594	8123.045606
612.461518	8132.593551
612.810389	8192.573200
613.159207	8133.606823
613.507971	8080.231086
613.856682	8204.785395
614.205340	8161.098756
614.553945	8233.217503
614.902496	8129.825958
615.250994	8186.879217
615.599439	8169.078902
615.947830	8178.924276
616.296169	8156.130699
616.644454	8166.386926
616.992686	8171.143255
617.340864	8223.021769
617.688990	8127.978375
618.037063	8223.079742
618.385082	8164.995568
618.733048	8246.470696
619.080961	8189.470370
619.428821	8209.040129
619.776628	8209.929892
620.124382	8165.605547
620.472083	8147.447311
620.819731	8176.076024
621.167326	8069.022081
621.514868	8076.757731
621.862357	7961.774053
622.209793	7981.298442
622.557176	7916.433916
622.904506	7888.851242
623.251783	7822.308012
623.599007	7778.628934
623.946179	7781.840149
624.293297	7738.362718
624.640363	7656.436406
624.987376	7635.397150
625.334336	7587.813699
625.681243	7537.903756
626.028097	7521.918257
626.374899	7502.512335
626.721647	7490.726117
627.068343	7427.278155
627.414987	7402.266470
627.761577	7350.818975
628.108115	7391.869090
628.454600	7283.683408
628.801032	7334.904052
629.147412	7294.637836
629.493739	7282.327338
629.840014	7219.630507
630.186236	7278.801051
630.532405	7163.230078
630.878521	7212.502316
631.224585	7165.909452
631.570597	7088.883141
631.916556	7123.447813
632.262462	7124.879500
632.608316	7083.065650
632.954117	7062.485139
633.299866	7048.531225
633.645562	7039.348764
633.991206	6962.362783
634.336797	6907.215080
634.682336	6860.085333
635.027823	6826.803635
635.373257	6820.434137
635.718639	6746.414875
636.063968	6760.625888
636.409245	6658.149313
636.754470	6652.198231
637.099642	6617.336131
637.444762	6560.928140
637.789829	6568.096661
638.134845	6515.227560
638.479808	6495.183932
638.824719	6501.450087
639.169577	6430.702533
639.514383	6446.882117
639.859137	6380.331324
640.203839	6386.965483
640.548489	6370.405292
