Dividing Wavelength (nm)	Counts (n)	Blue Motor Position (mm): 12.300000	Red Motor Position (mm): 0.000000	
326.493990	2162.609630
326.888308	2162.609630
327.282561	2162.609630
327.676750	2123.689401
328.070874	2120.175717
328.464933	2119.601026
328.858929	2125.771398
329.252859	2130.043776
329.646726	2138.480147
330.040528	2149.696714
330.434265	2160.270534
330.827938	2181.012362
331.221547	2197.655731
331.615091	2215.135932
332.008571	2232.311143
332.401986	2252.183372
332.795338	2271.153234
333.188625	2288.099072
333.581847	2309.113122
333.975006	2326.442088
334.368100	2343.914728
334.761129	2361.034486
335.154095	2379.033926
335.546996	2401.577966
335.939833	2423.938004
336.332606	2439.008533
336.725315	2450.840121
337.117960	2465.272945
337.510540	2476.260140
337.903056	2488.023672
338.295508	2499.267966
338.687896	2507.167454
339.080220	2511.790192
339.472480	2518.994001
339.864676	2523.684794
340.256807	2529.577903
340.648875	2535.120652
341.040879	2538.031918
341.432818	2540.121477
341.824694	2541.580891
342.216506	2543.272198
342.608253	2547.090872
342.999937	2545.480223
343.391557	2544.560213
343.783113	2542.720191
344.174605	2542.705068
344.566033	2541.835469
344.957397	2542.526107
345.348697	2539.234233
345.739934	2537.381609
346.131106	2535.904551
346.522215	2533.446989
346.913260	2533.182328
347.304241	2532.877338
347.695159	2528.967924
348.086012	2528.531864
348.476802	2523.508354
348.867528	2520.594567
349.258191	2519.452746
349.648789	2519.936697
350.039324	2513.259688
350.429796	2518.396624
350.820203	2515.114833
351.210548	2519.137674
351.600828	2514.136849
351.991045	2511.954029
352.381198	2513.035357
352.771288	2510.754235
353.161314	2509.564523
353.551276	2511.041581
353.941175	2510.411436
354.331010	2507.739625
354.720782	2509.932527
355.110490	2513.010151
355.500135	2510.086282
355.889717	2511.596108
356.279235	2509.660304
356.668689	2510.270284
357.058080	2511.107116
357.447408	2507.742145
357.836672	2509.355315
358.225873	2510.986128
358.615010	2509.516632
359.004084	2511.167609
359.393095	2513.113495
359.782043	2511.553258
360.170927	2514.295645
360.559748	2512.374966
360.948505	2515.336644
361.337199	2514.577950
361.725830	2517.622807
362.114398	2514.167096
362.502903	2516.523835
362.891344	2517.199350
363.279722	2515.883609
363.668037	2515.190450
364.056289	2520.786131
364.444478	2516.811181
364.832603	2518.326048
365.220665	2518.925945
365.608665	2520.808816
365.996601	2519.495596
366.384474	2516.354957
366.772284	2519.755215
367.160031	2521.146573
367.547715	2520.529032
367.935336	2518.409227
368.322893	2518.867972
368.710388	2520.619773
369.097820	2518.930986
369.485189	2519.036851
369.872495	2523.621780
370.259738	2522.094310
370.646918	2526.434744
371.034035	2524.186389
371.421090	2523.289064
371.808081	2525.867614
372.195010	2525.106400
372.581875	2525.676050
372.968678	2526.969106
373.355418	2526.727131
373.742096	2527.453057
374.128710	2525.855011
374.515262	2527.291740
374.901751	2527.790814
375.288177	2524.972809
375.674540	2528.100845
376.060841	2528.501617
376.447079	2528.612522
376.833254	2527.261493
377.219367	2528.299971
377.605417	2529.330887
377.991404	2527.657224
378.377329	2527.127903
378.763191	2528.115969
379.148991	2529.971113
379.534727	2526.475073
379.920402	2526.389373
380.306013	2529.356092
380.691563	2527.712676
381.077049	2528.146216
381.462474	2530.797863
381.847835	2529.416586
382.233134	2530.112266
382.618371	2533.799870
383.003545	2529.429189
383.388657	2528.491535
383.773706	2531.012112
384.158693	2532.269879
384.543618	2532.363141
384.928480	2531.238963
385.313280	2532.058151
385.698017	2532.690816
386.082692	2533.167205
386.467305	2533.958666
386.851856	2532.773995
387.236344	2532.897503
387.620770	2532.131248
388.005133	2529.966072
388.389435	2531.186031
388.773674	2529.570342
389.157851	2531.548994
389.541965	2534.417411
389.926018	2535.110570
390.310008	2536.960673
390.693936	2537.202648
391.077802	2534.301464
391.461606	2536.005374
391.845348	2535.607123
392.229027	2538.972093
392.612645	2537.618544
392.996200	2536.880015
393.379694	2536.829603
393.763125	2537.076620
394.146494	2533.416742
394.529801	2536.025539
394.913047	2534.631660
395.296230	2537.144675
395.679351	2536.912782
396.062410	2538.762886
396.445408	2537.283307
396.828343	2536.237267
397.211217	2537.192566
397.594028	2538.750283
397.976778	2537.479912
398.359466	2536.804397
398.742092	2536.902700
399.124656	2542.614327
399.507158	2539.493853
399.889598	2541.202804
400.271977	2538.752803
400.654294	2539.695499
401.036549	2538.281455
401.418742	2542.195911
401.800874	2539.955118
402.182944	2543.662887
402.564952	2542.067362
402.946898	2543.204142
403.328783	2541.966539
403.710606	2543.340253
404.092367	2541.205325
404.474067	2541.732125
404.855705	2541.545603
405.237282	2541.653987
405.618797	2542.629451
406.000250	2541.991745
406.381642	2543.572146
406.762972	2539.193904
407.144240	2538.919161
407.525447	2541.338915
407.906593	2538.667104
408.287677	2543.357897
408.668700	2542.354708
409.049661	2544.451828
409.430560	2543.950233
409.811399	2543.937630
410.192176	2545.901159
410.572891	2544.469472
410.953545	2544.993752
411.334138	2546.178423
411.714669	2544.872764
412.095139	2545.855789
412.475547	2548.613300
412.855894	2546.122970
413.236180	2545.949050
413.616405	2544.960984
413.996568	2545.434853
414.376670	2542.412681
414.756711	2547.025337
415.136691	2545.840666
415.516609	2544.343443
415.896466	2548.635985
416.276262	2547.589946
416.655997	2544.711447
417.035670	2548.865358
417.415283	2547.655481
417.794834	2547.010213
418.174324	2546.266643
418.553753	2546.213711
418.933121	2549.442570
419.312428	2547.736139
419.691674	2547.239586
420.070859	2548.489792
420.449983	2546.392672
420.829045	2548.146993
421.208047	2547.899977
421.586988	2548.915769
421.965867	2547.287477
422.344686	2549.969371
422.723444	2548.774617
423.102141	2550.347457
423.480777	2550.261758
423.859352	2547.138763
424.237866	2550.654968
424.616319	2548.096582
424.994712	2551.942982
425.373044	2548.275543
425.751314	2544.855120
426.129524	2545.253371
426.507673	2547.453835
426.885762	2543.499050
427.263789	2548.769576
427.641756	2550.206305
428.019662	2550.407951
428.397508	2549.089689
428.775292	2549.671943
429.153016	2549.971891
429.530679	2551.766542
429.908282	2551.441388
430.285824	2551.703528
430.663305	2550.680173
431.040726	2549.911397
431.418086	2550.838970
431.795385	2553.420040
432.172624	2548.164638
432.549802	2552.608415
432.926920	2552.197561
433.303977	2550.657488
433.680974	2553.944320
434.057910	2550.355019
434.434786	2550.208825
434.811601	2549.472817
435.188355	2551.897612
435.565050	2553.815771
435.941683	2552.109340
436.318257	2553.725030
436.694770	2555.338199
437.071222	2550.138249
437.447614	2554.264434
437.823946	2555.376008
438.200218	2551.640513
438.576429	2551.441388
438.952580	2551.290153
439.328670	2552.247972
439.704700	2553.215874
440.080670	2554.955072
440.456580	2553.170503
440.832429	2555.134033
441.208218	2554.677808
441.583947	2556.139743
441.959616	2553.571275
442.335224	2555.076059
442.710773	2554.387942
443.086261	2553.480534
443.461689	2553.480534
443.837057	2554.526574
444.212365	2554.624876
444.587612	2552.752087
444.962800	2554.705535
445.337927	2551.867365
445.712995	2549.482899
446.088002	2553.644372
446.462949	2555.370967
446.837837	2553.057077
447.212664	2557.021945
447.587431	2554.476162
447.962139	2555.244938
448.336786	2554.997922
448.711374	2555.189485
449.085901	2555.786862
449.460369	2554.322407
449.834776	2558.607388
450.209124	2556.525391
450.583412	2557.221070
450.957640	2557.636966
451.331808	2557.074877
451.705917	2556.926163
452.079965	2555.726368
452.453954	2555.330638
452.827883	2555.907850
453.201752	2558.861966
453.575562	2556.570762
453.949311	2557.500854
454.323001	2558.035217
454.696632	2557.831050
455.070202	2555.708724
455.443713	2558.718293
455.817164	2557.077398
456.190556	2555.451625
456.563888	2555.655792
456.937160	2558.136040
457.310373	2558.579661
457.683526	2557.216029
458.056619	2559.484548
458.429653	2554.350133
458.802628	2557.251317
459.175542	2558.655279
459.548398	2559.408931
459.921194	2558.413303
460.293930	2559.000598
460.666607	2558.128478
461.039224	2560.286092
461.411782	2562.237018
461.784280	2560.291133
462.156719	2559.590413
462.529099	2560.558314
462.901419	2559.741647
463.273680	2558.156204
463.645882	2555.534804
464.018024	2557.329455
464.390106	2553.783003
464.762130	2560.016390
465.134094	2558.688046
465.505999	2560.570917
465.877845	2561.503531
466.249631	2565.889334
466.621358	2565.947308
466.993026	2565.760785
467.364634	2567.200034
467.736184	2563.938408
468.107674	2562.849519
468.479105	2563.651062
468.850477	2560.064281
469.221790	2561.498489
469.593043	2565.453275
469.964238	2558.587223
470.335373	2563.088973
470.706449	2561.571586
471.077467	2562.710887
471.448425	2566.196845
471.819324	2564.503017
472.190164	2565.314643
472.560945	2564.901268
472.931667	2563.648542
473.302330	2563.222564
473.672934	2564.271124
474.043479	2561.793397
474.413965	2566.141392
474.784393	2562.017728
475.154761	2565.481001
475.525070	2560.644014
475.895321	2563.928326
476.265513	2565.561659
476.635645	2567.237843
477.005719	2565.410425
477.375734	2566.794222
477.745691	2567.477298
478.115588	2566.103583
478.485427	2568.364541
478.855207	2566.814386
479.224928	2568.296485
479.594591	2568.278841
479.964194	2567.290775
480.333739	2570.254974
480.703226	2567.701629
481.072653	2569.392936
481.442022	2568.810683
481.811333	2567.409242
482.180584	2564.248439
482.549777	2568.543502
482.918912	2564.278686
483.287988	2568.964438
483.657005	2569.902093
484.025964	2571.744635
484.394864	2569.859243
484.763706	2570.176836
485.132489	2568.911506
485.501213	2568.621640
485.869879	2569.811352
486.238487	2569.922257
486.607036	2570.965776
486.975527	2572.941909
487.343959	2573.065417
487.712333	2572.208421
488.080648	2572.815880
488.448905	2572.054666
488.817104	2569.080385
489.185244	2571.301013
489.553326	2568.425035
489.921350	2573.841755
490.289315	2575.240675
490.657222	2574.315623
491.025070	2572.712536
491.392861	2572.205900
491.760593	2574.499625
492.128267	2573.004923
492.495883	2573.889646
492.863440	2571.711867
493.230939	2572.828483
493.598380	2573.834193
493.965763	2571.227916
494.333088	2570.985941
494.700354	2572.001733
495.067563	2572.077351
495.434713	2573.708164
495.801805	2571.676579
496.168839	2570.106260
496.535815	2571.908472
496.902733	2571.197669
497.269593	2572.160530
497.636395	2571.542988
498.003139	2573.118349
498.369825	2569.433266
498.736453	2572.659604
499.103023	2572.289079
499.469535	2572.047104
499.835989	2573.269584
500.202385	2573.418298
500.568723	2567.636094
500.935003	2569.919737
501.301226	2567.883111
501.667390	2575.797722
502.033497	2574.431570
502.399546	2572.694892
502.765537	2573.204049
503.131470	2574.620613
503.497345	2572.077351
503.863163	2572.412587
504.228923	2576.034657
504.594625	2574.340829
504.960269	2573.514080
505.325856	2576.022054
505.691385	2572.841086
506.056856	2574.164388
506.422270	2575.414595
506.787625	2573.935016
507.152924	2575.134811
507.518164	2573.723287
507.883347	2577.375603
508.248472	2574.174471
508.613540	2575.974163
508.978550	2578.512384
509.343503	2575.938875
509.708398	2578.454410
510.073236	2576.750500
510.438016	2578.971129
510.802738	2575.613720
511.167403	2578.018351
511.532010	2578.023392
511.896561	2580.435584
512.261053	2579.460121
512.625488	2581.156469
512.989866	2581.521952
513.354186	2581.038002
513.718449	2582.746953
514.082655	2583.132601
514.446803	2583.477920
514.810894	2582.094123
515.174927	2584.506316
515.538904	2585.766604
515.902822	2586.391707
516.266684	2582.943558
516.630488	2585.796851
516.994235	2586.346337
517.357925	2586.696697
517.721558	2588.027562
518.085133	2587.541090
518.448651	2587.324321
518.812112	2587.112592
519.175516	2592.320104
519.538863	2588.299784
519.902152	2588.624938
520.265385	2594.848243
520.628560	2594.593664
520.991678	2592.123499
521.354739	2595.685074
521.717743	2593.928232
522.080690	2596.509303
522.443580	2598.790425
522.806413	2599.549119
523.169189	2600.844695
523.531908	2600.746393
523.894569	2601.424428
524.257174	2602.258739
524.619722	2600.736310
524.982213	2603.040118
525.344647	2601.958790
525.707025	2605.664038
526.069345	2603.619850
526.431608	2602.992227
526.793815	2609.066817
527.155964	2608.061107
527.518057	2607.060438
527.880093	2612.038577
528.242072	2608.779471
528.603995	2613.019082
528.965860	2613.137549
529.327669	2610.289297
529.689421	2614.695265
530.051117	2614.670060
530.412755	2612.356170
530.774337	2614.211315
531.135862	2615.169134
531.497331	2614.302055
531.858743	2616.701645
532.220098	2616.406737
532.581396	2620.411934
532.942638	2620.222891
533.303824	2620.071656
533.664953	2621.548714
534.026025	2620.860597
534.387040	2622.761112
534.747999	2628.165228
535.108902	2626.541977
535.469748	2623.799589
535.830537	2624.714559
536.191270	2628.782770
536.551947	2623.592902
536.912567	2624.006277
537.273131	2627.673716
537.633638	2626.100876
537.994089	2631.134468
538.354483	2631.134468
538.714821	2635.863070
539.075103	2634.396095
539.435328	2633.987761
539.795497	2634.728811
540.155609	2633.269397
540.515665	2636.029428
540.875665	2634.433903
541.235609	2636.442803
541.595496	2637.519089
541.955328	2638.174439
542.315102	2639.943884
542.674821	2639.681744
543.034483	2637.652680
543.394090	2642.381282
543.753640	2641.007568
544.113134	2643.518062
544.472571	2643.954122
544.831953	2642.923206
545.191278	2644.160810
545.550548	2645.201808
545.909761	2646.565440
546.268918	2647.712302
546.628019	2649.683394
546.987064	2651.359577
547.346053	2647.911428
547.704986	2647.724905
548.063863	2650.600884
548.422684	2649.635503
548.781449	2652.854279
549.140158	2652.214053
549.498811	2653.524753
549.857408	2651.898981
550.215949	2655.228663
550.574434	2653.809578
550.932864	2656.347799
551.291237	2657.981133
551.649555	2657.151863
552.007817	2658.722182
552.366022	2658.583551
552.724173	2658.800320
553.082267	2661.031031
553.440305	2661.948521
553.798288	2661.963644
554.156215	2662.598830
554.514086	2664.446413
554.871902	2659.269148
555.229661	2663.133192
555.587365	2659.826195
555.945014	2667.090498
556.302606	2666.689726
556.660143	2666.581341
557.017625	2672.199707
557.375050	2669.469922
557.732421	2673.311282
558.089735	2670.904131
558.446994	2673.926302
558.804197	2675.242044
559.161345	2677.195491
559.518437	2675.829338
559.875474	2676.656087
560.232455	2678.629699
560.589381	2681.112467
560.946251	2682.176151
561.303065	2683.988446
561.659825	2689.387521
562.016528	2684.318641
562.373177	2686.035154
562.729770	2687.053467
563.086307	2688.180165
563.442789	2692.200485
563.799216	2694.196782
564.155587	2698.023018
564.511904	2696.805579
564.868164	2696.576207
565.224370	2700.861187
565.580520	2698.343131
565.936615	2704.266487
566.292654	2702.214737
566.648638	2705.904862
567.004567	2709.589945
567.360441	2708.564071
567.716260	2710.852754
568.072023	2714.694114
568.427732	2714.086655
568.783385	2713.244782
569.138982	2719.364743
569.494525	2722.144939
569.850013	2726.200547
570.205445	2726.155177
570.560823	2724.733572
570.916145	2730.556104
571.271412	2730.858573
571.626625	2740.870305
571.981782	2740.257805
572.336884	2740.580439
572.691931	2744.550347
573.046923	2741.036663
573.401860	2744.787282
573.756743	2753.999990
574.111570	2756.006369
574.466342	2762.396032
574.821059	2763.121958
575.175722	2764.717483
575.530330	2771.487753
575.884882	2777.330450
576.239380	2778.041253
576.593823	2785.088786
576.948211	2785.572737
577.302544	2787.437964
577.656823	2787.571554
578.011047	2794.755198
578.365216	2799.718214
578.719330	2805.699543
579.073389	2807.010243
579.427394	2819.693787
579.781344	2816.233034
580.135239	2823.325938
580.489080	2827.870538
580.842866	2830.091166
581.196597	2852.428519
581.550273	2847.145390
581.903895	2860.605271
582.257463	2867.620036
582.610975	2871.347969
582.964434	2880.333826
583.317837	2889.329765
583.671186	2899.089439
584.024481	2911.669638
584.377721	2912.299783
584.730906	2922.160280
585.084037	2931.168822
585.437113	2939.963114
585.790135	2950.473920
586.143103	2955.048767
586.496016	2957.362657
586.848874	2978.737149
587.201679	2982.066831
587.554428	2987.899446
587.907124	3009.042046
588.259765	3018.063190
588.612352	3038.646222
588.964884	3038.817621
589.317362	3053.172306
589.669786	3070.072775
590.022155	3078.710792
590.374470	3096.342227
590.726731	3109.411419
591.078937	3111.931996
591.431090	3129.109727
591.783188	3134.009729
592.135232	3142.541882
592.487222	3169.587672
592.839157	3179.173426
593.191038	3192.676157
593.542866	3201.019266
593.894639	3210.226934
594.246358	3233.353227
594.598022	3242.946543
594.949633	3250.412492
595.301190	3262.410438
595.652692	3287.853141
596.004141	3305.396357
596.355535	3300.203968
596.706876	3317.364056
597.058162	3330.677743
597.409395	3349.146010
597.760573	3374.797922
598.111698	3382.778068
598.462768	3401.667272
598.813785	3419.117226
599.164748	3421.234510
599.515657	3445.051442
599.866511	3455.347998
600.217312	3488.964933
600.568060	3487.571054
600.918753	3530.637631
601.269392	3548.790826
601.619978	3550.565312
601.970510	3595.386211
602.320988	3608.891462
602.671412	3645.492760
603.021783	3659.544976
603.372100	3665.407838
603.722363	3701.719269
604.072572	3723.134091
604.422728	3752.100561
604.772830	3771.957666
605.122878	3777.888583
605.472872	3815.538441
605.822813	3843.622709
606.172701	3864.631717
606.522534	3905.409611
606.872314	3929.970112
607.222041	3942.857822
607.571714	3986.811643
607.921333	4007.951721
608.270899	4043.965724
608.620411	4097.752315
608.969870	4090.641768
609.319276	4131.109630
609.668627	4173.823327
610.017926	4219.113053
610.367171	4259.777521
610.716362	4311.895490
611.065500	4317.521417
611.414585	4366.241649
611.763616	4392.412799
612.112594	4426.314558
612.461518	4447.210141
612.810389	4505.493441
613.159207	4518.199670
613.507971	4549.021284
613.856682	4637.513699
614.205340	4663.069828
614.553945	4739.241663
614.902496	4719.520669
615.250994	4808.708763
615.599439	4838.796890
615.947830	4876.260224
616.296169	4910.860184
616.644454	4959.986228
616.992686	4981.060772
617.340864	5069.570830
617.688990	5084.888376
618.037063	5170.275440
618.385082	5195.544224
618.733048	5275.244866
619.080961	5298.671108
619.428821	5361.181416
619.776628	5403.441408
620.124382	5420.054531
620.472083	5475.633252
620.819731	5530.226428
621.167326	5506.028889
621.514868	5542.030289
621.862357	5554.250046
622.209793	5583.599644
622.557176	5584.970838
622.904506	5576.826854
623.251783	5594.760759
623.599007	5609.317090
623.946179	5634.137211
624.293297	5658.669987
624.640363	5655.610006
624.987376	5677.680178
625.334336	5671.159445
625.681243	5681.950035
626.028097	5715.307350
626.374899	5772.108551
626.721647	5751.923771
627.068343	5766.414568
627.414987	5790.294513
627.761577	5849.117217
628.108115	5907.095528
628.454600	5854.196180
628.801032	5915.579789
629.147412	5946.993740
629.493739	5992.623744
629.840014	6003.678994
630.186236	6059.749228
630.532405	6046.372526
630.878521	6140.649665
631.224585	6149.333052
631.570597	6170.309293
631.916556	6195.414239
632.262462	6226.167798
632.608316	6269.967864
632.954117	6296.146576
633.299866	6339.886147
633.645562	6363.932451
633.991206	6321.924516
634.336797	6301.616227
634.682336	6357.363827
635.027823	6348.297312
635.373257	6368.101485
635.718639	6349.950811
636.063968	6371.005190
636.409245	6343.712383
636.754470	6384.674278
637.099642	6380.303598
637.444762	6333.907338
637.789829	6399.215487
638.134845	6374.841508
638.479808	6426.047028
638.824719	6445.248783
639.169577	6421.794815
639.514383	6475.415047
639.859137	6452.291275
640.203839	6519.552870
640.548489	6482.208002
640.893086	6540.040119
641.237632	6499.370611
641.582125	6615.120544
641.926566	6590.907882
642.270955	6616.902592
642.615292	6645.574154
642.959576	6684.214599
643.303809	6743.357416
643.647990	6738.260809
643.992118	6822.974879
644.336195	6744.327838
