Dividing Wavelength (nm)	Counts (n)	Blue Motor Position (mm): 11.800000	Red Motor Position (mm): 0.000000	
326.493990	2060.435523
326.888308	2060.435523
327.282561	2060.435523
327.676750	2036.810156
328.070874	2037.546164
328.464933	2044.392051
328.858929	2053.503937
329.252859	2064.304609
329.646726	2076.489078
330.040528	2092.509865
330.434265	2108.470158
330.827938	2133.953191
331.221547	2152.769297
331.615091	2170.816628
332.008571	2195.130113
332.401986	2213.064018
332.795338	2232.941288
333.188625	2252.808475
333.581847	2271.922010
333.975006	2289.994546
334.368100	2307.711681
334.761129	2324.544094
335.154095	2339.642350
335.546996	2375.542927
335.939833	2450.323403
336.332606	2457.625514
336.725315	2471.826445
337.117960	2482.193578
337.510540	2492.500217
337.903056	2498.542040
338.295508	2507.409429
338.687896	2511.591066
339.080220	2516.110461
339.472480	2522.840401
339.864676	2527.823582
340.256807	2528.257121
340.648875	2530.586134
341.040879	2531.675023
341.432818	2532.491690
341.824694	2531.493542
342.216506	2532.184180
342.608253	2532.985723
342.999937	2530.689478
343.391557	2531.231402
343.783113	2530.203006
344.174605	2527.919364
344.566033	2528.025228
344.957397	2523.500792
345.348697	2524.204033
345.739934	2521.166738
346.131106	2520.788652
346.522215	2517.584998
346.913260	2518.535256
347.304241	2514.366222
347.695159	2510.343381
348.086012	2511.674245
348.476802	2507.626199
348.867528	2505.561846
349.258191	2502.466578
349.648789	2502.847185
350.039324	2498.037924
350.429796	2502.670745
350.820203	2503.134531
351.210548	2502.882473
351.600828	2500.712256
351.991045	2499.797287
352.381198	2498.269817
352.771288	2497.571617
353.161314	2497.654797
353.551276	2499.744355
353.941175	2496.283603
354.331010	2497.087667
354.720782	2502.595127
355.110490	2500.467760
355.500135	2500.407267
355.889717	2499.484735
356.279235	2499.492297
356.668689	2500.392143
357.058080	2498.017760
357.447408	2503.152175
357.836672	2503.989006
358.225873	2503.850375
358.615010	2503.676455
359.004084	2503.787360
359.393095	2507.600993
359.782043	2503.557988
360.170927	2504.578821
360.559748	2503.754593
360.948505	2505.922289
361.337199	2507.454800
361.725830	2503.396671
362.114398	2509.120901
362.502903	2507.996724
362.891344	2509.151148
363.279722	2509.725839
363.668037	2509.007475
364.056289	2508.077382
364.444478	2513.967970
364.832603	2508.833555
365.220665	2509.743483
365.608665	2511.013854
365.996601	2510.575274
366.384474	2514.464524
366.772284	2511.195336
367.160031	2510.565192
367.547715	2511.633916
367.935336	2510.605521
368.322893	2513.300017
368.710388	2507.984121
369.097820	2508.468072
369.485189	2510.650891
369.872495	2513.461334
370.259738	2515.999555
370.646918	2512.654750
371.034035	2514.928310
371.421090	2513.587363
371.808081	2514.976201
372.195010	2515.734895
372.581875	2516.448218
372.968678	2514.832528
373.355418	2515.492919
373.742096	2515.986953
374.128710	2516.055008
374.515262	2516.112981
374.901751	2516.299504
375.288177	2514.698938
375.674540	2517.930317
376.060841	2517.307735
376.447079	2517.118692
376.833254	2519.818229
377.219367	2517.723630
377.605417	2520.198837
377.991404	2518.250431
378.377329	2516.788496
378.763191	2520.345030
379.148991	2519.092303
379.534727	2517.728671
379.920402	2519.233456
380.306013	2520.513909
380.691563	2521.963240
381.077049	2519.767818
381.462474	2517.635410
381.847835	2521.812006
382.233134	2518.900739
382.618371	2519.762777
383.003545	2522.240504
383.388657	2521.262520
383.773706	2523.278982
384.158693	2523.452901
384.543618	2520.934845
384.928480	2522.840401
385.313280	2521.118847
385.698017	2521.854856
386.082692	2522.674043
386.467305	2520.269413
386.851856	2522.308559
387.236344	2521.504495
387.620770	2519.387211
388.005133	2518.502488
388.389435	2522.021214
388.773674	2520.324865
389.157851	2525.290402
389.541965	2523.818385
389.926018	2525.134126
390.310008	2522.931142
390.693936	2521.580113
391.077802	2523.692356
391.461606	2529.691329
391.845348	2528.403314
392.229027	2526.628828
392.612645	2524.304856
392.996200	2524.831657
393.379694	2526.913653
393.763125	2527.533715
394.146494	2528.131092
394.529801	2527.221164
394.913047	2528.443644
395.296230	2527.710156
395.679351	2526.898530
396.062410	2525.935670
396.445408	2525.703777
396.828343	2528.675537
397.211217	2525.930628
397.594028	2527.072450
397.976778	2529.461957
398.359466	2525.456760
398.742092	2528.395753
399.124656	2527.165711
399.507158	2528.799045
399.889598	2528.985568
400.271977	2529.225022
400.654294	2531.372554
401.036549	2528.211751
401.418742	2531.044879
401.800874	2529.073788
402.182944	2532.098480
402.564952	2531.115455
402.946898	2530.366844
403.328783	2530.475229
403.710606	2530.278624
404.092367	2533.845240
404.474067	2532.542102
404.855705	2532.176618
405.237282	2531.080167
405.618797	2533.346166
406.000250	2532.325332
406.381642	2534.097298
406.762972	2530.114786
407.144240	2528.972965
407.525447	2529.875331
407.906593	2531.783408
408.287677	2533.416742
408.668700	2534.482946
409.049661	2534.377082
409.430560	2531.453213
409.811399	2534.626619
410.192176	2530.946577
410.572891	2533.930940
410.953545	2534.223327
411.334138	2533.131917
411.714669	2535.216434
412.095139	2536.643080
412.475547	2536.451517
412.855894	2535.670138
413.236180	2533.943543
413.616405	2536.630478
413.996568	2533.746938
414.376670	2536.927906
414.756711	2534.160312
415.136691	2536.859850
415.516609	2537.782381
415.896466	2537.220293
416.276262	2534.868594
416.655997	2535.264325
417.035670	2535.841537
417.415283	2537.694161
417.794834	2535.531506
418.174324	2536.176774
418.553753	2536.756506
418.933121	2537.432021
419.312428	2538.024357
419.691674	2536.005374
420.070859	2536.179294
420.449983	2538.125180
420.829045	2536.070909
421.208047	2536.658204
421.586988	2534.346835
421.965867	2537.865560
422.344686	2536.307844
422.723444	2535.468492
423.102141	2535.609644
423.480777	2537.033770
423.859352	2537.028729
424.237866	2535.791125
424.616319	2535.982689
424.994712	2539.700540
425.373044	2536.282638
425.751314	2539.130890
426.129524	2534.127545
426.507673	2534.709798
426.885762	2535.962525
427.263789	2536.759027
427.641756	2537.910931
428.019662	2537.706764
428.397508	2537.492515
428.775292	2538.447813
429.153016	2539.254398
429.530679	2537.837834
429.908282	2535.198790
430.285824	2536.617875
430.663305	2538.651980
431.040726	2538.662062
431.418086	2539.090561
431.795385	2539.128369
432.172624	2535.581917
432.549802	2538.226003
432.926920	2537.462268
433.303977	2536.476722
433.680974	2537.260622
434.057910	2540.325643
434.434786	2538.687268
434.811601	2538.493184
435.188355	2536.448996
435.565050	2536.880015
435.941683	2535.463450
436.318257	2539.163657
436.694770	2536.751465
437.071222	2541.787578
437.447614	2538.911600
437.823946	2539.100643
438.200218	2535.823893
438.576429	2539.919830
438.952580	2537.018646
439.328670	2536.607792
439.704700	2536.539737
440.080670	2539.594676
440.456580	2538.306661
440.832429	2536.776671
441.208218	2539.231713
441.583947	2535.496218
441.959616	2539.140972
442.335224	2538.397402
442.710773	2537.532844
443.086261	2537.179963
443.461689	2535.730632
443.837057	2540.063503
444.212365	2535.720549
444.587612	2536.806918
444.962800	2532.849612
445.337927	2539.151054
445.712995	2532.181659
446.088002	2537.121990
446.462949	2538.871270
446.837837	2538.997299
447.212664	2538.795653
447.587431	2538.500746
447.962139	2539.781199
448.336786	2538.231044
448.711374	2540.086188
449.085901	2540.187012
449.460369	2538.699871
449.834776	2538.742721
450.209124	2537.767258
450.583412	2543.693134
450.957640	2538.135262
451.331808	2539.385468
451.705917	2539.929913
452.079965	2537.394212
452.453954	2536.433873
452.827883	2540.688606
453.201752	2540.489481
453.575562	2539.297248
453.949311	2543.068031
454.323001	2538.042001
454.696632	2538.042001
455.070202	2538.538554
455.443713	2541.396888
455.817164	2536.796836
456.190556	2538.667104
456.563888	2541.074255
456.937160	2537.835313
457.310373	2537.860519
457.683526	2538.997299
458.056619	2538.107536
458.429653	2536.693492
458.802628	2539.065355
459.175542	2540.285314
459.548398	2540.277752
459.921194	2539.957639
460.293930	2543.887218
460.666607	2541.565767
461.039224	2542.205994
461.411782	2540.494522
461.784280	2542.707588
462.156719	2542.778165
462.529099	2541.515356
462.901419	2543.826725
463.273680	2538.742721
463.645882	2538.989737
464.018024	2539.047711
464.390106	2536.892618
464.762130	2541.543082
465.134094	2540.499563
465.505999	2540.822197
465.877845	2542.626930
466.249631	2543.584749
466.621358	2541.293545
466.993026	2542.715150
467.364634	2543.892260
467.736184	2541.260777
468.107674	2544.169523
468.479105	2544.918134
468.850477	2542.231199
469.221790	2541.180119
469.593043	2541.946374
469.964238	2543.279759
470.335373	2541.550644
470.706449	2542.513504
471.077467	2543.614996
471.448425	2543.088196
471.819324	2541.971580
472.190164	2547.048022
472.560945	2542.294214
472.931667	2541.777496
473.302330	2542.526107
473.672934	2543.960315
474.043479	2543.065510
474.413965	2543.226827
474.784393	2543.945192
475.154761	2547.690769
475.525070	2543.080634
475.895321	2540.320602
476.265513	2544.373690
476.635645	2543.189019
477.005719	2543.360418
477.375734	2544.330840
477.745691	2542.987372
478.115588	2543.962836
478.485427	2546.929555
478.855207	2546.233876
479.224928	2547.534493
479.594591	2546.644730
479.964194	2542.594163
480.333739	2542.430325
480.703226	2545.760007
481.072653	2548.230172
481.442022	2542.904193
481.811333	2544.323278
482.180584	2544.056097
482.549777	2543.831766
482.918912	2541.316230
483.287988	2546.077600
483.657005	2548.530121
484.025964	2546.402754
484.394864	2550.279402
484.763706	2545.886036
485.132489	2545.429812
485.501213	2549.319062
485.869879	2546.720347
486.238487	2545.840666
486.607036	2546.974925
486.975527	2545.359235
487.343959	2546.430481
487.712333	2547.428629
488.080648	2548.605738
488.448905	2547.458876
488.817104	2545.104657
489.185244	2549.795451
489.553326	2550.556665
489.921350	2550.254196
490.289315	2551.489278
490.657222	2552.326110
491.025070	2552.071532
491.392861	2550.218908
491.760593	2549.765204
492.128267	2549.518187
492.495883	2548.109185
492.863440	2551.804351
493.230939	2549.220759
493.598380	2550.418033
493.965763	2549.833259
494.333088	2547.060625
494.700354	2548.504915
495.067563	2548.182282
495.434713	2550.304607
495.801805	2550.420554
496.168839	2551.640513
496.535815	2549.170348
496.902733	2549.775286
497.269593	2552.179917
497.636395	2551.063301
498.003139	2550.634803
498.369825	2548.706562
498.736453	2550.052550
499.103023	2549.540873
499.469535	2550.042467
499.835989	2551.574978
500.202385	2547.186654
500.568723	2547.000131
500.935003	2548.068856
501.301226	2548.131870
501.667390	2552.573127
502.033497	2550.823846
502.399546	2551.688404
502.765537	2552.893240
503.131470	2550.307128
503.497345	2554.289639
503.863163	2550.430636
504.228923	2550.284443
504.594625	2554.418189
504.960269	2556.061605
505.325856	2555.461708
505.691385	2553.155380
506.056856	2555.444064
506.422270	2554.498847
506.787625	2555.393652
507.152924	2555.260062
507.518164	2554.766028
507.883347	2553.702345
508.248472	2556.797613
508.613540	2554.652602
508.978550	2559.053530
509.343503	2559.562686
509.708398	2557.576472
510.073236	2561.574107
510.438016	2559.865156
510.802738	2558.534291
511.167403	2563.121741
511.532010	2561.158212
511.896561	2560.923798
512.261053	2564.850857
512.625488	2565.304561
512.989866	2564.409756
513.354186	2566.073337
513.718449	2566.433779
514.082655	2568.551064
514.446803	2567.747000
514.810894	2570.726322
515.174927	2571.369069
515.538904	2568.765313
515.902822	2572.720098
516.266684	2573.372927
516.630488	2571.273287
516.994235	2575.069276
517.357925	2574.499625
517.721558	2575.898545
518.085133	2578.892991
518.448651	2577.173957
518.812112	2575.787640
519.175516	2577.249575
519.538863	2576.143041
519.902152	2582.205029
520.265385	2585.300297
520.628560	2585.721234
520.991678	2585.328024
521.354739	2587.319279
521.717743	2590.573344
522.080690	2588.211564
522.443580	2591.334558
522.806413	2593.212388
523.169189	2593.381267
523.531908	2595.816144
523.894569	2596.131216
524.257174	2596.867225
524.619722	2597.129365
524.982213	2599.349993
525.344647	2603.450972
525.707025	2604.832248
526.069345	2605.129676
526.431608	2605.411981
526.793815	2609.971704
527.155964	2608.812239
527.518057	2611.542024
527.880093	2612.255347
528.242072	2612.441870
528.603995	2610.677466
528.965860	2610.861468
529.327669	2617.198198
529.689421	2617.082252
530.051117	2620.976543
530.412755	2622.884620
530.774337	2622.098200
531.135862	2624.548201
531.497331	2626.748664
531.858743	2626.345372
532.220098	2628.686988
532.581396	2623.545011
532.942638	2629.317132
533.303824	2633.776033
533.664953	2633.004736
534.026025	2634.741414
534.387040	2636.140334
534.747999	2636.531023
535.108902	2640.211066
535.469748	2638.076137
535.830537	2641.791467
536.191270	2643.495377
536.551947	2644.768269
536.912567	2640.311889
537.273131	2647.702220
537.633638	2645.705923
537.994089	2647.898825
538.354483	2652.549290
538.714821	2654.923673
539.075103	2657.592964
539.435328	2658.172697
539.795497	2656.761174
540.155609	2657.504744
540.515665	2661.031031
540.875665	2661.852739
541.235609	2659.680002
541.595496	2663.813748
541.955328	2667.516475
542.315102	2667.516475
542.674821	2665.840292
543.034483	2669.230468
543.394090	2672.497135
543.753640	2670.609223
544.113134	2675.937723
544.472571	2672.232475
544.831953	2677.626509
545.191278	2677.893691
545.550548	2674.695078
545.909761	2679.811850
546.268918	2682.587005
546.628019	2683.504495
546.987064	2683.663291
547.346053	2679.103567
547.704986	2681.241017
548.063863	2683.620441
548.422684	2685.926769
548.781449	2684.651357
549.140158	2686.297294
549.498811	2688.790145
549.857408	2685.082376
550.215949	2691.020855
550.574434	2690.312573
550.932864	2688.275947
551.291237	2693.422965
551.649555	2691.068746
552.007817	2692.961699
552.366022	2691.792152
552.724173	2693.498582
553.082267	2694.824406
553.440305	2698.355734
553.798288	2695.199972
554.156215	2694.935311
554.514086	2698.083512
554.871902	2693.236442
555.229661	2697.365147
555.587365	2692.858356
555.945014	2699.444623
556.302606	2698.184335
556.660143	2701.188862
557.017625	2700.687268
557.375050	2701.987885
557.732421	2705.342773
558.089735	2705.335212
558.446994	2706.005685
558.804197	2705.720860
559.161345	2706.300592
559.518437	2705.189018
559.875474	2706.154399
560.232455	2711.684545
560.589381	2709.625233
560.946251	2710.857796
561.303065	2712.468444
561.659825	2712.405430
562.016528	2712.952395
562.373177	2712.186140
562.729770	2714.069011
563.086307	2713.017930
563.442789	2718.046481
563.799216	2719.458004
564.155587	2719.347099
564.511904	2721.671071
564.868164	2720.425906
565.224370	2725.099055
565.580520	2724.728530
565.936615	2725.867831
566.292654	2727.783470
566.648638	2728.882441
567.004567	2733.109449
567.360441	2734.145406
567.716260	2737.502814
568.072023	2741.535737
568.427732	2742.145717
568.783385	2740.240161
569.138982	2745.213259
569.494525	2751.570154
569.850013	2749.588981
570.205445	2754.476379
570.560823	2753.987387
570.916145	2758.287492
571.271412	2759.998963
571.626625	2761.972575
571.981782	2764.656989
572.336884	2766.902823
572.691931	2770.482043
573.046923	2774.399019
573.401860	2776.987652
573.756743	2784.211625
574.111570	2786.147428
574.466342	2792.527008
574.821059	2800.086219
575.175722	2799.871970
575.530330	2805.160140
575.884882	2807.088381
576.239380	2812.358908
576.593823	2822.390804
576.948211	2820.502892
577.302544	2826.275013
577.656823	2832.394974
578.011047	2840.309585
578.365216	2846.979032
578.719330	2852.085721
579.073389	2858.049406
579.427394	2867.367978
579.781344	2869.412166
580.135239	2879.257540
580.489080	2888.697100
580.842866	2892.072153
581.196597	2904.604461
581.550273	2917.605597
581.903895	2924.350661
582.257463	2936.217537
582.610975	2944.023764
582.964434	2961.388018
583.317837	2965.816672
583.671186	2978.394351
584.024481	2993.522853
584.377721	3000.388905
584.730906	3011.862571
585.084037	3021.649971
585.437113	3032.196065
585.790135	3049.953530
586.143103	3054.419992
586.496016	3072.512693
586.848874	3085.236565
587.201679	3100.735593
587.554428	3109.020729
587.907124	3129.190386
588.259765	3144.318888
588.612352	3161.831857
588.964884	3170.512724
589.317362	3192.091383
589.669786	3211.310782
590.022155	3224.422823
590.374470	3246.873602
590.726731	3259.131167
591.078937	3265.949328
591.431090	3291.192906
591.783188	3300.783701
592.135232	3316.776762
592.487222	3342.249712
592.839157	3362.704194
593.191038	3380.176833
593.542866	3395.529667
593.894639	3408.482912
594.246358	3433.794545
594.598022	3455.610138
594.949633	3468.996923
595.301190	3491.104903
595.652692	3514.742873
596.004141	3545.461144
596.355535	3544.611710
596.706876	3565.058630
597.058162	3587.529573
597.409395	3623.848566
597.760573	3649.034170
598.111698	3667.878003
598.462768	3692.771221
598.813785	3718.655026
599.164748	3734.025504
599.515657	3769.701749
599.866511	3780.691465
600.217312	3831.836491
600.568060	3826.296263
600.918753	3882.396744
601.269392	3912.510076
601.619978	3934.237449
601.970510	3970.004436
602.320988	4005.156402
602.671412	4048.122156
603.021783	4077.282710
603.372100	4093.684104
603.722363	4125.700472
604.072572	4168.172193
604.422728	4196.100186
604.772830	4229.674270
605.122878	4269.353192
605.472872	4300.910815
605.822813	4346.576108
606.172701	4372.878328
606.522534	4419.854320
606.872314	4474.530674
607.222041	4501.531094
607.571714	4558.816246
607.921333	4568.749840
608.270899	4624.343684
608.620411	4683.872150
608.969870	4717.960432
609.319276	4759.156741
609.668627	4805.300943
610.017926	4871.856777
610.367171	4925.857617
610.716362	4971.689267
611.065500	5016.341287
611.414585	5075.398404
611.763616	5134.659688
612.112594	5181.701215
612.461518	5238.348661
612.810389	5311.415145
613.159207	5349.853943
613.507971	5404.230349
613.856682	5491.923741
614.205340	5533.147776
614.553945	5637.557634
614.902496	5645.716742
615.250994	5723.708433
615.599439	5792.936078
615.947830	5858.813877
616.296169	5923.658238
616.644454	5991.817159
616.992686	6066.285084
617.340864	6173.646537
617.688990	6197.095464
618.037063	6323.154557
618.385082	6378.516509
618.733048	6477.302960
619.080961	6532.221290
619.428821	6603.750222
619.776628	6668.665160
620.124382	6710.148815
620.472083	6780.898888
620.819731	6855.989395
621.167326	6864.355190
621.514868	6920.133037
621.862357	6930.842968
622.209793	6990.217678
622.557176	7002.704616
622.904506	7029.919285
623.251783	7043.752212
623.599007	7067.937147
623.946179	7116.664940
624.293297	7146.004456
624.640363	7142.737788
624.987376	7184.811258
625.334336	7217.120013
625.681243	7237.577015
626.028097	7282.418079
626.374899	7329.036149
626.721647	7393.724235
627.068343	7434.401305
627.414987	7463.503887
627.761577	7497.667786
628.108115	7603.998324
628.454600	7579.268943
628.801032	7681.289294
629.147412	7739.433963
629.493739	7794.080071
629.840014	7807.492060
630.186236	7936.538037
630.532405	7928.552849
630.878521	8039.110394
631.224585	8086.192251
631.570597	8112.892722
631.916556	8210.645736
632.262462	8268.636650
632.608316	8332.981937
632.954117	8385.445225
633.299866	8447.506870
633.645562	8503.645160
633.991206	8485.262592
634.336797	8479.510636
634.682336	8521.412706
635.027823	8547.800626
635.373257	8590.710928
635.718639	8595.467256
636.063968	8645.417529
636.409245	8589.538859
636.754470	8648.653950
637.099642	8676.024895
637.444762	8631.834140
637.789829	8722.562307
638.134845	8726.988440
638.479808	8767.829347
638.824719	8833.061878
639.169577	8800.538874
639.514383	8888.189416
639.859137	8880.209270
640.203839	8974.708219
640.548489	8990.366043
640.893086	9057.088235
641.237632	9072.942663
641.582125	9152.973501
641.926566	9181.582049
642.270955	9265.421479
642.615292	9320.042381
642.959576	9364.308753
643.303809	9435.885576
643.647990	9529.222539
643.992118	9591.201005
644.336195	9629.629721
