Dividing Wavelength (nm)	Counts (n)	Blue Motor Position (mm): 25.700000	Red Motor Position (mm): 0.000000	
326.493990	2132.208951
326.888308	2132.208951
327.282561	2132.208951
327.676750	2101.765423
328.070874	2098.312233
328.464933	2102.214086
328.858929	2108.828080
329.252859	2115.812598
329.646726	2130.331122
330.040528	2142.883595
330.434265	2159.620225
330.827938	2175.981290
331.221547	2191.881089
331.615091	2214.629296
332.008571	2231.083622
332.401986	2254.358630
332.795338	2271.682555
333.188625	2291.637962
333.581847	2311.384162
333.975006	2329.053406
334.368100	2345.540500
334.761129	2361.813344
335.154095	2383.926366
335.546996	2403.594427
335.939833	2423.380956
336.332606	2439.111877
336.725315	2452.400358
337.117960	2460.738427
337.510540	2469.958697
337.903056	2480.174596
338.295508	2487.055771
338.687896	2497.601864
339.080220	2503.507576
339.472480	2511.470079
339.864676	2515.094668
340.256807	2521.333096
340.648875	2523.468025
341.040879	2526.114631
341.432818	2527.682429
341.824694	2527.750485
342.216506	2527.251411
342.608253	2531.357431
342.999937	2529.335928
343.391557	2529.900537
343.783113	2529.978675
344.174605	2526.636390
344.566033	2524.801410
344.957397	2523.163035
345.348697	2520.342509
345.739934	2521.164218
346.131106	2517.340502
346.522215	2519.818229
346.913260	2513.758762
347.304241	2512.977384
347.695159	2514.338495
348.086012	2511.361694
348.476802	2506.355828
348.867528	2505.801301
349.258191	2504.984634
349.648789	2503.068996
350.039324	2503.389109
350.429796	2500.792915
350.820203	2502.627895
351.210548	2497.856443
351.600828	2499.189828
351.991045	2498.116062
352.381198	2498.126144
352.771288	2495.615650
353.161314	2496.986844
353.551276	2497.160763
353.941175	2495.066164
354.331010	2496.185300
354.720782	2496.974241
355.110490	2497.236381
355.500135	2495.885352
355.889717	2495.973572
356.279235	2492.916112
356.668689	2497.551453
357.058080	2495.398880
357.447408	2493.921822
357.836672	2493.208499
358.225873	2494.277223
358.615010	2493.417707
359.004084	2499.492297
359.393095	2496.946514
359.782043	2499.744355
360.170927	2501.289468
360.559748	2502.721156
360.948505	2503.273163
361.337199	2503.714263
361.725830	2503.230313
362.114398	2503.399191
362.502903	2501.198728
362.891344	2504.243585
363.279722	2505.085457
363.668037	2504.649397
364.056289	2506.232320
364.444478	2507.013699
364.832603	2504.974552
365.220665	2509.201559
365.608665	2506.058400
365.996601	2505.733246
366.384474	2506.025633
366.772284	2506.464213
367.160031	2509.864471
367.547715	2510.144255
367.935336	2509.796416
368.322893	2507.792557
368.710388	2507.396826
369.097820	2510.240037
369.485189	2509.486385
369.872495	2510.545027
370.259738	2509.990500
370.646918	2509.446055
371.034035	2511.407064
371.421090	2510.570233
371.808081	2513.053001
372.195010	2511.354132
372.581875	2509.544358
372.968678	2514.278001
373.355418	2512.190964
373.742096	2513.801612
374.128710	2512.715244
374.515262	2514.545182
374.901751	2511.563340
375.288177	2514.298166
375.674540	2514.963598
376.060841	2511.160048
376.447079	2512.253978
376.833254	2514.905625
377.219367	2511.487723
377.605417	2514.739267
377.991404	2511.699451
378.377329	2510.224914
378.763191	2512.069976
379.148991	2518.802437
379.534727	2513.922600
379.920402	2519.765297
380.306013	2516.072652
380.691563	2516.395286
381.077049	2517.781603
381.462474	2515.828156
381.847835	2517.496778
382.233134	2518.124402
382.618371	2516.014679
383.003545	2518.706655
383.388657	2517.879906
383.773706	2518.152128
384.158693	2520.012314
384.543618	2519.982067
384.928480	2516.758249
385.313280	2517.610204
385.698017	2520.314783
386.082692	2520.511388
386.467305	2521.479290
386.851856	2519.213291
387.236344	2522.782428
387.620770	2520.229083
388.005133	2518.779752
388.389435	2521.280164
388.773674	2518.537776
389.157851	2519.722447
389.541965	2523.256296
389.926018	2522.026255
390.310008	2520.518950
390.693936	2523.324352
391.077802	2521.469207
391.461606	2524.468694
391.845348	2524.481297
392.229027	2523.742768
392.612645	2522.663961
392.996200	2525.113962
393.379694	2524.259486
393.763125	2523.326873
394.146494	2522.467356
394.529801	2525.272758
394.913047	2524.521626
395.296230	2529.078829
395.679351	2522.958868
396.062410	2526.187727
396.445408	2525.053468
396.828343	2525.401307
397.211217	2523.190761
397.594028	2524.771163
397.976778	2525.416431
398.359466	2523.616739
398.742092	2521.978364
399.124656	2527.934487
399.507158	2525.771832
399.889598	2525.287881
400.271977	2524.214116
400.654294	2525.885258
401.036549	2529.504807
401.418742	2527.858870
401.800874	2529.164529
402.182944	2525.539939
402.564952	2530.376926
402.946898	2527.649662
403.328783	2529.600588
403.710606	2529.522451
404.092367	2531.052441
404.474067	2530.571011
404.855705	2529.219981
405.237282	2531.392719
405.618797	2527.390042
406.000250	2529.202337
406.381642	2531.410363
406.762972	2533.232740
407.144240	2531.128058
407.525447	2532.779036
407.906593	2532.098480
408.287677	2530.838192
408.668700	2532.761392
409.049661	2528.483973
409.430560	2532.466484
409.811399	2533.174767
410.192176	2529.955990
410.572891	2531.680064
410.953545	2532.844571
411.334138	2534.472864
411.714669	2531.498583
412.095139	2534.971938
412.475547	2532.564787
412.855894	2534.946732
413.236180	2534.591331
413.616405	2533.525127
413.996568	2533.124355
414.376670	2536.181815
414.756711	2532.572349
415.136691	2534.974458
415.516609	2534.586290
415.896466	2538.888914
416.276262	2537.832793
416.655997	2533.394057
417.035670	2531.216278
417.415283	2535.377751
417.794834	2531.415404
418.174324	2533.658717
418.553753	2535.251722
418.933121	2536.194418
419.312428	2535.743234
419.691674	2536.880015
420.070859	2537.560570
420.449983	2540.323123
420.829045	2538.581404
421.208047	2538.528472
421.586988	2537.300951
421.965867	2542.649615
422.344686	2540.154244
422.723444	2539.463606
423.102141	2535.634850
423.480777	2537.041332
423.859352	2538.888914
424.237866	2540.882691
424.616319	2538.992258
424.994712	2538.042001
425.373044	2540.101312
425.751314	2541.028884
426.129524	2539.085519
426.507673	2538.692309
426.885762	2538.306661
427.263789	2542.596683
427.641756	2538.168029
428.019662	2543.539379
428.397508	2539.007382
428.775292	2541.495191
429.153016	2544.005686
429.530679	2543.685572
429.908282	2541.953936
430.285824	2541.840510
430.663305	2544.847558
431.040726	2543.514173
431.418086	2542.997455
431.795385	2543.950233
432.172624	2545.661705
432.549802	2544.905532
432.926920	2540.474357
433.303977	2547.758825
433.680974	2543.186498
434.057910	2544.214893
434.434786	2544.260264
434.811601	2546.233876
435.188355	2545.581046
435.565050	2546.405275
435.941683	2546.851417
436.318257	2542.420243
436.694770	2542.631971
437.071222	2545.278577
437.447614	2542.105171
437.823946	2545.384441
438.200218	2546.937117
438.576429	2550.055070
438.952580	2548.618341
439.328670	2548.094061
439.704700	2549.137580
440.080670	2550.707900
440.456580	2547.960471
440.832429	2552.520194
441.208218	2550.821326
441.583947	2551.338044
441.959616	2553.914073
442.335224	2551.065822
442.710773	2555.265103
443.086261	2551.970709
443.461689	2553.868703
443.837057	2554.239228
444.212365	2554.950031
444.587612	2558.451112
444.962800	2558.130999
445.337927	2559.363561
445.712995	2560.757440
446.088002	2564.641649
446.462949	2563.709035
446.837837	2570.675910
447.212664	2572.931826
447.587431	2577.962898
447.962139	2585.128898
448.336786	2596.065681
448.711374	2600.093563
449.085901	2595.004518
449.460369	2601.505086
449.834776	2604.149172
450.209124	2615.741305
450.583412	2625.778242
450.957640	2633.650004
451.331808	2638.759213
451.705917	2638.020684
452.079965	2642.983700
452.453954	2655.664723
452.827883	2662.611433
453.201752	2672.083761
453.575562	2675.791529
453.949311	2693.778366
454.323001	2701.188863
454.696632	2712.286963
455.070202	2729.711711
455.443713	2750.672829
455.817164	2765.841661
456.190556	2785.282870
456.563888	2804.540078
456.937160	2818.302428
457.310373	2821.291832
457.683526	2838.784636
458.056619	2847.004237
458.429653	2867.562063
458.802628	2880.399361
459.175542	2909.839700
459.548398	2959.822740
459.921194	3000.643483
460.293930	3028.763039
460.666607	3119.115640
461.039224	3185.011082
461.411782	3229.849625
461.784280	3257.374325
462.156719	3275.411574
462.529099	3288.619397
462.901419	3268.974020
463.273680	3282.310393
463.645882	3312.527069
464.018024	3341.344825
464.390106	3400.679206
464.762130	3500.504134
465.134094	3643.728356
465.505999	3910.775919
465.877845	4219.168506
466.249631	4394.305752
466.621358	4364.870455
466.993026	4297.750012
467.364634	4288.093682
467.736184	4269.658182
468.107674	4257.135956
468.479105	4341.585365
468.850477	4329.577337
469.221790	4334.971371
469.593043	4306.990447
469.964238	4339.243749
470.335373	4399.190630
470.706449	4480.451510
471.077467	4538.066857
471.448425	5036.301736
471.819324	5477.034693
472.190164	5550.017998
472.560945	5195.037588
472.931667	4995.775900
473.302330	5003.002394
473.672934	4937.848001
474.043479	5149.037059
474.413965	5194.188153
474.784393	5216.699426
475.154761	5350.136248
475.525070	5459.090706
475.895321	5447.117965
476.265513	5595.527014
476.635645	5742.832050
477.005719	5829.993600
477.375734	5956.284586
477.745691	6141.917515
478.115588	6294.709847
478.485427	6506.198853
478.855207	6868.123453
479.224928	7399.461068
479.594591	7835.893921
479.964194	7828.455699
480.333739	7893.090853
480.703226	7966.076678
481.072653	8103.397709
481.442022	8343.623813
481.811333	8540.143113
482.180584	8517.105040
482.549777	8441.311292
482.918912	8403.366527
483.287988	8510.488526
483.657005	8588.447450
484.025964	8469.685427
484.394864	8647.184454
484.763706	8719.517450
485.132489	8613.784289
485.501213	8675.787961
485.869879	8799.165160
486.238487	8772.467209
486.607036	8908.011233
486.975527	8829.633894
487.343959	9039.053507
487.712333	9139.591758
488.080648	9147.826483
488.448905	9255.266075
488.817104	9266.956510
489.185244	9541.959014
489.553326	9737.593592
489.921350	10226.257840
490.289315	11123.870571
490.657222	11463.755245
491.025070	11458.421705
491.392861	11419.350242
491.760593	11195.026457
492.128267	10977.160391
492.495883	10758.432287
492.863440	10523.055773
493.230939	10284.208424
493.598380	10266.254355
493.965763	10198.110558
494.333088	10137.309201
494.700354	10118.051994
495.067563	10207.963493
495.434713	10091.719527
495.801805	10243.296940
496.168839	10214.637981
496.535815	10185.507673
496.902733	10213.357528
497.269593	10184.249905
497.636395	10304.108379
498.003139	10332.001083
498.369825	10224.637109
498.736453	10402.239480
499.103023	10353.315082
499.469535	10408.266179
499.835989	10413.380430
500.202385	10405.231405
500.568723	10281.783629
500.935003	10514.032108
501.301226	10345.108083
501.667390	10606.693557
502.033497	10716.734383
502.399546	10600.397155
502.765537	10516.469506
503.131470	10609.992992
503.497345	10789.034612
503.863163	10423.399723
504.228923	10740.924360
504.594625	10809.143774
504.960269	10576.638197
505.325856	10801.801334
505.691385	10606.675912
506.056856	10771.191448
506.422270	10797.912084
506.787625	10698.684532
507.152924	10818.437142
507.518164	10802.189503
507.883347	10733.544111
508.248472	10660.858234
508.613540	10896.534697
508.978550	10782.589497
509.343503	10765.058884
509.708398	10886.485157
510.073236	10999.381797
510.438016	11007.606440
510.802738	10958.755138
511.167403	11018.707060
511.532010	10914.342573
511.896561	11149.484673
512.261053	11220.789274
512.625488	11091.576939
512.989866	11077.292830
513.354186	11067.152549
513.718449	10974.581841
514.082655	11167.395893
514.446803	11061.236755
514.810894	11190.068482
515.174927	11050.678058
515.538904	11081.391288
515.902822	11233.450132
516.266684	11118.579880
516.630488	11063.976622
516.994235	11123.048863
517.357925	11190.439007
517.721558	11273.832295
518.085133	11293.790223
518.448651	11300.419340
518.812112	11183.925837
519.175516	11207.233611
519.538863	11319.243009
519.902152	11242.078067
520.265385	11398.646223
520.628560	11312.291257
520.991678	11285.920982
521.354739	11355.705674
521.717743	11292.361056
522.080690	11267.540935
522.443580	11407.241390
522.806413	11354.047135
523.169189	11389.660366
523.531908	11449.720673
523.894569	11267.818198
524.257174	11284.242277
524.619722	11395.913918
524.982213	11344.642862
525.344647	11390.948381
525.707025	11346.036741
526.069345	11438.541914
526.431608	11354.500839
526.793815	11475.428037
527.155964	11263.384503
527.518057	11313.115486
527.880093	11259.701941
528.242072	11327.155100
528.603995	11235.451470
528.965860	11158.392392
529.327669	11208.652696
529.689421	11160.134111
530.051117	11134.633434
530.412755	11232.547765
530.774337	11119.245312
531.135862	11101.097158
531.497331	11118.131217
531.858743	10974.667540
532.220098	11142.580813
532.581396	11019.848882
532.942638	10998.938176
533.303824	10958.445107
533.664953	10983.227420
534.026025	10892.685776
534.387040	10986.589869
534.747999	10992.669501
535.108902	11047.923067
535.469748	10809.058075
535.830537	10907.005173
536.191270	10885.257636
536.551947	10917.818448
536.912567	10909.719835
537.273131	10835.052785
537.633638	10814.714249
537.994089	10807.104628
538.354483	10751.788047
538.714821	10904.408979
539.075103	10911.186811
539.435328	10878.656245
539.795497	10708.048475
540.155609	10860.762669
540.515665	10944.294588
540.875665	10684.602069
541.235609	10750.333674
541.595496	10750.782336
541.955328	10898.470500
542.315102	10788.059148
542.674821	10739.487631
543.034483	10736.241128
543.394090	10737.937476
543.753640	10670.711169
544.113134	10895.019830
544.472571	10750.631102
544.831953	10890.029088
545.191278	10700.610253
545.550548	10723.459282
545.909761	10862.761487
546.268918	10833.953813
546.628019	10915.764178
546.987064	10786.972780
547.346053	10702.407424
547.704986	10807.515482
548.063863	10788.354056
548.422684	10788.616196
548.781449	10703.287105
549.140158	10798.537187
549.498811	10678.517396
549.857408	10538.010356
550.215949	10764.887485
550.574434	10614.590524
550.932864	10713.036697
551.291237	10771.163721
551.649555	10720.003572
552.007817	10735.411858
552.366022	10692.418378
552.724173	10686.507625
553.082267	10675.467498
553.440305	10808.506068
553.798288	10611.840575
554.156215	10761.663667
554.514086	10740.939483
554.871902	10593.026988
555.229661	10630.132401
555.587365	10603.295819
555.945014	10500.476445
556.302606	10628.380600
556.660143	10522.649960
557.017625	10671.144708
557.375050	10569.958668
557.732421	10704.262569
558.089735	10613.201686
558.446994	10618.852820
558.804197	10654.113170
559.161345	10654.246761
559.518437	10500.650365
559.875474	10597.400189
560.232455	10626.427153
560.589381	10577.749772
560.946251	10565.920704
561.303065	10675.560759
561.659825	10612.518610
562.016528	10542.880111
562.373177	10417.367983
562.729770	10538.930367
563.086307	10449.936357
563.442789	10539.439523
563.799216	10421.819322
564.155587	10474.290171
564.511904	10429.504561
564.868164	10419.949053
565.224370	10431.523543
565.580520	10358.789775
565.936615	10365.343275
566.292654	10231.379653
566.648638	10367.268996
567.004567	10319.483898
567.360441	10304.917484
567.716260	10211.411642
568.072023	10306.036621
568.427732	10263.199416
568.783385	10171.463019
569.138982	10245.633515
569.494525	10263.481720
569.850013	10138.443461
570.205445	10209.712773
570.560823	10106.593451
570.916145	10025.246872
571.271412	10103.208316
571.626625	10053.704185
571.981782	10018.320327
572.336884	9992.653292
572.691931	9994.878961
573.046923	9944.943812
573.401860	9901.282378
573.756743	9845.454120
574.111570	9881.952074
574.466342	9867.857008
574.821059	9893.098065
575.175722	9786.974215
575.530330	9799.141040
575.884882	9783.490778
576.239380	9713.615344
576.593823	9693.712869
576.948211	9708.571670
577.302544	9593.396428
577.656823	9602.742727
578.011047	9602.987223
578.365216	9575.316329
578.719330	9502.335545
579.073389	9513.337863
579.427394	9466.371954
579.781344	9440.341956
580.135239	9389.075942
580.489080	9399.095235
580.842866	9302.937746
581.196597	9304.719794
581.550273	9353.548410
581.903895	9316.987442
582.257463	9375.827789
582.610975	9259.818237
582.964434	9285.651629
583.317837	9209.724291
583.671186	9190.212505
584.024481	9179.104322
584.377721	9102.602292
584.730906	9083.037574
585.084037	9115.800033
585.437113	9045.975011
585.790135	9073.792098
586.143103	8965.301426
586.496016	8942.626316
586.848874	8994.605653
587.201679	8982.408582
587.554428	8874.948826
587.907124	8923.091845
588.259765	8890.525991
588.612352	8891.599757
588.964884	8771.010316
589.317362	8791.026217
589.669786	8782.799054
590.022155	8832.986261
590.374470	8851.646092
590.726731	8784.281153
591.078937	8639.516859
591.431090	8748.214218
591.783188	8624.595043
592.135232	8621.676215
592.487222	8616.229248
592.839157	8670.847630
593.191038	8605.173998
593.542866	8549.262561
593.894639	8454.060370
594.246358	8500.686002
594.598022	8514.977673
594.949633	8420.912263
595.301190	8387.789362
595.652692	8418.071573
596.004141	8522.693159
596.355535	8305.033780
596.706876	8292.042727
597.058162	8220.239052
597.409395	8295.286709
597.760573	8355.384825
598.111698	8268.203110
598.462768	8256.502592
598.813785	8217.025317
599.164748	8189.175462
599.515657	8179.294801
599.866511	8091.687108
600.217312	8216.548928
600.568060	8072.404695
600.918753	8175.760952
601.269392	8144.336919
601.619978	8061.770381
601.970510	8118.163248
602.320988	8125.533415
602.671412	8176.199532
603.021783	8114.977239
603.372100	8085.844411
603.722363	8089.620235
604.072572	8069.500990
604.422728	8076.891322
604.772830	8001.783171
605.122878	8011.847834
605.472872	8005.558995
605.822813	8033.373561
606.172701	7981.994121
606.522534	8056.787200
606.872314	8054.359885
607.222041	8024.339814
607.571714	8076.558606
607.921333	8033.688633
608.270899	8045.643730
608.620411	8129.987275
608.969870	8042.366980
609.319276	8034.422121
609.668627	8053.644041
610.017926	8086.025893
610.367171	8132.006257
610.716362	8106.613965
611.065500	8099.843695
611.414585	8126.387891
611.763616	8111.786189
612.112594	8099.032070
612.461518	8110.747711
612.810389	8170.886156
613.159207	8112.325592
613.507971	8055.428609
613.856682	8182.881582
614.205340	8132.258315
614.553945	8209.519038
614.902496	8111.332485
615.250994	8165.318202
615.599439	8147.918659
615.947830	8157.524578
616.296169	8131.882749
616.644454	8140.417422
616.992686	8140.062021
617.340864	8199.955970
617.688990	8101.847554
618.037063	8200.225671
618.385082	8143.089234
618.733048	8231.705157
619.080961	8174.046959
619.428821	8193.039507
619.776628	8190.055143
620.124382	8139.968759
620.472083	8123.453939
620.819731	8155.165318
621.167326	8049.636324
621.514868	8050.755460
621.862357	7942.952905
622.209793	7958.799772
622.557176	7895.697129
622.904506	7863.544650
623.251783	7798.738097
623.599007	7751.716734
623.946179	7754.628001
624.293297	7718.515695
624.640363	7626.444061
624.987376	7616.858307
625.334336	7566.746717
625.681243	7521.419182
626.028097	7504.506111
626.374899	7479.421330
626.721647	7467.738456
627.068343	7404.988693
627.414987	7378.837708
627.761577	7330.825758
628.108115	7375.034157
628.454600	7262.548371
628.801032	7310.993859
629.147412	7274.122860
629.493739	7264.443845
629.840014	7195.390119
630.186236	7254.510251
630.532405	7140.920452
630.878521	7192.158740
631.224585	7149.656772
631.570597	7069.031077
631.916556	7104.369566
632.262462	7100.692044
632.608316	7058.603451
632.954117	7043.318672
633.299866	7033.672424
633.645562	7019.262286
633.991206	6937.759431
634.336797	6885.386884
634.682336	6840.997004
635.027823	6808.443753
635.373257	6798.973945
635.718639	6733.312917
636.063968	6747.145843
636.409245	6639.612990
636.754470	6638.128370
637.099642	6600.211332
637.444762	6540.675305
637.789829	6550.981944
638.134845	6492.512121
638.479808	6474.439584
638.824719	6479.604246
639.169577	6413.660913
639.514383	6430.493326
639.859137	6358.120000
640.203839	6370.296907
640.548489	6356.665627
640.893086	6332.589077
641.237632	6301.764942
