Dividing Wavelength (nm)	Counts (n)	Blue Motor Position (mm): 44.500000	Red Motor Position (mm): 0.000000	
326.493990	2153.449853
326.888308	2153.449853
327.282561	2153.449853
327.676750	2125.080760
328.070874	2129.332973
328.464933	2136.715743
328.858929	2141.320837
329.252859	2155.826757
329.646726	2168.815290
330.040528	2182.479338
330.434265	2203.052286
330.827938	2222.236397
331.221547	2238.274828
331.615091	2260.287027
332.008571	2281.714451
332.401986	2300.757410
332.795338	2321.526963
333.188625	2341.379027
333.581847	2361.089939
333.975006	2379.979142
334.368100	2396.589744
334.761129	2416.441808
335.154095	2435.147009
335.546996	2455.518312
335.939833	2489.185658
336.332606	2497.848881
336.725315	2514.507374
337.117960	2519.195647
337.510540	2527.989940
337.903056	2538.566281
338.295508	2544.852599
338.687896	2552.742005
339.080220	2559.550083
339.472480	2565.549057
339.864676	2571.764799
340.256807	2572.402505
340.648875	2574.398802
341.040879	2576.425346
341.432818	2575.843093
341.824694	2577.690676
342.216506	2578.852662
342.608253	2579.200501
342.999937	2577.678073
343.391557	2578.837538
343.783113	2577.438618
344.174605	2575.487691
344.566033	2571.815211
344.957397	2572.117680
345.348697	2569.176167
345.739934	2567.706670
346.131106	2566.622822
346.522215	2565.339849
346.913260	2562.622667
347.304241	2563.663665
347.695159	2558.927501
348.086012	2555.615463
348.476802	2556.371636
348.867528	2555.509599
349.258191	2554.007335
349.648789	2554.360216
350.039324	2552.293342
350.429796	2554.014897
350.820203	2549.324103
351.210548	2549.356870
351.600828	2548.779658
351.991045	2547.471479
352.381198	2544.852599
352.771288	2547.035419
353.161314	2548.630944
353.551276	2546.032229
353.941175	2546.483413
354.331010	2547.350491
354.720782	2547.678166
355.110490	2547.537014
355.500135	2549.646737
355.889717	2549.261088
356.279235	2547.693290
356.668689	2547.789072
357.058080	2549.732436
357.447408	2547.305121
357.836672	2545.142466
358.225873	2545.560882
358.615010	2547.174051
359.004084	2550.387786
359.393095	2550.128167
359.782043	2552.868034
360.170927	2551.058260
360.559748	2554.864331
360.948505	2553.170503
361.337199	2554.655123
361.725830	2555.562531
362.114398	2556.923642
362.502903	2555.963303
362.891344	2555.260062
363.279722	2555.963302
363.668037	2556.560679
364.056289	2555.166800
364.444478	2558.798952
364.832603	2559.862635
365.220665	2558.352809
365.608665	2560.228119
365.996601	2559.514795
366.384474	2560.981771
366.772284	2560.026473
367.160031	2563.129303
367.547715	2559.597974
367.935336	2560.407080
368.322893	2562.864642
368.710388	2560.598643
369.097820	2565.375137
369.485189	2563.366237
369.872495	2561.155691
370.259738	2562.345403
370.646918	2562.950342
371.034035	2562.103428
371.421090	2565.770867
371.808081	2565.682647
372.195010	2566.816907
372.581875	2563.182235
372.968678	2565.788511
373.355418	2565.423028
373.742096	2566.552246
374.128710	2565.889334
374.515262	2566.607699
374.901751	2568.354459
375.288177	2565.801114
375.674540	2568.291444
376.060841	2565.980075
376.447079	2569.372772
376.833254	2567.144582
377.219367	2563.772050
377.605417	2564.170301
377.991404	2567.401681
378.377329	2567.588203
378.763191	2565.705332
379.148991	2571.051476
379.534727	2571.038873
379.920402	2571.424521
380.306013	2571.427042
380.691563	2573.509038
381.077049	2571.792526
381.462474	2575.485171
381.847835	2575.185222
382.233134	2575.568350
382.618371	2576.780747
383.003545	2577.824266
383.388657	2581.406006
383.773706	2582.661253
384.158693	2583.465317
384.543618	2586.006059
384.928480	2590.686770
385.313280	2589.723910
385.698017	2595.821185
386.082692	2599.526433
386.467305	2600.020467
386.851856	2605.893411
387.236344	2610.261571
387.620770	2612.840121
388.005133	2615.403547
388.389435	2624.976699
388.773674	2627.855197
389.157851	2631.971300
389.541965	2639.583442
389.926018	2643.903711
390.310008	2653.902839
390.693936	2659.208654
391.077802	2664.688388
391.461606	2676.119204
391.845348	2683.577592
392.229027	2690.239476
392.612645	2701.503935
392.996200	2709.985676
393.379694	2720.473797
393.763125	2734.399984
394.146494	2745.044380
394.529801	2753.808426
394.913047	2772.490942
395.296230	2777.126283
395.679351	2787.377470
396.062410	2805.477733
396.445408	2808.676345
396.828343	2822.249652
397.211217	2832.047134
397.594028	2836.700119
397.976778	2851.778210
398.359466	2868.666076
398.742092	2872.078937
399.124656	2890.537122
399.507158	2906.683937
399.889598	2918.480237
400.271977	2936.764502
400.654294	2948.149948
401.036549	2964.362299
401.418742	2972.130717
401.800874	2999.478977
402.182944	3012.712006
402.564952	3042.011192
402.946898	3040.594628
403.328783	3053.351267
403.710606	3070.975141
404.092367	3100.849019
404.474067	3126.082514
404.855705	3124.207205
405.237282	3129.525622
405.618797	3162.056188
406.000250	3189.023841
406.381642	3221.330075
406.762972	3230.729307
407.144240	3222.093810
407.525447	3249.132039
407.906593	3250.720002
408.287677	3272.139865
408.668700	3296.602064
409.049661	3297.380922
409.430560	3314.924138
409.811399	3320.701300
410.192176	3343.348683
410.572891	3351.142307
410.953545	3389.172772
411.334138	3359.535828
411.714669	3413.135897
412.095139	3360.536498
412.475547	3410.403591
412.855894	3409.118097
413.236180	3436.874690
413.616405	3413.060279
413.996568	3440.738735
414.376670	3442.888787
414.756711	3438.429886
415.136691	3463.532312
415.516609	3486.164572
415.896466	3494.411900
416.276262	3521.238400
416.655997	3550.855179
417.035670	3562.318763
417.415283	3624.761015
417.794834	3648.177174
418.174324	3633.671254
418.553753	3631.306953
418.933121	3674.176925
419.312428	3663.101510
419.691674	3661.304339
420.070859	3697.547714
420.449983	3679.434849
420.829045	3726.156263
421.208047	3712.668655
421.586988	3756.803957
421.965867	3792.379380
422.344686	3798.431285
422.723444	3830.641738
423.102141	3743.351638
423.480777	3842.233871
423.859352	3812.284376
424.237866	3910.019746
424.616319	3897.089187
424.994712	3954.747384
425.373044	3940.985034
425.751314	4009.484232
426.129524	3940.425466
426.507673	4042.148388
426.885762	4016.607382
427.263789	4040.492369
427.641756	4048.036456
428.019662	4076.859253
428.397508	4075.762802
428.775292	4116.702013
429.153016	4121.070173
429.530679	4135.008963
429.908282	4142.621105
430.285824	4120.561016
430.663305	4195.608673
431.040726	4153.149555
431.418086	4142.837875
431.795385	4219.168506
432.172624	4251.918362
432.549802	4218.561047
432.926920	4239.915374
433.303977	4232.764498
433.680974	4274.371661
434.057910	4296.043581
434.434786	4300.704128
434.811601	4295.675577
435.188355	4402.101897
435.565050	4372.449830
435.941683	4367.539746
436.318257	4460.649857
436.694770	4466.434581
437.071222	4519.545658
437.447614	4456.405206
437.823946	4459.417295
438.200218	4476.416066
438.576429	4456.092654
438.952580	4482.467971
439.328670	4489.704548
439.704700	4530.273233
440.080670	4493.954240
440.456580	4556.464548
440.832429	4589.093416
441.208218	4497.306607
441.583947	4541.502403
441.959616	4559.960588
442.335224	4586.401440
442.710773	4609.706694
443.086261	4661.146628
443.461689	4616.338332
443.837057	4627.880054
444.212365	4702.088359
444.587612	4703.593143
444.962800	4670.218184
445.337927	4711.563208
445.712995	4600.078090
446.088002	4794.197802
446.462949	4816.497346
446.837837	4835.242876
447.212664	4818.599507
447.587431	5050.333787
447.962139	5350.216906
448.336786	5688.001940
448.711374	5665.919166
449.085901	5312.665351
449.460369	5249.615640
449.834776	5186.107184
450.209124	5424.014357
450.583412	5436.181182
450.957640	5560.551489
451.331808	5417.279376
451.705917	5265.533083
452.079965	5259.400520
452.453954	5300.680008
452.827883	5266.344709
453.201752	5267.055512
453.575562	5301.350481
453.949311	5433.879895
454.323001	5440.400628
454.696632	5432.163383
455.070202	5586.233647
455.443713	5619.427124
455.817164	5708.988264
456.190556	5782.248832
456.563888	5757.113639
456.937160	5834.460062
457.310373	5673.541390
457.683526	5736.291153
458.056619	5725.041818
458.429653	5706.026586
458.802628	5752.579121
459.175542	5789.097239
459.548398	5928.119660
459.921194	6113.654286
460.293930	6172.749212
460.666607	6425.326143
461.039224	6645.722868
461.411782	6766.566888
461.784280	6685.931112
462.156719	6685.540422
462.529099	6644.462580
462.901419	6506.763463
463.273680	6374.836467
463.645882	6360.943047
464.018024	6365.419591
464.390106	6434.669922
464.762130	6693.192894
465.134094	7091.237360
465.505999	7729.883497
465.877845	8438.369779
466.249631	8778.090616
466.621358	8703.894914
466.993026	8504.063575
467.364634	8289.015514
467.736184	8003.003130
468.107674	7852.194492
468.479105	7769.380937
468.850477	7706.626134
469.221790	7535.849485
469.593043	7305.241903
469.964238	7208.444187
470.335373	7180.576689
470.706449	7343.098448
471.077467	7533.132303
471.448425	8200.417235
471.819324	8776.850492
472.190164	8814.175195
472.560945	8325.132861
472.931667	7849.361364
473.302330	7658.089904
473.672934	7543.658233
474.043479	7620.329142
474.413965	7521.066302
474.784393	7471.882284
475.154761	7623.411807
475.525070	7631.684341
475.895321	7594.498269
476.265513	7690.655758
476.635645	7855.012497
477.005719	7842.510436
477.375734	7926.773322
477.745691	8042.435035
478.115588	8248.834997
478.485427	8484.440884
478.855207	8960.855128
479.224928	9393.255058
479.594591	9779.233523
479.964194	9782.154872
480.333739	9868.129230
480.703226	9864.280309
481.072653	9972.221495
481.442022	10084.079658
481.811333	10233.779242
482.180584	10072.061547
482.549777	10013.132979
482.918912	9949.317013
483.287988	9937.155229
483.657005	9838.189817
484.025964	9760.177962
484.394864	9819.104009
484.763706	9783.745356
485.132489	9698.249907
485.501213	9681.722484
485.869879	9750.486343
486.238487	9684.800109
486.607036	9757.304504
486.975527	9703.865752
487.343959	9759.131922
487.712333	9807.249736
488.080648	9849.628195
488.448905	9952.107291
488.817104	9956.442684
489.185244	10131.741247
489.553326	10346.002888
489.921350	10816.120731
490.289315	11451.011208
490.657222	11738.742626
491.025070	11910.270406
491.392861	11818.057620
491.760593	11664.771255
492.128267	11400.156048
492.495883	11173.311687
492.863440	10928.898905
493.230939	10707.882117
493.598380	10525.263798
493.965763	10499.132977
494.333088	10373.802331
494.700354	10301.033275
495.067563	10271.492114
495.434713	10281.786150
495.801805	10330.617287
496.168839	10281.319843
496.535815	10244.809287
496.902733	10300.584613
497.269593	10253.812787
497.636395	10264.621021
498.003139	10373.807372
498.369825	10301.083687
498.736453	10391.632892
499.103023	10339.313277
499.469535	10344.392240
499.835989	10392.910825
500.202385	10367.596671
500.568723	10384.819773
500.935003	10449.500297
501.301226	10418.308158
501.667390	10583.199259
502.033497	10685.711122
502.399546	10607.744637
502.765537	10517.530668
503.131470	10613.098342
503.497345	10711.226923
503.863163	10484.962294
504.228923	10611.394432
504.594625	10729.753163
504.960269	10633.973761
505.325856	10783.791812
505.691385	10664.923925
506.056856	10737.456046
506.422270	10846.803714
506.787625	10774.947107
507.152924	10830.745119
507.518164	10883.160516
507.883347	10749.532130
508.248472	10824.277318
508.613540	10933.902250
508.978550	11010.653817
509.343503	10991.613379
509.708398	11045.878880
510.073236	11167.983187
510.438016	11180.633963
510.802738	11108.568148
511.167403	11235.461552
511.532010	11294.969853
511.896561	11394.099102
512.261053	11582.827299
512.625488	11502.793941
512.989866	11487.615027
513.354186	11463.830863
513.718449	11472.980557
514.082655	11620.094029
514.446803	11571.744323
514.810894	11683.383195
515.174927	11681.384378
515.538904	11659.714978
515.902822	11823.464257
516.266684	11696.510360
516.630488	11797.693879
516.994235	11781.307608
517.357925	11899.860423
517.721558	11953.894031
518.085133	12018.851819
518.448651	12055.548898
518.812112	12012.104234
519.175516	12024.061851
519.538863	12117.837395
519.902152	12121.686316
520.265385	12231.054149
520.628560	12249.280441
520.991678	12197.376721
521.354739	12250.482756
521.717743	12327.037718
522.080690	12291.363993
522.443580	12432.274325
522.806413	12444.259668
523.169189	12445.227570
523.531908	12500.980211
523.894569	12465.046866
524.257174	12475.295532
524.619722	12592.053696
524.982213	12564.660066
525.344647	12551.353941
525.707025	12568.418247
526.069345	12668.626303
526.431608	12639.561530
526.793815	12725.823234
527.155964	12623.475208
527.518057	12650.639466
527.880093	12604.621293
528.242072	12724.762071
528.603995	12648.648210
528.965860	12658.995178
529.327669	12694.159747
529.689421	12639.828711
530.051117	12653.477635
530.412755	12689.529447
530.774337	12689.768902
531.135862	12651.559476
531.497331	12705.663660
531.858743	12668.270901
532.220098	12753.738624
532.581396	12683.527953
532.942638	12608.490378
533.303824	12678.378415
533.664953	12656.877894
534.026025	12608.261006
534.387040	12716.429044
534.747999	12684.057275
535.108902	12736.901170
535.469748	12600.346394
535.830537	12627.281279
536.191270	12669.831138
536.551947	12600.918565
536.912567	12666.135973
537.273131	12706.598794
537.633638	12576.940317
537.994089	12635.790747
538.354483	12553.892162
538.714821	12685.199096
539.075103	12760.660128
539.435328	12690.522554
539.795497	12677.309690
540.155609	12670.068073
540.515665	12772.171603
540.875665	12628.934778
541.235609	12724.320970
541.595496	12691.097246
541.955328	12858.856764
542.315102	12713.447202
542.674821	12653.807831
543.034483	12664.144717
543.394090	12668.948937
543.753640	12638.114719
544.113134	12875.900905
544.472571	12628.990231
544.831953	12918.130651
545.191278	12735.540058
545.550548	12671.013289
545.909761	12791.184314
546.268918	12827.957011
546.628019	12902.137590
546.987064	12792.679017
547.346053	12633.131538
547.704986	12818.192296
548.063863	12702.676776
548.422684	12757.438831
548.781449	12724.018501
549.140158	12806.935400
549.498811	12765.388730
549.857408	12638.248310
550.215949	12850.541380
550.574434	12802.025316
550.932864	12747.704363
551.291237	12947.543263
551.649555	12839.324813
552.007817	12892.869429
552.366022	12811.631234
552.724173	12856.056403
553.082267	12948.959827
553.440305	13042.422819
553.798288	12863.512269
554.156215	12936.288887
554.514086	12979.960402
554.871902	12928.681786
555.229661	12947.770115
555.587365	12906.407447
555.945014	12915.660485
556.302606	12891.815827
556.660143	12957.071043
557.017625	12991.237464
557.375050	12956.894603
557.732421	13052.973954
558.089735	13048.971278
558.446994	13028.491591
558.804197	13144.770845
559.161345	13138.008137
559.518437	12950.688943
559.875474	13035.960060
560.232455	13057.896641
560.589381	13101.036315
560.946251	13038.997355
561.303065	13214.984036
561.659825	13167.463599
562.016528	13076.947161
562.373177	13030.336653
562.729770	13160.554698
563.086307	13045.066904
563.442789	13145.960557
563.799216	13193.395295
564.155587	13130.232158
564.511904	13146.885609
564.868164	13162.155264
565.224370	13222.828071
565.580520	13176.532635
565.936615	13236.615627
566.292654	13172.441739
566.648638	13242.886822
567.004567	13249.881423
567.360441	13246.375301
567.716260	13215.175600
568.072023	13293.187456
568.427732	13273.685752
568.783385	13172.361080
569.138982	13289.172177
569.494525	13285.376188
569.850013	13235.786357
570.205445	13221.408987
570.560823	13242.730547
570.916145	13187.098893
571.271412	13194.711036
571.626625	13154.333914
571.981782	13160.542095
572.336884	13119.212195
572.691931	13195.744472
573.046923	13079.092172
573.401860	13063.076427
573.756743	13065.493660
574.111570	13090.964090
574.466342	13064.102301
574.821059	13113.258592
575.175722	12981.132471
575.530330	12999.315913
575.884882	12931.484667
576.239380	12929.851333
576.593823	12919.106114
576.948211	12918.080239
577.302544	12792.321095
577.656823	12814.035865
578.011047	12863.945808
578.365216	12812.790700
578.719330	12752.082605
579.073389	12724.315929
579.427394	12735.497208
579.781344	12726.886918
580.135239	12663.602793
580.489080	12674.093434
580.842866	12546.327910
581.196597	12647.667706
581.550273	12629.312864
581.903895	12601.992331
582.257463	12709.341182
582.610975	12548.974516
582.964434	12615.951286
583.317837	12535.199563
583.671186	12493.874705
584.024481	12554.355948
584.377721	12442.706993
584.730906	12513.837674
585.084037	12538.405737
585.437113	12444.226901
585.790135	12467.819501
586.143103	12382.437478
586.496016	12396.754355
586.848874	12410.635172
587.201679	12409.942014
587.554428	12279.378650
587.907124	12326.929333
588.259765	12270.796085
588.612352	12329.770023
588.964884	12199.088192
589.317362	12250.245822
589.669786	12240.944893
590.022155	12192.106194
590.374470	12287.613374
590.726731	12182.689319
591.078937	12074.168400
591.431090	12094.428797
591.783188	12024.263497
592.135232	11938.710076
592.487222	12003.783810
592.839157	12015.207065
593.191038	11942.889192
593.542866	11900.281360
593.894639	11744.320663
594.246358	11809.840539
594.598022	11811.869604
594.949633	11710.242463
595.301190	11709.065353
595.652692	11664.309989
596.004141	11754.685275
596.355535	11534.280988
596.706876	11513.085456
597.058162	11478.432565
597.409395	11572.407234
597.760573	11599.795823
598.111698	11489.946560
598.462768	11499.678508
598.813785	11508.026658
599.164748	11379.630991
599.515657	11456.795932
599.866511	11334.618528
600.217312	11467.823457
600.568060	11228.446787
600.918753	11392.690100
601.269392	11390.701364
601.619978	11297.326592
601.970510	11330.958650
602.320988	11371.834846
602.671412	11442.224477
603.021783	11375.073787
603.372100	11292.487085
603.722363	11304.056533
604.072572	11313.606999
604.422728	11320.430200
604.772830	11272.335072
605.122878	11271.415062
605.472872	11249.080229
605.822813	11304.732047
606.172701	11269.837180
606.522534	11307.192130
606.872314	11359.917558
607.222041	11297.117384
607.571714	11375.194775
607.921333	11242.395659
608.270899	11285.071547
608.620411	11355.060407
608.969870	11301.780452
609.319276	11290.770572
609.668627	11297.172837
610.017926	11374.267203
610.367171	11414.362020
610.716362	11396.183619
611.065500	11372.414579
611.414585	11384.629295
611.763616	11450.093718
612.112594	11413.026114
612.461518	11443.441916
612.810389	11481.311064
613.159207	11422.500963
613.507971	11425.606314
613.856682	11516.813390
614.205340	11479.924746
614.553945	11627.597787
614.902496	11495.416212
615.250994	11562.881974
615.599439	11552.492156
615.947830	11583.470046
616.296169	11547.781198
616.644454	11570.118550
616.992686	11578.378481
617.340864	11672.912718
617.688990	11556.260418
618.037063	11698.640247
618.385082	11664.057932
618.733048	11712.095087
619.080961	11687.103567
619.428821	11666.742346
619.776628	11677.918584
620.124382	11628.028805
620.472083	11647.361630
620.819731	11671.181082
621.167326	11594.048908
621.514868	11578.010477
621.862357	11472.899898
622.209793	11472.831843
622.557176	11383.391691
622.904506	11329.640388
623.251783	11239.738971
623.599007	11184.954232
623.946179	11132.962292
624.293297	11111.411359
624.640363	10970.271654
624.987376	10963.188833
625.334336	10906.879145
625.681243	10815.921606
626.028097	10784.033787
626.374899	10753.368448
626.721647	10715.625329
627.068343	10685.706081
627.414987	10622.747111
627.761577	10553.521986
628.108115	10598.342885
628.454600	10480.833589
628.801032	10492.216514
629.147412	10468.994439
629.493739	10438.518144
629.840014	10364.483758
630.186236	10414.585266
630.532405	10314.513321
630.878521	10351.379279
631.224585	10306.994440
631.570597	10219.994207
631.916556	10228.218849
632.262462	10214.859792
632.608316	10201.977123
632.954117	10170.248101
633.299866	10153.982818
633.645562	10133.634200
633.991206	10025.551862
634.336797	9923.276933
634.682336	9918.076982
635.027823	9866.269044
635.373257	9826.201953
635.718639	9762.446481
636.063968	9725.756963
636.409245	9610.430487
636.754470	9596.055636
637.099642	9543.206700
637.444762	9448.347308
637.789829	9450.404099
638.134845	9373.433241
638.479808	9353.954223
