Dividing Wavelength (nm)	Counts (n)	Blue Motor Position (mm): 45.000000	Red Motor Position (mm): 0.000000	
326.493990	2093.381984
326.888308	2093.381984
327.282561	2093.381984
327.676750	2068.007337
328.070874	2073.739128
328.464933	2079.697772
328.858929	2089.744792
329.252859	2102.022522
329.646726	2116.616663
330.040528	2132.052676
330.434265	2151.304842
330.827938	2167.073571
331.221547	2190.245235
331.615091	2212.181816
332.008571	2231.378530
332.401986	2250.234966
332.795338	2271.201125
333.188625	2290.987653
333.581847	2310.176806
333.975006	2331.024497
334.368100	2346.450428
334.761129	2362.370392
335.154095	2377.531662
335.546996	2426.360278
335.939833	2512.316993
336.332606	2524.647655
336.725315	2536.156609
337.117960	2545.336550
337.510540	2552.532797
337.903056	2564.371947
338.295508	2567.931002
338.687896	2577.725964
339.080220	2583.969433
339.472480	2588.511512
339.864676	2591.836153
340.256807	2592.443612
340.648875	2596.158943
341.040879	2597.842688
341.432818	2598.671958
341.824694	2597.351176
342.216506	2598.525764
342.608253	2599.082812
342.999937	2598.089705
343.391557	2598.298912
343.783113	2595.012080
344.174605	2594.976792
344.566033	2591.503437
344.957397	2591.677357
345.348697	2589.418920
345.739934	2587.911615
346.131106	2588.604774
346.522215	2586.106882
346.913260	2585.552355
347.304241	2583.810636
347.695159	2582.530183
348.086012	2580.196129
348.476802	2578.313258
348.867528	2577.431056
349.258191	2576.054821
349.648789	2573.703123
350.039324	2573.093143
350.429796	2574.081209
350.820203	2573.486353
351.210548	2573.340160
351.600828	2569.448389
351.991045	2569.521486
352.381198	2570.819583
352.771288	2568.193142
353.161314	2572.541137
353.551276	2570.693554
353.941175	2567.759603
354.331010	2570.895200
354.720782	2569.347566
355.110490	2574.184553
355.500135	2568.755230
355.889717	2569.723132
356.279235	2573.012485
356.668689	2572.553740
357.058080	2569.937381
357.447408	2570.940571
357.836672	2570.517114
358.225873	2571.656414
358.615010	2568.384706
359.004084	2576.067424
359.393095	2576.160685
359.782043	2577.032805
360.170927	2579.850810
360.559748	2579.500450
360.948505	2580.163362
361.337199	2584.307190
361.725830	2582.598239
362.114398	2580.314596
362.502903	2585.058322
362.891344	2583.845924
363.279722	2584.922211
363.668037	2584.743250
364.056289	2584.607139
364.444478	2587.349526
364.832603	2587.016810
365.220665	2586.477407
365.608665	2589.250041
365.996601	2591.561410
366.384474	2590.593509
366.772284	2591.969744
367.160031	2592.831781
367.547715	2592.872110
367.935336	2589.486976
368.322893	2594.578541
368.710388	2592.531832
369.097820	2595.329673
369.485189	2596.365630
369.872495	2596.380753
370.259738	2600.456526
370.646918	2598.921495
371.034035	2599.647421
371.421090	2603.274531
371.808081	2598.775302
372.195010	2602.311671
372.581875	2603.957608
372.968678	2604.408791
373.355418	2603.887032
373.742096	2608.373658
374.128710	2607.264605
374.515262	2607.559512
374.901751	2609.938937
375.288177	2612.777106
375.674540	2612.411623
376.060841	2615.426233
376.447079	2614.944802
376.833254	2616.966305
377.219367	2613.029164
377.605417	2616.429422
377.991404	2613.407251
378.377329	2619.375977
378.763191	2617.735081
379.148991	2628.492903
379.534727	2629.753192
379.920402	2636.125210
380.306013	2637.572022
380.691563	2645.131232
381.077049	2651.377221
381.462474	2658.389466
381.847835	2668.628050
382.233134	2677.044256
382.618371	2692.034127
383.003545	2707.555840
383.388657	2723.188458
383.773706	2743.796695
384.158693	2766.638163
384.543618	2791.118006
384.928480	2819.860145
385.313280	2853.008252
385.698017	2890.317831
386.082692	2939.267435
386.467305	2972.395378
386.851856	3029.294881
387.236344	3091.003645
387.620770	3138.801346
388.005133	3200.061447
388.389435	3273.049793
388.773674	3333.357117
389.157851	3411.613468
389.541965	3494.560614
389.926018	3549.917524
390.310008	3652.986435
390.693936	3747.908841
391.077802	3836.237418
391.461606	3938.966052
391.845348	4041.031773
392.229027	4144.554388
392.612645	4303.239828
392.996200	4416.524638
393.379694	4557.356832
393.763125	4730.376794
394.146494	4845.431048
394.529801	4985.411288
394.913047	5185.030897
395.296230	5251.221248
395.679351	5356.682186
396.062410	5577.641000
396.445408	5593.303865
396.828343	5758.701602
397.211217	5919.824441
397.594028	5920.981386
397.976778	6128.518128
398.359466	6323.767057
398.742092	6379.139091
399.124656	6552.688374
399.507158	6763.733759
399.889598	6857.814293
400.271977	7087.307781
400.654294	7186.326125
401.036549	7407.501708
401.418742	7513.030703
401.800874	7823.026376
402.182944	7965.189435
402.564952	8328.888520
402.946898	8265.722863
403.328783	8380.451963
403.710606	8610.036191
404.092367	8894.576558
404.474067	9266.588506
404.855705	9155.113471
405.237282	9175.714146
405.618797	9613.621537
406.000250	9882.846879
406.381642	10260.469631
406.762972	10274.168967
407.144240	10151.888218
407.525447	10432.579664
407.906593	10416.823538
408.287677	10705.169976
408.668700	10887.374920
409.049661	10909.830740
409.430560	11095.715727
409.811399	11113.437903
410.192176	11279.624581
410.572891	11388.768082
410.953545	11874.964685
411.334138	11407.069991
411.714669	11990.321409
412.095139	11371.791996
412.475547	11853.859895
412.855894	11746.274110
413.236180	12068.943244
413.616405	11791.921758
413.996568	12075.479100
414.376670	12061.179867
414.756711	11958.776388
415.136691	12232.279149
415.516609	12412.999473
415.896466	12507.490861
416.276262	12803.517497
416.655997	13255.724121
417.035670	13309.828304
417.415283	13926.356379
417.794834	14003.944777
418.174324	13758.319597
418.553753	13670.051514
418.933121	14159.885310
419.312428	13994.313653
419.691674	13907.797371
420.070859	14374.015881
420.449983	14025.775494
420.829045	14583.480865
421.208047	14341.477754
421.586988	14797.848370
421.965867	15047.604776
422.344686	15049.187698
422.723444	15619.274143
423.102141	14320.070494
423.480777	15516.726991
423.859352	15011.943654
424.237866	16113.085409
424.616319	15836.825137
424.994712	16484.532748
425.373044	16272.085922
425.751314	16958.746528
426.129524	16096.331134
426.507673	17176.748706
426.885762	16893.982825
427.263789	17080.576093
427.641756	17265.853621
428.019662	17324.479719
428.397508	17369.792131
428.775292	17665.695258
429.153016	17639.382956
429.530679	17721.820945
429.908282	17746.988905
430.285824	17491.099936
430.663305	18193.950208
431.040726	17815.357034
431.418086	17653.813259
431.795385	18295.211866
432.172624	18721.259942
432.549802	18286.707439
432.926920	18491.703440
433.303977	18378.345534
433.680974	18634.330285
434.057910	18934.369679
434.434786	18968.750349
434.811601	18900.180574
435.188355	19946.933320
435.565050	19621.310070
435.941683	19584.683567
436.318257	20479.508539
436.694770	20280.758528
437.071222	20855.946620
437.447614	19940.120201
437.823946	19966.709767
438.200218	20136.112701
438.576429	19916.578012
438.952580	20227.549149
439.328670	20194.655620
439.704700	20617.300918
440.080670	20181.720020
440.456580	20788.727875
440.832429	20963.429061
441.208218	19975.292331
441.583947	20413.759290
441.959616	20542.717047
442.335224	20787.825508
442.710773	20932.841860
443.086261	21468.666103
443.461689	20818.863893
443.837057	20980.523614
444.212365	21633.239611
444.587612	21626.330710
444.962800	21219.991025
445.337927	21662.140546
445.712995	20378.148579
446.088002	22277.010081
446.462949	22476.712870
446.837837	22672.105472
447.212664	22703.496737
447.587431	25700.150147
447.962139	28663.237034
448.336786	30934.617120
448.711374	29210.585354
449.085901	25500.154971
449.460369	25517.204154
449.834776	25534.218048
450.209124	28115.107336
450.583412	27567.529643
450.957640	28027.857565
451.331808	26688.453235
451.705917	25315.535315
452.079965	25376.868513
452.453954	25757.770536
452.827883	25673.855489
453.201752	25458.772139
453.575562	25630.430990
453.949311	26769.351152
454.323001	26845.838058
454.696632	26632.720759
455.070202	28245.776564
455.443713	28423.809953
455.817164	29014.822227
456.190556	29557.522603
456.563888	28958.036150
456.937160	29387.313085
457.310373	27666.195106
457.683526	28113.932747
458.056619	28134.977043
458.429653	28106.847405
458.802628	28726.246416
459.175542	28879.810045
459.548398	30262.442269
459.921194	31904.615778
460.293930	32668.907634
460.666607	34761.044453
461.039224	36534.925668
461.411782	36871.639457
461.784280	35546.859515
462.156719	34982.126776
462.529099	34393.476282
462.901419	33066.115269
463.273680	32018.528211
463.645882	32166.932219
464.018024	32185.776052
464.390106	33140.154695
464.762130	36116.061237
465.134094	40507.516216
465.505999	46031.342899
465.877845	50519.698938
466.249631	51433.947476
466.621358	49521.038799
466.993026	47255.352697
467.364634	45105.988699
467.736184	43145.705779
468.107674	41888.981413
468.479105	41097.033788
468.850477	40358.935768
469.221790	38910.735777
469.593043	37140.632906
469.964238	36248.986381
470.335373	36204.384773
470.706449	38101.310471
471.077467	40959.508591
471.448425	45607.938908
471.819324	48321.871808
472.190164	46242.491628
472.560945	42620.747744
472.931667	39478.238630
473.302330	38372.199393
473.672934	37561.516320
474.043479	38104.456151
474.413965	37310.635737
474.784393	36935.412574
475.154761	37861.361630
475.525070	37922.987215
475.895321	37438.282794
476.265513	38070.604803
476.635645	39075.342053
477.005719	38927.724465
477.375734	39437.327146
477.745691	40164.458135
478.115588	41563.035529
478.485427	43705.697313
478.855207	47219.827686
479.224928	49877.914683
479.594591	51375.833054
479.964194	50228.559700
480.333739	50369.535568
480.703226	50447.648247
481.072653	51125.030609
481.442022	51583.815939
481.811333	51783.397740
482.180584	50481.597897
482.549777	49970.122428
482.918912	49438.618454
483.287988	49113.728692
483.657005	48279.349675
484.025964	47581.394363
484.394864	47592.096733
484.763706	47156.452820
485.132489	46274.109745
485.501213	46115.935981
485.869879	46279.425642
486.238487	45844.492532
486.607036	46053.486167
486.975527	45492.438512
487.343959	45716.797584
487.712333	45784.102029
488.080648	45684.806422
488.448905	46149.562998
488.817104	45943.031966
489.185244	46975.127557
489.553326	48786.091501
489.921350	51566.396232
490.289315	54365.239806
490.657222	54853.278951
491.025070	55086.838129
491.392861	54134.150793
491.760593	52847.262683
492.128267	51145.074237
492.495883	49589.225446
492.863440	48168.361111
493.230939	46781.985830
493.598380	45704.068671
493.965763	45367.367485
494.333088	44541.785281
494.700354	44053.292432
495.067563	43743.168209
495.434713	43617.441833
495.801805	43691.211557
496.168839	43292.494097
496.535815	42953.048003
496.902733	42980.633196
497.269593	42543.968450
497.636395	42478.506547
498.003139	42870.090775
498.369825	42327.788650
498.736453	42626.477015
499.103023	42137.898467
499.469535	42026.035263
499.835989	42104.710030
500.202385	41764.013730
500.568723	41775.328600
500.935003	41979.165135
501.301226	41773.833898
501.667390	42395.680389
502.033497	42636.115701
502.399546	42045.594940
502.765537	41356.572553
503.131470	41733.424008
503.497345	42085.984664
503.863163	40733.385114
504.228923	41364.895498
504.594625	41776.934207
504.960269	41037.263347
505.325856	41741.283167
505.691385	41099.319951
506.056856	41249.765626
506.422270	41667.168123
506.787625	41239.388411
507.152924	41448.145112
507.518164	41537.877651
507.883347	40728.608621
508.248472	40979.889976
508.613540	41473.512198
508.978550	41755.277410
509.343503	41517.385360
509.708398	41719.669220
510.073236	42253.487083
510.438016	42261.310954
510.802738	41713.839126
511.167403	42340.482275
511.532010	42552.672002
511.896561	42853.124772
512.261053	43723.232967
512.625488	43259.378757
512.989866	43128.701967
513.354186	42962.235505
513.718449	42966.230620
514.082655	43635.726097
514.446803	43306.606807
514.810894	43841.649670
515.174927	43743.402623
515.538904	43640.527797
515.902822	44311.318851
516.266684	43762.259059
516.630488	44182.945868
516.994235	44041.014702
517.357925	44598.672182
517.721558	44798.412779
518.085133	45094.283140
518.448651	45204.704574
518.812112	44991.337737
519.175516	45091.210557
519.538863	45413.998158
519.902152	45377.664042
520.265385	45836.013311
520.628560	45878.878242
520.991678	45657.929510
521.354739	45894.251241
521.717743	46220.514718
522.080690	46078.984323
522.443580	46629.569064
522.806413	46676.136723
523.169189	46646.595561
523.531908	46816.888259
523.894569	46659.074938
524.257174	46815.393557
524.619722	47115.526213
524.982213	47093.216586
525.344647	47010.650048
525.707025	47055.665031
526.069345	47463.607803
526.431608	47367.412506
526.793815	47696.322588
527.155964	47219.068992
527.518057	47383.962614
527.880093	47164.165786
528.242072	47685.098459
528.603995	47394.599448
528.965860	47381.394146
529.327669	47470.304976
529.689421	47373.202271
530.051117	47328.865323
530.412755	47491.505549
530.774337	47549.481339
531.135862	47348.530864
531.497331	47546.610402
531.858743	47434.532949
532.220098	47773.164897
532.581396	47481.846698
532.942638	47128.776886
533.303824	47457.878532
533.664953	47441.958568
534.026025	47134.347361
534.387040	47604.750029
534.747999	47544.299032
535.108902	47714.599292
535.469748	47218.511945
535.830537	47336.406889
536.191270	47513.358951
536.551947	47163.931372
536.912567	47481.650093
537.273131	47598.146117
537.633638	47079.066067
537.994089	47421.504087
538.354483	47012.911006
538.714821	47602.738608
539.075103	47927.429245
539.435328	47687.122483
539.795497	47563.029440
540.155609	47564.287208
540.515665	48016.153553
540.875665	47453.414590
541.235609	47780.885424
541.595496	47760.226775
541.955328	48453.967682
542.315102	47775.874517
542.674821	47557.489212
543.034483	47598.130994
543.394090	47571.906912
543.753640	47520.421607
544.113134	48535.682266
544.472571	47510.067077
544.831953	48761.505793
545.191278	47951.692319
545.550548	47676.074794
545.909761	48150.197834
546.268918	48337.519549
546.628019	48622.344741
546.987064	48188.853402
547.346053	47456.154458
547.704986	48324.087395
548.063863	47891.241322
548.422684	48063.142148
548.781449	47893.593021
549.140158	48295.272159
549.498811	48124.556005
549.857408	47531.955767
550.215949	48395.213034
550.574434	48321.907096
550.932864	48062.441428
551.291237	48784.538825
551.649555	48383.063853
552.007817	48621.265934
552.366022	48260.407539
552.724173	48431.204352
553.082267	48814.891613
553.440305	49085.203323
553.798288	48374.047750
554.156215	48696.187563
554.514086	48899.162061
554.871902	48637.168254
555.229661	48654.469494
555.587365	48452.049523
555.945014	48572.265919
556.302606	48485.784925
556.660143	48696.820228
557.017625	48769.959808
557.375050	48563.181760
557.732421	48910.005583
558.089735	48863.107728
558.446994	48759.638046
558.804197	49237.801570
559.161345	49163.396660
559.518437	48377.299294
559.875474	48707.378924
560.232455	48880.265296
560.589381	49046.330986
560.946251	48702.536896
561.303065	49382.525536
561.659825	49169.110808
562.016528	48841.929841
562.373177	48553.739679
562.729770	49023.353406
563.086307	48534.653870
563.442789	49006.747846
563.799216	49015.620276
564.155587	48805.071445
564.511904	48822.125668
564.868164	48910.368546
565.224370	49128.680754
565.580520	48863.531185
565.936615	49062.971834
566.292654	48776.150345
566.648638	49024.041524
567.004567	48981.970574
567.360441	49013.387045
567.716260	48872.164161
568.072023	49145.457714
568.427732	49105.627558
568.783385	48637.508532
569.138982	49031.678872
569.494525	48975.200305
569.850013	48730.293489
570.205445	48701.911793
570.560823	48636.853182
570.916145	48509.105302
571.271412	48540.151248
571.626625	48265.902397
571.981782	48310.229263
572.336884	47978.107965
572.691931	48298.914393
573.046923	47886.416938
573.401860	47713.586020
573.756743	47690.507617
574.111570	47769.527704
574.466342	47627.813308
574.821059	47703.354998
575.175722	47240.209071
575.530330	47257.790095
575.884882	46942.334852
576.239380	46904.425375
576.593823	46857.025926
576.948211	46780.541540
577.302544	46299.320555
577.656823	46286.793288
578.011047	46524.546706
578.365216	46237.785711
578.719330	46003.576224
579.073389	45849.213572
579.427394	45925.287104
579.781344	45890.876188
580.135239	45521.170568
580.489080	45592.863337
580.842866	45072.762454
581.196597	45510.153126
581.550273	45452.842769
581.903895	45324.600856
582.257463	45728.147742
582.610975	45085.012458
582.964434	45373.613474
583.317837	44989.583416
583.671186	44829.143653
584.024481	45029.705959
584.377721	44556.160131
584.730906	44820.921531
585.084037	44861.863262
585.437113	44570.114045
585.790135	44563.164815
586.143103	44158.221529
586.496016	44259.062250
586.848874	44289.611642
587.201679	44286.932269
587.554428	43772.071665
587.907124	43948.002893
588.259765	43695.688102
588.612352	43947.730671
588.964884	43307.113443
589.317362	43600.357362
589.669786	43531.772464
590.022155	43283.775421
590.374470	43693.356568
590.726731	43229.031011
591.078937	42713.696538
591.431090	42803.590394
591.783188	42458.583907
592.135232	42122.873308
592.487222	42390.956828
592.839157	42449.325828
593.191038	42098.448917
593.542866	41869.719164
593.894639	41256.825762
594.246358	41518.602799
594.598022	41500.411795
594.949633	41113.286468
595.301190	41050.423280
595.652692	40881.126210
596.004141	41191.815042
596.355535	40210.778777
596.706876	40143.542388
597.058162	39985.547585
597.409395	40450.019336
597.760573	40520.504749
598.111698	40104.556625
598.462768	40103.326583
598.813785	40137.480400
599.164748	39586.268036
599.515657	39964.238628
599.866511	39446.398702
600.217312	40070.876676
600.568060	39042.952639
600.918753	39788.108274
601.269392	39727.526208
601.619978	39375.842713
601.970510	39593.219787
602.320988	39763.993915
602.671412	40066.906767
603.021783	39807.252056
603.372100	39451.822983
603.722363	39551.922655
604.072572	39623.186926
604.422728	39651.041822
604.772830	39447.059093
605.122878	39561.223584
605.472872	39486.884208
605.822813	39754.128377
606.172701	39579.064227
606.522534	39826.867186
606.872314	40067.370553
607.222041	39832.770377
607.571714	40216.545857
607.921333	39656.264457
608.270899	39938.324577
608.620411	40299.533332
608.969870	40089.057597
609.319276	40096.458011
609.668627	40146.874591
610.017926	40625.065842
610.367171	40785.679524
610.716362	40858.148631
611.065500	40801.241566
611.414585	40985.563794
611.763616	41272.750767
612.112594	41215.301778
612.461518	41430.236413
612.810389	41735.080027
613.159207	41600.052722
613.507971	41683.473736
613.856682	42147.837102
614.205340	42033.944833
614.553945	42730.932243
614.902496	42172.195957
615.250994	42645.487206
615.599439	42709.582957
615.947830	42914.735233
616.296169	42996.974097
616.644454	43097.661062
616.992686	43277.773927
617.340864	43794.860201
617.688990	43493.701670
618.037063	44121.292557
618.385082	44076.287656
618.733048	44364.016552
619.080961	44371.981576
619.428821	44394.197941
619.776628	44480.948637
620.124382	44317.839583
620.472083	44430.547180
620.819731	44564.329321
621.167326	44228.679216
621.514868	44204.005288
621.862357	43765.094708
622.209793	43794.199810
622.557176	43448.520329
622.904506	43179.237014
623.251783	42839.236393
623.599007	42611.378759
623.946179	42388.600089
624.293297	42327.725635
624.640363	41743.324835
624.987376	41720.516134
625.334336	41490.392502
625.681243	41147.583958
626.028097	41102.422782
626.374899	40964.567388
626.721647	40942.353544
627.068343	40846.664882
627.414987	40594.458476
627.761577	40377.958562
628.108115	40711.151105
628.454600	40180.622595
628.801032	40373.817254
629.147412	40326.576602
629.493739	40326.831180
629.840014	39974.678857
630.186236	40303.205813
630.532405	39906.973641
630.878521	40125.918514
631.224585	39998.901602
631.570597	39709.357889
631.916556	39872.764371
632.262462	39822.632616
632.608316	39829.067649
632.954117	39722.590918
633.299866	39706.842354
633.645562	39632.117330
633.991206	39128.480855
634.336797	38691.470790
634.682336	38681.438894
635.027823	38447.284859
