Dividing Wavelength (nm)	Counts (n)	Blue Motor Position (mm): 30.500000	Red Motor Position (mm): 0.000000	
326.493990	2133.350773
326.888308	2133.350773
327.282561	2133.350773
327.676750	2100.321133
328.070874	2099.411204
328.464933	2100.122007
328.858929	2106.625096
329.252859	2117.904677
329.646726	2128.264248
330.040528	2142.654222
330.434265	2158.188538
330.827938	2175.199911
331.221547	2194.147088
331.615091	2212.663246
332.008571	2232.006153
332.401986	2251.550707
332.795338	2272.305137
333.188625	2288.701490
333.581847	2307.729325
333.975006	2325.617860
334.368100	2345.916066
334.761129	2363.602954
335.154095	2380.034595
335.546996	2400.952863
335.939833	2425.901533
336.332606	2438.511980
336.725315	2454.646192
337.117960	2462.190279
337.510540	2470.803091
337.903056	2483.133753
338.295508	2488.421923
338.687896	2495.789570
339.080220	2506.043277
339.472480	2511.848165
339.864676	2516.980060
340.256807	2518.847807
340.648875	2524.551873
341.040879	2526.071781
341.432818	2529.550177
341.824694	2528.715866
342.216506	2527.503468
342.608253	2532.123686
342.999937	2532.738707
343.391557	2532.153933
343.783113	2528.302491
344.174605	2525.439116
344.566033	2525.703777
344.957397	2526.263345
345.348697	2522.452232
345.739934	2522.454753
346.131106	2519.656912
346.522215	2519.362005
346.913260	2515.326561
347.304241	2515.598784
347.695159	2512.246416
348.086012	2509.763648
348.476802	2508.737773
348.867528	2507.444717
349.258191	2506.149141
349.648789	2505.012361
350.039324	2502.549757
350.429796	2503.457165
350.820203	2499.978768
351.210548	2499.628408
351.600828	2498.819303
351.991045	2496.790239
352.381198	2499.061278
352.771288	2497.695126
353.161314	2497.203613
353.551276	2497.979951
353.941175	2495.837461
354.331010	2497.102790
354.720782	2495.484580
355.110490	2497.664879
355.500135	2494.282265
355.889717	2498.461381
356.279235	2495.353510
356.668689	2499.361227
357.058080	2498.189159
357.447408	2496.840650
357.836672	2494.125989
358.225873	2496.515496
358.615010	2495.063643
359.004084	2503.200066
359.393095	2498.620178
359.782043	2501.982627
360.170927	2500.921464
360.559748	2502.622854
360.948505	2503.626043
361.337199	2504.601507
361.725830	2503.084119
362.114398	2504.876249
362.502903	2504.553616
362.891344	2506.204593
363.279722	2504.137720
363.668037	2504.059582
364.056289	2506.807011
364.444478	2506.796929
364.832603	2506.323061
365.220665	2508.011847
365.608665	2506.118894
365.996601	2508.629388
366.384474	2506.812053
366.772284	2508.957063
367.160031	2509.645181
367.547715	2509.980418
367.935336	2509.831704
368.322893	2510.159379
368.710388	2511.568381
369.097820	2508.508401
369.485189	2512.062414
369.872495	2512.511077
370.259738	2511.626354
370.646918	2511.507887
371.034035	2511.470079
371.421090	2512.092661
371.808081	2512.115346
372.195010	2515.666839
372.581875	2513.249606
372.968678	2515.518125
373.355418	2512.213649
373.742096	2514.230110
374.128710	2515.689524
374.515262	2512.538803
374.901751	2511.427229
375.288177	2510.771879
375.674540	2511.943947
376.060841	2516.183558
376.447079	2515.986953
376.833254	2514.225069
377.219367	2511.104595
377.605417	2514.030985
377.991404	2512.952178
378.377329	2513.186592
378.763191	2513.829339
379.148991	2516.775893
379.534727	2515.921418
379.920402	2516.415451
380.306013	2515.397137
380.691563	2518.008455
381.077049	2515.800430
381.462474	2519.301511
381.847835	2520.864269
382.233134	2519.304032
382.618371	2519.044412
383.003545	2519.298991
383.388657	2517.970647
383.773706	2520.140863
384.158693	2520.899557
384.543618	2522.308559
384.928480	2520.992818
385.313280	2522.081708
385.698017	2520.534073
386.082692	2523.294105
386.467305	2521.900226
386.851856	2521.191944
387.236344	2521.822088
387.620770	2522.434588
388.005133	2520.866789
388.389435	2522.820237
388.773674	2521.401152
389.157851	2523.762932
389.541965	2523.994825
389.926018	2523.397449
390.310008	2526.074301
390.693936	2522.376615
391.077802	2523.157994
391.461606	2524.859383
391.845348	2527.082532
392.229027	2525.192099
392.612645	2526.911133
392.996200	2526.669158
393.379694	2528.426000
393.763125	2523.805782
394.146494	2525.497089
394.529801	2525.192099
394.913047	2527.332069
395.296230	2528.322656
395.679351	2526.737213
396.062410	2527.639580
396.445408	2528.357944
396.828343	2530.901206
397.211217	2523.606657
397.594028	2526.170083
397.976778	2525.255114
398.359466	2529.015815
398.742092	2526.810310
399.124656	2529.383819
399.507158	2529.225022
399.889598	2532.620240
400.271977	2528.005063
400.654294	2527.722759
401.036549	2530.603778
401.418742	2532.645445
401.800874	2529.784591
402.182944	2532.776515
402.564952	2534.261135
402.946898	2533.817514
403.328783	2533.494880
403.710606	2533.399098
404.092367	2534.109901
404.474067	2535.372710
404.855705	2534.253573
405.237282	2533.532688
405.618797	2533.633512
406.000250	2536.012936
406.381642	2535.937319
406.762972	2535.428162
407.144240	2536.295241
407.525447	2537.369007
407.906593	2535.128214
408.287677	2536.423790
408.668700	2537.568132
409.049661	2536.063348
409.430560	2536.985879
409.811399	2537.643749
410.192176	2538.588966
410.572891	2538.276414
410.953545	2540.703730
411.334138	2537.489994
411.714669	2538.036959
412.095139	2538.669624
412.475547	2540.025695
412.855894	2540.371014
413.236180	2541.601055
413.616405	2540.612989
413.996568	2540.917979
414.376670	2541.527958
414.756711	2543.025181
415.136691	2540.474357
415.516609	2543.025181
415.896466	2545.586087
416.276262	2544.287990
416.655997	2539.514017
417.035670	2541.096940
417.415283	2542.407640
417.794834	2539.105684
418.174324	2546.407795
418.553753	2546.881664
418.933121	2547.824360
419.312428	2547.748742
419.691674	2548.439380
420.070859	2550.584391
420.449983	2553.992211
420.829045	2554.468600
421.208047	2556.580844
421.586988	2559.844991
421.965867	2564.170301
422.344686	2566.393450
422.723444	2570.597772
423.102141	2571.127093
423.480777	2581.554720
423.859352	2582.815008
424.237866	2592.226843
424.616319	2599.070209
424.994712	2610.826180
425.373044	2615.146449
425.751314	2629.672533
426.129524	2631.608337
426.507673	2647.631644
426.885762	2662.356854
427.263789	2673.638957
427.641756	2679.821932
428.019662	2698.448995
428.397508	2715.556151
428.775292	2726.545866
429.153016	2747.791809
429.530679	2756.626431
429.908282	2778.971346
430.285824	2787.322017
430.663305	2830.847339
431.040726	2826.978254
431.418086	2849.209742
431.795385	2880.709392
432.172624	2906.827610
432.549802	2930.319387
432.926920	2956.427523
433.303977	2985.086483
433.680974	3018.327851
434.057910	3047.677449
434.434786	3077.198446
434.811601	3104.181222
435.188355	3173.655883
435.565050	3187.660209
435.941683	3217.922255
436.318257	3298.968886
436.694770	3335.368537
437.071222	3383.897204
437.447614	3406.917633
437.823946	3419.298707
438.200218	3503.801049
438.576429	3513.616175
438.952580	3584.462031
439.328670	3641.457316
439.704700	3662.713341
440.080670	3698.069474
440.456580	3841.815455
440.832429	3850.183771
441.208218	3841.707070
441.583947	3942.842699
441.959616	3996.939321
442.335224	4017.270294
442.710773	4119.605717
443.086261	4191.051470
443.461689	4145.572701
443.837057	4265.471504
444.212365	4397.259868
444.587612	4393.819281
444.962800	4524.508674
445.337927	4567.723965
445.712995	4412.322836
446.088002	4784.181029
446.462949	4741.754678
446.837837	4755.448972
447.212664	4901.518926
447.587431	5052.141041
447.962139	5443.120330
448.336786	6075.956537
448.711374	5974.657071
449.085901	5442.565803
449.460369	5448.005208
449.834776	5455.403102
450.209124	5780.779336
450.583412	5952.458350
450.957640	6095.178457
451.331808	5985.671993
451.705917	5705.416606
452.079965	5687.747362
452.453954	5900.146297
452.827883	5847.027659
453.201752	5965.552748
453.575562	5842.387277
453.949311	6047.960489
454.323001	5993.510987
454.696632	6093.867757
455.070202	6243.857207
455.443713	6410.573206
455.817164	6535.707247
456.190556	6638.733309
456.563888	6740.854483
456.937160	6811.828888
457.310373	6549.134361
457.683526	6597.650425
458.056619	6528.949581
458.429653	6544.252003
458.802628	6507.968298
459.175542	6632.331043
459.548398	6980.778118
459.921194	7144.333313
460.293930	7165.964904
460.666607	7682.166455
461.039224	7993.888724
461.411782	8132.205382
461.784280	8173.941095
462.156719	8097.315557
462.529099	8005.816094
462.901419	7625.261911
463.273680	7546.191413
463.645882	7571.926503
464.018024	7455.541384
464.390106	7630.313147
464.762130	8018.545007
465.134094	8485.287798
465.505999	9482.992638
465.877845	10678.988744
466.249631	11328.647281
466.621358	10971.226953
466.993026	10370.369305
467.364634	10137.364654
467.736184	9779.447772
468.107674	9462.296181
468.479105	9507.104477
468.850477	9272.826934
469.221790	9053.599756
469.593043	8732.919357
469.964238	8600.722659
470.335373	8617.804609
470.706449	8675.702261
471.077467	8660.455291
471.448425	9966.658582
471.819324	11022.470282
472.190164	11044.855525
472.560945	9809.803080
472.931667	9034.118217
473.302330	8901.694667
473.672934	8548.602170
474.043479	8914.292511
474.413965	8853.917132
474.784393	8733.345335
475.154761	8892.691167
475.525070	8974.577149
475.895321	8804.823855
476.265513	8985.503850
476.635645	9154.604315
477.005719	9153.686825
477.375734	9269.613198
477.745691	9503.684054
478.115588	9640.342173
478.485427	9883.361076
478.855207	10415.482591
479.224928	11222.379758
479.594591	11853.176818
479.964194	11660.506439
480.333739	11596.650143
480.703226	11518.325736
481.072653	11611.622370
481.442022	11848.067609
481.811333	12029.463448
482.180584	11843.321363
482.549777	11553.636498
482.918912	11372.807789
483.287988	11405.993705
483.657005	11411.423027
484.025964	11093.669018
484.394864	11223.428318
484.763706	11194.913031
485.132489	10953.076278
485.501213	10917.848695
485.869879	10998.693680
486.238487	10839.869607
486.607036	10948.355238
486.975527	10731.381456
487.343959	10923.880436
487.712333	10971.809206
488.080648	10893.777186
488.448905	10945.847264
488.817104	10881.459126
489.185244	11147.054837
489.553326	11306.935032
489.921350	11842.406393
490.289315	12886.507493
490.657222	13234.140421
491.025070	13142.106595
491.392861	13011.402079
491.760593	12634.167496
492.128267	12293.735856
492.495883	11958.569701
492.863440	11625.760286
493.230939	11297.205605
493.598380	11226.120294
493.965763	11098.516088
494.333088	10994.542289
494.700354	10925.665004
495.067563	10977.273817
495.434713	10807.341562
495.801805	10944.811307
496.168839	10864.614111
496.535815	10796.727413
496.902733	10804.662189
497.269593	10726.778882
497.636395	10828.766466
498.003139	10820.093161
498.369825	10689.698675
498.736453	10842.117962
499.103023	10775.259659
499.469535	10803.858125
499.835989	10793.367483
500.202385	10754.701833
500.568723	10610.381161
500.935003	10833.444657
501.301226	10638.442743
501.667390	10892.658050
502.033497	10992.392237
502.399546	10849.473005
502.765537	10756.902297
503.131470	10835.287198
503.497345	11004.821202
503.863163	10617.113622
504.228923	10928.435118
504.594625	10992.102371
504.960269	10739.477549
505.325856	10962.639347
505.691385	10757.295507
506.056856	10911.360730
506.422270	10933.322517
506.787625	10821.887811
507.152924	10933.897209
507.518164	10915.381051
507.883347	10843.952942
508.248472	10758.149983
508.613540	10993.725623
508.978550	10876.985102
509.343503	10847.917809
509.708398	10972.971192
510.073236	11081.902965
510.438016	11089.048801
510.802738	11035.536953
511.167403	11091.145921
511.532010	10992.709830
511.896561	11218.919006
512.261053	11284.600199
512.625488	11159.662763
512.989866	11136.443208
513.354186	11130.933227
513.718449	11035.973012
514.082655	11228.333361
514.446803	11118.680703
514.810894	11242.524209
515.174927	11108.875659
515.538904	11129.486416
515.902822	11285.560539
516.266684	11169.334217
516.630488	11111.539908
516.994235	11163.849441
517.357925	11229.462579
517.721558	11314.960548
518.085133	11333.517036
518.448651	11344.499189
518.812112	11227.496529
519.175516	11240.071687
519.538863	11364.830163
519.902152	11281.653645
520.265385	11433.467993
520.628560	11347.113028
520.991678	11331.785399
521.354739	11393.317723
521.717743	11319.537916
522.080690	11300.411778
522.443580	11437.856318
522.806413	11395.437528
523.169189	11423.161354
523.531908	11486.256436
523.894569	11306.163735
524.257174	11305.513426
524.619722	11420.608010
524.982213	11372.235618
525.344647	11421.961559
525.707025	11369.899043
526.069345	11460.541510
526.431608	11383.764737
526.793815	11492.504946
527.155964	11279.508634
527.518057	11337.665905
527.880093	11283.891917
528.242072	11354.591579
528.603995	11259.686817
528.965860	11181.846361
529.327669	11231.889895
529.689421	11179.938284
530.051117	11150.092132
530.412755	11256.896538
530.774337	11145.219857
531.135862	11131.328958
531.497331	11150.205558
531.858743	11001.345327
532.220098	11174.042654
532.581396	11035.269771
532.942638	11022.944150
533.303824	10986.058027
533.664953	10995.563123
534.026025	10910.508775
534.387040	11011.155412
534.747999	11009.885041
535.108902	11069.476521
535.469748	10836.290388
535.830537	10928.193143
536.191270	10910.816286
536.551947	10940.294433
536.912567	10933.519122
537.273131	10863.126970
537.633638	10842.339773
537.994089	10829.361322
538.354483	10782.440782
538.714821	10925.672566
539.075103	10932.861252
539.435328	10894.427495
539.795497	10724.782585
540.155609	10875.578620
540.515665	10960.902670
540.875665	10700.673267
541.235609	10773.167580
541.595496	10767.544173
541.955328	10917.442882
542.315102	10806.224946
542.674821	10754.913562
543.034483	10757.534962
543.394090	10763.591908
543.753640	10689.444097
544.113134	10912.595813
544.472571	10760.368090
544.831953	10907.506768
545.191278	10711.146264
545.550548	10737.072918
545.909761	10881.786801
546.268918	10851.585249
546.628019	10936.256469
546.987064	10798.822012
547.346053	10725.183357
547.704986	10830.621610
548.063863	10806.585389
548.422684	10802.922991
548.781449	10723.328213
549.140158	10821.335805
549.498811	10701.840294
549.857408	10559.483151
550.215949	10783.000351
550.574434	10634.240942
550.932864	10728.621424
551.291237	10792.722216
551.649555	10736.664585
552.007817	10755.780640
552.366022	10711.945287
552.724173	10712.746831
553.082267	10695.740498
553.440305	10832.955665
553.798288	10633.210026
554.156215	10786.443459
554.514086	10759.569068
554.871902	10609.539288
555.229661	10647.920113
555.587365	10620.655032
555.945014	10518.417912
556.302606	10644.925667
556.660143	10531.477021
557.017625	10696.985663
557.375050	10589.440207
557.732421	10719.199508
558.089735	10632.794131
558.446994	10637.784873
558.804197	10674.066057
559.161345	10671.520274
559.518437	10522.377738
559.875474	10615.341656
560.232455	10649.218210
560.589381	10590.130846
560.946251	10591.817112
561.303065	10697.487258
561.659825	10634.296394
562.016528	10558.159848
562.373177	10443.004771
562.729770	10556.728160
563.086307	10474.537188
563.442789	10563.702597
563.799216	10442.727507
564.155587	10492.834056
564.511904	10443.425707
564.868164	10438.490417
565.224370	10451.312592
565.580520	10373.560356
565.936615	10374.127486
566.292654	10251.282128
566.648638	10384.101408
567.004567	10338.972999
567.360441	10325.780300
567.716260	10232.922246
568.072023	10331.103758
568.427732	10286.025760
568.783385	10185.759731
569.138982	10260.603222
569.494525	10273.437999
569.850013	10154.212190
570.205445	10233.078522
570.560823	10129.044230
570.916145	10053.018588
571.271412	10118.067117
571.626625	10056.623013
571.981782	10033.143839
572.336884	10012.215489
572.691931	10022.708651
573.046923	9967.860897
573.401860	9918.203011
573.756743	9860.338127
574.111570	9904.256659
574.466342	9887.139421
574.821059	9912.372917
575.175722	9805.185383
575.530330	9810.130755
575.884882	9801.414600
576.239380	9733.969003
576.593823	9712.914624
576.948211	9728.126305
577.302544	9608.313202
577.656823	9619.020613
578.011047	9621.495819
578.365216	9596.103527
578.719330	9528.181541
579.073389	9535.944918
579.427394	9483.237134
579.781344	9456.224111
580.135239	9404.794259
580.489080	9414.740456
580.842866	9320.543976
581.196597	9328.020007
581.550273	9365.112817
581.903895	9334.437396
582.257463	9401.877952
582.610975	9276.922872
582.964434	9305.473446
583.317837	9225.119975
583.671186	9205.714053
584.024481	9205.686327
584.377721	9121.773800
584.730906	9097.896375
585.084037	9127.311508
585.437113	9062.565448
585.790135	9088.948327
586.143103	8985.599632
586.496016	8959.468811
586.848874	9020.134056
587.201679	9005.497066
587.554428	8890.589005
587.907124	8939.750338
588.259765	8908.810256
588.612352	8908.719515
588.964884	8791.452194
589.317362	8804.307137
589.669786	8802.278072
590.022155	8858.108851
590.374470	8867.787867
590.726731	8802.174729
591.078937	8658.953027
591.431090	8769.513093
591.783188	8642.168506
592.135232	8635.730952
592.487222	8632.570149
592.839157	8688.932769
593.191038	8615.694886
593.542866	8564.723780
593.894639	8468.402453
594.246358	8516.323662
594.598022	8539.001292
594.949633	8434.258718
595.301190	8406.928103
595.652692	8434.891383
596.004141	8546.936068
596.355535	8324.565731
596.706876	8304.990931
597.058162	8238.117504
597.409395	8313.218094
597.760573	8379.872230
598.111698	8288.133312
598.462768	8269.349973
598.813785	8236.922751
599.164748	8204.112401
599.515657	8197.909261
599.866511	8107.559181
600.217312	8232.486535
600.568060	8089.718538
600.918753	8193.697377
601.269392	8162.038931
601.619978	8076.230931
601.970510	8134.940208
602.320988	8138.068244
602.671412	8197.087553
603.021783	8129.231102
603.372100	8101.154395
603.722363	8107.216383
604.072572	8084.493382
604.422728	8089.554700
604.772830	8024.833847
605.122878	8025.506841
605.472872	8025.174125
605.822813	8054.334679
606.172701	7995.451482
606.522534	8070.940240
606.872314	8066.778767
607.222041	8042.240951
607.571714	8096.604754
607.921333	8053.023979
608.270899	8060.923467
608.620411	8143.071590
608.969870	8054.248979
609.319276	8047.897126
609.668627	8064.739621
610.017926	8103.201104
610.367171	8146.035788
610.716362	8122.677602
611.065500	8118.886654
611.414585	8140.558574
611.763616	8129.271431
612.112594	8110.087320
612.461518	8127.045762
612.810389	8187.716048
613.159207	8125.170452
613.507971	8075.913338
613.856682	8190.508847
614.205340	8147.903536
614.553945	8221.700987
614.902496	8131.353427
615.250994	8178.561313
615.599439	8159.810741
615.947830	8174.634254
616.296169	8148.090058
616.644454	8162.177563
616.992686	8159.404928
617.340864	8217.184113
617.688990	8122.566696
618.037063	8215.006334
618.385082	8162.621184
618.733048	8245.540603
619.080961	8186.231428
619.428821	8205.748255
619.776628	8202.932771
620.124382	8159.160432
620.472083	8142.600242
620.819731	8172.012854
621.167326	8065.342038
621.514868	8071.290600
621.862357	7961.663148
622.209793	7976.958009
622.557176	7910.949140
622.904506	7884.982157
623.251783	7812.840725
623.599007	7767.578725
623.946179	7769.907738
624.293297	7732.608241
624.640363	7648.569685
624.987376	7631.102087
625.334336	7582.084428
625.681243	7526.193155
626.028097	7516.383070
626.374899	7496.034452
626.721647	7490.398442
627.068343	7417.397493
627.414987	7389.590489
627.761577	7342.864034
628.108115	7382.847946
628.454600	7277.487830
628.801032	7329.784760
629.147412	7288.265817
629.493739	7281.707276
629.840014	7212.971143
630.186236	7269.729494
630.532405	7154.708008
630.878521	7210.435443
631.224585	7161.967269
631.570597	7087.378357
631.916556	7119.301464
632.262462	7114.446833
632.608316	7073.411840
632.954117	7054.963738
633.299866	7039.757097
633.645562	7032.134872
633.991206	6950.266534
634.336797	6898.367855
634.682336	6855.069385
635.027823	6823.620147
635.373257	6817.515309
635.718639	6742.848259
636.063968	6762.614623
636.409245	6653.766029
636.754470	6652.195710
637.099642	6608.403207
637.444762	6552.285082
637.789829	6560.960908
638.134845	6507.219687
638.479808	6488.635473
638.824719	6494.838613
639.169577	6427.566936
639.514383	6444.318690
639.859137	6368.482092
640.203839	6384.553291
640.548489	6369.545776
