Dividing Wavelength (nm)	Counts (n)	Blue Motor Position (mm): 9.500000	Red Motor Position (mm): 0.000000	
326.493990	2158.178455
326.888308	2158.178455
327.282561	2158.178455
327.676750	2134.895886
328.070874	2135.999899
328.464933	2142.190436
328.858929	2150.059677
329.252859	2162.521409
329.646726	2178.068328
330.040528	2188.841274
330.434265	2208.184181
330.827938	2229.407439
331.221547	2249.420819
331.615091	2269.318254
332.008571	2288.784669
332.401986	2308.785447
332.795338	2328.287151
333.188625	2350.107785
333.581847	2365.894158
333.975006	2388.357540
334.368100	2405.626012
334.761129	2425.601585
335.154095	2440.651949
335.546996	2460.100721
335.939833	2480.134266
336.332606	2496.941473
336.725315	2508.208452
337.117960	2513.723474
337.510540	2526.051616
337.903056	2532.756351
338.295508	2538.669624
338.687896	2543.569626
339.080220	2556.132181
339.472480	2560.916236
339.864676	2561.062430
340.256807	2567.469736
340.648875	2569.796229
341.040879	2572.541137
341.432818	2570.078533
341.824694	2570.829665
342.216506	2572.699933
342.608253	2571.759758
342.999937	2569.173646
343.391557	2570.620457
343.783113	2566.101063
344.174605	2567.615930
344.566033	2565.420507
344.957397	2565.070147
345.348697	2561.823644
345.739934	2561.420352
346.131106	2558.357851
346.522215	2558.594785
346.913260	2554.975236
347.304241	2553.435164
347.695159	2551.393497
348.086012	2551.776624
348.476802	2545.213042
348.867528	2548.923331
349.258191	2545.407126
349.648789	2544.734132
350.039324	2542.957126
350.429796	2544.603062
350.820203	2542.926879
351.210548	2544.454348
351.600828	2540.456713
351.991045	2539.952598
352.381198	2541.343956
352.771288	2540.504604
353.161314	2538.460416
353.551276	2540.350849
353.941175	2538.730118
354.331010	2537.507638
354.720782	2539.040149
355.110490	2542.125335
355.500135	2540.360931
355.889717	2537.437062
356.279235	2542.770603
356.668689	2543.884698
357.058080	2540.333205
357.447408	2539.541744
357.836672	2537.648791
358.225873	2540.867567
358.615010	2538.354552
359.004084	2545.820501
359.393095	2542.841179
359.782043	2545.586087
360.170927	2543.562064
360.559748	2544.477033
360.948505	2544.814791
361.337199	2544.792106
361.725830	2543.887218
362.114398	2547.814277
362.502903	2546.553989
362.891344	2548.852755
363.279722	2550.838970
363.668037	2547.438711
364.056289	2550.077755
364.444478	2550.163455
364.832603	2549.104813
365.220665	2548.958619
365.608665	2547.166489
365.996601	2550.957437
366.384474	2550.279402
366.772284	2551.675801
367.160031	2549.828218
367.547715	2553.213353
367.935336	2551.486758
368.322893	2552.923487
368.710388	2555.038251
369.097820	2556.800134
369.485189	2551.862324
369.872495	2555.108827
370.259738	2553.626728
370.646918	2553.198230
371.034035	2552.646223
371.421090	2557.458005
371.808081	2554.796275
372.195010	2555.408776
372.581875	2554.987839
372.968678	2555.542366
373.355418	2558.473797
373.742096	2557.891544
374.128710	2555.933056
374.515262	2557.531101
374.901751	2558.577141
375.288177	2557.122768
375.674540	2557.977243
376.060841	2559.681153
376.447079	2558.030176
376.833254	2558.194013
377.219367	2554.241748
377.605417	2556.621173
377.991404	2555.474311
378.377329	2555.703683
378.763191	2554.541697
379.148991	2559.207285
379.534727	2562.017728
379.920402	2561.314487
380.306013	2558.118396
380.691563	2559.298026
381.077049	2560.235680
381.462474	2563.320867
381.847835	2559.721483
382.233134	2562.534447
382.618371	2559.325752
383.003545	2561.984961
383.388657	2562.388253
383.773706	2562.705846
384.158693	2560.656617
384.543618	2561.753068
384.928480	2563.078891
385.313280	2562.983109
385.698017	2560.996895
386.082692	2566.116186
386.467305	2564.820610
386.851856	2562.473953
387.236344	2565.450754
387.620770	2562.990671
388.005133	2563.731721
388.389435	2564.931515
388.773674	2564.419838
389.157851	2562.683161
389.541965	2564.535785
389.926018	2565.372616
390.310008	2564.601320
390.693936	2564.455126
391.077802	2564.417318
391.461606	2566.718604
391.845348	2564.681978
392.229027	2569.387895
392.612645	2566.695919
392.996200	2566.113666
393.379694	2567.913358
393.763125	2567.830179
394.146494	2569.571897
394.529801	2567.447051
394.913047	2569.408060
395.296230	2569.304716
395.679351	2567.464695
396.062410	2567.449572
396.445408	2567.628532
396.828343	2568.387226
397.211217	2566.942936
397.594028	2563.774570
397.976778	2567.285734
398.359466	2568.200703
398.742092	2564.311453
399.124656	2566.280024
399.507158	2569.861764
399.889598	2570.806980
400.271977	2570.378482
400.654294	2571.361507
401.036549	2569.458471
401.418742	2571.139696
401.800874	2570.310426
402.182944	2572.006775
402.564952	2570.867474
402.946898	2569.750858
403.328783	2568.528378
403.710606	2571.346383
404.092367	2573.173802
404.474067	2571.757237
404.855705	2572.936867
405.237282	2571.593400
405.618797	2572.896538
406.000250	2572.886456
406.381642	2574.555078
406.762972	2574.665983
407.144240	2573.254460
407.525447	2577.085737
407.906593	2571.984089
408.287677	2574.948288
408.668700	2572.037022
409.049661	2574.202197
409.430560	2574.217321
409.811399	2577.289904
410.192176	2575.376786
410.572891	2572.583987
410.953545	2575.364183
411.334138	2573.781261
411.714669	2576.503484
412.095139	2575.001220
412.475547	2574.960891
412.855894	2576.001889
413.236180	2575.502815
413.616405	2574.424008
413.996568	2574.643298
414.376670	2576.498443
414.756711	2574.499625
415.136691	2578.348546
415.516609	2575.833010
415.896466	2577.531879
416.276262	2576.306879
416.655997	2572.500808
417.035670	2571.888307
417.415283	2575.223031
417.794834	2572.158009
418.174324	2575.540623
418.553753	2578.348546
418.933121	2581.348033
419.312428	2578.766962
419.691674	2576.929461
420.070859	2577.610017
420.449983	2576.513566
420.829045	2579.467682
421.208047	2576.294276
421.586988	2576.823597
421.965867	2580.740574
422.344686	2577.972980
422.723444	2582.308372
423.102141	2577.562126
423.480777	2579.140007
423.859352	2578.212435
424.237866	2577.020202
424.616319	2579.306365
424.994712	2580.082703
425.373044	2579.268557
425.751314	2581.111098
426.129524	2580.496078
426.507673	2580.639751
426.885762	2579.170254
427.263789	2579.654205
427.641756	2578.731674
428.019662	2581.572364
428.397508	2579.979359
428.775292	2580.677559
429.153016	2580.690162
429.530679	2581.443815
429.908282	2582.182344
430.285824	2582.268043
430.663305	2578.590522
431.040726	2582.835173
431.418086	2581.204360
431.795385	2582.494895
432.172624	2579.424832
432.549802	2578.870306
432.926920	2583.787951
433.303977	2582.295770
433.680974	2583.672005
434.057910	2582.754515
434.434786	2581.922724
434.811601	2582.900708
435.188355	2582.346181
435.565050	2582.734350
435.941683	2583.130081
436.318257	2580.876685
436.694770	2581.249730
437.071222	2581.262333
437.447614	2579.608835
437.823946	2578.991293
438.200218	2579.021540
438.576429	2582.648650
438.952580	2582.875502
439.328670	2584.556727
439.704700	2582.396593
440.080670	2583.835842
440.456580	2582.636047
440.832429	2581.559761
441.208218	2585.665781
441.583947	2583.871130
441.959616	2583.876171
442.335224	2585.360791
442.710773	2584.851635
443.086261	2582.628486
443.461689	2587.205853
443.837057	2583.666963
444.212365	2583.326686
444.587612	2585.474217
444.962800	2583.926583
445.337927	2585.630493
445.712995	2581.002714
446.088002	2586.913467
446.462949	2585.201995
446.837837	2583.051943
447.212664	2584.823908
447.587431	2586.323652
447.962139	2586.348857
448.336786	2587.273909
448.711374	2584.246696
449.085901	2586.061512
449.460369	2586.963878
449.834776	2583.394741
450.209124	2584.491192
450.583412	2588.816502
450.957640	2586.391707
451.331808	2586.366501
451.705917	2585.476738
452.079965	2587.765422
452.453954	2586.668971
452.827883	2587.712489
453.201752	2584.682756
453.575562	2587.301635
453.949311	2584.110585
454.323001	2588.614856
454.696632	2587.049578
455.070202	2585.539752
455.443713	2588.680391
455.817164	2584.637386
456.190556	2582.890626
456.563888	2584.347519
456.937160	2582.754515
457.310373	2586.333734
457.683526	2589.638210
458.056619	2588.496389
458.429653	2589.300453
458.802628	2587.798189
459.175542	2585.801892
459.548398	2587.815833
459.921194	2587.294074
460.293930	2590.651482
460.666607	2587.770463
461.039224	2585.106213
461.411782	2592.425968
461.784280	2588.897161
462.156719	2589.229877
462.529099	2587.679722
462.901419	2586.656368
463.273680	2588.917325
463.645882	2590.190217
464.018024	2589.481934
464.390106	2588.997984
464.762130	2587.828436
465.134094	2590.233066
465.505999	2589.237438
465.877845	2589.174424
466.249631	2590.497727
466.621358	2590.172573
466.993026	2592.927563
467.364634	2592.057964
467.736184	2587.445308
468.107674	2589.494537
468.479105	2590.180134
468.850477	2589.998653
469.221790	2587.064701
469.593043	2592.443612
469.964238	2587.863724
470.335373	2589.555031
470.706449	2591.059816
471.077467	2590.701894
471.448425	2593.376226
471.819324	2591.269023
472.190164	2589.965885
472.560945	2590.346492
472.931667	2590.706935
473.302330	2589.726430
473.672934	2591.296750
474.043479	2591.314394
474.413965	2590.207861
474.784393	2590.046544
475.154761	2586.290884
475.525070	2589.668457
475.895321	2586.757191
476.265513	2584.559248
476.635645	2590.006214
477.005719	2593.182141
477.375734	2593.204827
477.745691	2588.052767
478.115588	2590.485124
478.485427	2592.176431
478.855207	2590.575865
479.224928	2594.807913
479.594591	2593.502255
479.964194	2591.417738
480.333739	2592.509147
480.703226	2591.369847
481.072653	2592.007552
481.442022	2592.194075
481.811333	2592.375557
482.180584	2593.585434
482.549777	2591.417737
482.918912	2592.594847
483.287988	2593.010742
483.657005	2591.566452
484.025964	2592.355392
484.394864	2593.494693
484.763706	2592.771287
485.132489	2593.903026
485.501213	2593.461925
485.869879	2594.477718
486.238487	2591.248859
486.607036	2595.256576
486.975527	2593.081318
487.343959	2593.625763
487.712333	2595.296905
488.080648	2593.124168
488.448905	2594.218098
488.817104	2593.129209
489.185244	2595.130547
489.553326	2596.342945
489.921350	2598.364447
490.289315	2596.123655
490.657222	2595.765733
491.025070	2595.117944
491.392861	2596.405959
491.760593	2592.834302
492.128267	2597.688933
492.495883	2596.935280
492.863440	2595.922008
493.230939	2594.681885
493.598380	2596.342945
493.965763	2589.033272
494.333088	2589.905391
494.700354	2591.183324
495.067563	2593.845053
495.434713	2591.211050
495.801805	2593.920670
496.168839	2594.200454
496.535815	2594.644076
496.902733	2595.054930
497.269593	2593.547625
497.636395	2594.366812
498.003139	2594.714652
498.369825	2593.633325
498.736453	2595.450661
499.103023	2594.964189
499.469535	2592.665423
499.835989	2591.695001
500.202385	2594.117275
500.568723	2595.327152
500.935003	2593.056112
501.301226	2594.492841
501.667390	2597.240270
502.033497	2597.658686
502.399546	2595.672471
502.765537	2595.007039
503.131470	2596.247163
503.497345	2597.111721
503.863163	2594.097111
504.228923	2596.453850
504.594625	2595.871597
504.960269	2596.390836
505.325856	2596.897472
505.691385	2595.604416
506.056856	2597.537698
506.422270	2591.299270
506.787625	2593.618201
507.152924	2596.796649
507.518164	2596.174066
507.883347	2594.893613
508.248472	2596.567276
508.613540	2594.797831
508.978550	2594.797831
509.343503	2595.959817
509.708398	2598.137596
510.073236	2597.822523
510.438016	2594.208016
510.802738	2595.407811
511.167403	2596.965527
511.532010	2597.331011
511.896561	2593.983685
512.261053	2598.608943
512.625488	2592.458736
512.989866	2592.534353
513.354186	2593.497213
513.718449	2592.010073
514.082655	2597.366299
514.446803	2599.629777
514.810894	2598.871083
515.174927	2599.949890
515.538904	2596.395877
515.902822	2596.365630
516.266684	2598.676999
516.630488	2599.415528
516.994235	2599.450816
517.357925	2599.110538
517.721558	2600.496856
518.085133	2599.198758
518.448651	2601.595827
518.812112	2600.728749
519.175516	2599.309664
519.538863	2599.423090
519.902152	2599.871752
520.265385	2599.884355
520.628560	2602.094901
520.991678	2597.169694
521.354739	2600.685899
521.717743	2599.410487
522.080690	2603.748400
522.443580	2602.714963
522.806413	2600.670775
523.169189	2601.298399
523.531908	2603.813935
523.894569	2606.316868
524.257174	2602.427617
524.619722	2603.660180
524.982213	2604.310488
525.344647	2604.915427
525.707025	2604.635643
526.069345	2603.327463
526.431608	2603.952567
526.793815	2603.251846
527.155964	2606.342073
527.518057	2604.507093
527.880093	2604.607917
528.242072	2606.604213
528.603995	2610.274173
528.965860	2606.090016
529.327669	2605.585900
529.689421	2607.141096
530.051117	2606.725201
530.412755	2608.839965
530.774337	2607.804008
531.135862	2606.679831
531.497331	2605.268308
531.858743	2604.517176
532.220098	2605.369131
532.581396	2605.124635
532.942638	2604.139089
533.303824	2608.895418
533.664953	2608.839965
534.026025	2607.990531
534.387040	2610.042280
534.747999	2608.880294
535.108902	2611.680655
535.469748	2608.287959
535.830537	2606.044645
536.191270	2609.649070
536.551947	2608.998762
536.912567	2609.598659
537.273131	2610.475820
537.633638	2606.949532
537.994089	2608.318206
538.354483	2609.777620
538.714821	2610.226282
539.075103	2611.196705
539.435328	2610.967332
539.795497	2611.635285
540.155609	2609.931375
540.515665	2612.388937
540.875665	2610.697630
541.235609	2609.767537
541.595496	2610.803495
541.955328	2613.278701
542.315102	2609.807867
542.674821	2612.325923
543.034483	2613.077055
543.394090	2612.905656
543.753640	2613.901284
544.113134	2612.270470
544.472571	2612.149483
544.831953	2611.221910
545.191278	2612.840121
545.550548	2611.557147
545.909761	2615.123763
546.268918	2609.500356
546.628019	2612.739298
546.987064	2611.710902
547.346053	2612.356170
547.704986	2612.217538
548.063863	2612.441870
548.422684	2614.851541
548.781449	2613.364401
549.140158	2612.464555
549.498811	2615.852210
549.857408	2611.605038
550.215949	2611.257198
550.574434	2609.270984
550.932864	2609.094543
551.291237	2609.943978
551.649555	2612.923300
552.007817	2612.693927
552.366022	2613.838269
552.724173	2613.402209
553.082267	2613.707199
553.440305	2614.062601
553.798288	2614.861623
554.156215	2614.924638
554.514086	2614.864144
554.871902	2614.387755
555.229661	2614.138218
555.587365	2616.618466
555.945014	2610.117898
556.302606	2613.742487
556.660143	2615.524535
557.017625	2616.830194
557.375050	2613.558485
557.732421	2614.836418
558.089735	2614.264247
558.446994	2614.733074
558.804197	2614.357508
559.161345	2614.198712
559.518437	2614.153341
559.875474	2614.085286
560.232455	2615.030502
560.589381	2617.593929
560.946251	2617.356995
561.303065	2614.914556
561.659825	2617.389762
562.016528	2615.418671
562.373177	2615.239710
562.729770	2614.554113
563.086307	2615.537138
563.442789	2612.194853
563.799216	2613.777775
564.155587	2616.794906
564.511904	2613.187960
564.868164	2616.684001
565.224370	2617.107457
565.580520	2617.213322
565.936615	2616.646192
566.292654	2615.869854
566.648638	2616.142077
567.004567	2619.035699
567.360441	2616.389093
567.716260	2618.763477
568.072023	2618.319855
568.427732	2611.894904
568.783385	2613.203084
569.138982	2613.626541
569.494525	2614.496140
569.850013	2614.284411
570.205445	2619.426388
570.560823	2617.581326
570.916145	2617.490585
571.271412	2619.081069
571.626625	2617.593929
571.981782	2616.436984
572.336884	2620.679115
572.691931	2617.934207
573.046923	2622.267078
573.401860	2617.374639
573.756743	2623.993674
574.111570	2617.656943
574.466342	2617.742643
574.821059	2616.772221
575.175722	2617.382200
575.530330	2617.518312
575.884882	2619.484362
576.239380	2618.191306
576.593823	2618.924793
576.948211	2619.000411
577.302544	2618.702983
577.656823	2620.227932
578.011047	2621.780607
578.365216	2622.383025
578.719330	2620.502675
579.073389	2619.612911
579.427394	2617.732561
579.781344	2618.743312
580.135239	2619.675925
580.489080	2620.505195
580.842866	2621.412603
581.196597	2620.303549
581.550273	2621.248765
581.903895	2621.972171
582.257463	2622.579630
582.610975	2622.582151
582.964434	2621.594084
583.317837	2623.373612
583.671186	2621.349588
584.024481	2619.683487
584.377721	2623.986112
584.730906	2620.729527
585.084037	2623.918056
585.437113	2623.040896
585.790135	2621.815895
586.143103	2623.073663
586.496016	2622.834208
586.848874	2619.771707
587.201679	2621.725154
587.554428	2619.171810
587.907124	2622.158694
588.259765	2622.458642
588.612352	2624.059209
588.964884	2626.610032
589.317362	2626.020217
589.669786	2627.368726
590.022155	2630.063223
590.374470	2630.017852
590.726731	2626.224384
591.078937	2627.754374
591.431090	2629.296967
591.783188	2626.920063
592.135232	2630.083387
592.487222	2630.196813
592.839157	2632.067082
593.191038	2631.454581
593.542866	2630.718573
593.894639	2630.673202
594.246358	2630.383336
594.598022	2630.184211
594.949633	2631.802421
595.301190	2631.746968
595.652692	2632.099849
596.004141	2634.408697
596.355535	2636.132772
596.706876	2634.028090
597.058162	2636.531023
597.409395	2634.086064
597.760573	2636.508338
598.111698	2634.617905
598.462768	2638.197125
598.813785	2636.120169
599.164748	2638.207207
599.515657	2636.180663
599.866511	2641.599903
600.217312	2639.268370
600.568060	2638.534882
600.918753	2641.478916
601.269392	2643.306334
601.619978	2642.424132
601.970510	2646.250368
602.320988	2643.959163
602.671412	2645.718526
603.021783	2646.638537
603.372100	2648.203815
603.722363	2647.982004
604.072572	2649.448980
604.422728	2652.743374
604.772830	2649.529638
605.122878	2647.356901
605.472872	2650.164824
605.822813	2653.212201
606.172701	2653.746564
606.522534	2657.540032
606.872314	2657.666061
607.222041	2660.352996
607.571714	2659.763181
607.921333	2660.284940
608.270899	2660.922646
608.620411	2663.362565
608.969870	2664.219561
609.319276	2666.082267
609.668627	2670.190807
610.017926	2670.659635
610.367171	2671.037721
610.716362	2673.142403
611.065500	2674.619461
611.414585	2676.293124
611.763616	2681.795544
612.112594	2683.761594
612.461518	2683.612880
612.810389	2686.198992
613.159207	2689.321986
613.507971	2688.767459
613.856682	2694.136288
614.205340	2694.804241
614.553945	2699.182483
614.902496	2698.980837
615.250994	2702.113914
615.599439	2703.664069
615.947830	2710.542723
616.296169	2706.590459
616.644454	2714.900801
616.992686	2715.480534
617.340864	2721.731564
617.688990	2722.391956
618.037063	2728.423696
618.385082	2730.659448
618.733048	2734.909141
619.080961	2740.585480
619.428821	2743.151427
619.776628	2748.464803
620.124382	2748.623600
620.472083	2752.906060
620.819731	2752.827922
621.167326	2752.981677
621.514868	2758.612646
621.862357	2758.884868
622.209793	2760.440064
622.557176	2762.663213
622.904506	2757.813623
623.251783	2761.226484
623.599007	2762.529622
623.946179	2764.261259
624.293297	2768.415170
624.640363	2769.824172
624.987376	2772.001951
625.334336	2774.323402
625.681243	2773.166457
626.028097	2780.856737
626.374899	2780.055194
626.721647	2782.689197
627.068343	2785.348405
627.414987	2788.786472
627.761577	2792.564817
628.108115	2798.284006
628.454600	2797.197637
628.801032	2805.263484
629.147412	2809.157775
629.493739	2813.813281
629.840014	2814.327478
630.186236	2822.151349
630.532405	2823.870382
630.878521	2831.122082
631.224585	2837.461333
631.570597	2838.683813
631.916556	2845.539782
632.262462	2849.915504
632.608316	2857.409179
632.954117	2859.791124
633.299866	2864.393698
633.645562	2866.296733
633.991206	2868.270345
634.336797	2869.087012
634.682336	2871.537013
635.027823	2874.410470
635.373257	2877.278887
635.718639	2877.097405
636.063968	2878.007334
636.409245	2878.614793
636.754470	2884.346585
637.099642	2886.952861
637.444762	2888.142573
637.789829	2892.399828
638.134845	2895.603481
638.479808	2898.146743
638.824719	2899.792680
639.169577	2902.295613
639.514383	2908.392888
639.859137	2907.976993
640.203839	2920.514343
640.548489	2917.618200
640.893086	2921.399065
641.237632	2924.897626
641.582125	2927.992895
641.926566	2934.309460
642.270955	2943.663321
642.615292	2950.889815
642.959576	2953.954837
643.303809	2957.796196
643.647990	2966.630818
643.992118	2973.635502
644.336195	2977.174392
