Dividing Wavelength (nm)	Counts (n)	Blue Motor Position (mm): 1.800000	Red Motor Position (mm): 0.000000	
326.493990	2163.678354
326.888308	2163.678354
327.282561	2163.678354
327.676750	2123.618825
328.070874	2120.032044
328.464933	2119.878289
328.858929	2123.636469
329.252859	2127.112345
329.646726	2134.585855
330.040528	2151.277116
330.434265	2163.885042
330.827938	2180.238545
331.221547	2196.108097
331.615091	2212.393544
332.008571	2233.122769
332.401986	2250.645820
332.795338	2272.521907
333.188625	2291.963117
333.581847	2305.788481
333.975006	2325.953097
334.368100	2345.729543
334.761129	2360.575741
335.154095	2379.911087
335.546996	2395.846174
335.939833	2410.223545
336.332606	2428.901020
336.725315	2439.696651
337.117960	2455.951851
337.510540	2464.552060
337.903056	2473.580766
338.295508	2483.148876
338.687896	2494.146153
339.080220	2498.670589
339.472480	2507.096878
339.864676	2513.620131
340.256807	2519.167921
340.648875	2524.234280
341.040879	2524.380474
341.432818	2527.626977
341.824694	2531.395239
342.216506	2532.597554
342.608253	2531.460774
342.999937	2535.249201
343.391557	2531.778367
343.783113	2531.821217
344.174605	2530.591175
344.566033	2530.893644
344.957397	2529.504807
345.348697	2525.045906
345.739934	2527.790814
346.131106	2526.964065
346.522215	2523.639424
346.913260	2521.025586
347.304241	2518.341171
347.695159	2516.705317
348.086012	2514.252796
348.476802	2515.147600
348.867528	2512.067455
349.258191	2505.894562
349.648789	2507.038904
350.039324	2501.904489
350.429796	2504.241064
350.820203	2503.331136
351.210548	2504.498163
351.600828	2501.155878
351.991045	2502.849706
352.381198	2502.007833
352.771288	2501.329798
353.161314	2496.880979
353.551276	2500.802997
353.941175	2495.189672
354.331010	2497.707729
354.720782	2496.197903
355.110490	2498.279900
355.500135	2498.194200
355.889717	2498.050527
356.279235	2498.116062
356.668689	2499.572956
357.058080	2496.996926
357.447408	2499.706546
357.836672	2500.245950
358.225873	2498.504231
358.615010	2497.206134
359.004084	2499.923316
359.393095	2500.031701
359.782043	2500.041783
360.170927	2498.935250
360.559748	2500.656804
360.948505	2501.894407
361.337199	2503.555467
361.725830	2501.511279
362.114398	2502.091012
362.502903	2503.835251
362.891344	2503.159737
363.279722	2504.725015
363.668037	2507.389265
364.056289	2505.849192
364.444478	2505.289624
364.832603	2505.541682
365.220665	2507.769872
365.608665	2504.591424
365.996601	2506.262567
366.384474	2506.741476
366.772284	2511.250788
367.160031	2509.567043
367.547715	2511.044101
367.935336	2510.056035
368.322893	2508.127794
368.710388	2505.836589
369.097820	2509.012516
369.485189	2503.671414
369.872495	2510.436642
370.259738	2511.016375
370.646918	2513.907477
371.034035	2508.904131
371.421090	2512.989987
371.808081	2512.785820
372.195010	2513.423526
372.581875	2512.558968
372.968678	2515.319000
373.355418	2515.240862
373.742096	2513.988135
374.128710	2510.739111
374.515262	2516.730523
374.901751	2514.330933
375.288177	2515.843280
375.674540	2514.383866
376.060841	2515.835718
376.447079	2518.147087
376.833254	2515.225738
377.219367	2515.319000
377.605417	2516.070132
377.991404	2514.608197
378.377329	2519.903929
378.763191	2517.801768
379.148991	2515.961747
379.534727	2516.049967
379.920402	2516.501150
380.306013	2520.241686
380.691563	2517.554751
381.077049	2518.603311
381.462474	2517.756397
381.847835	2518.436953
382.233134	2519.359484
382.618371	2517.524504
383.003545	2519.183044
383.388657	2517.093486
383.773706	2520.352592
384.158693	2517.947961
384.543618	2518.441994
384.928480	2519.482993
385.313280	2518.252951
385.698017	2522.051461
386.082692	2520.219001
386.467305	2518.310924
386.851856	2518.215142
387.236344	2521.340658
387.620770	2517.443846
388.005133	2517.549710
388.389435	2518.575585
388.773674	2516.291942
389.157851	2524.007428
389.541965	2522.028775
389.926018	2523.520957
390.310008	2522.366533
390.693936	2522.789990
391.077802	2521.862417
391.461606	2522.038858
391.845348	2522.706811
392.229027	2521.625483
392.612645	2522.200175
392.996200	2523.256296
393.379694	2522.530370
393.763125	2526.230577
394.146494	2523.067253
394.529801	2525.628159
394.913047	2525.338293
395.296230	2521.559948
395.679351	2525.035824
396.062410	2528.259642
396.445408	2525.199661
396.828343	2524.451050
397.211217	2525.449198
397.594028	2525.416431
397.976778	2526.636390
398.359466	2526.560773
398.742092	2525.751667
399.124656	2527.821061
399.507158	2527.251411
399.889598	2528.763757
400.271977	2525.474404
400.654294	2528.582275
401.036549	2525.582789
401.418742	2529.227543
401.800874	2528.796524
402.182944	2531.165867
402.564952	2528.236956
402.946898	2530.182842
403.328783	2527.609333
403.710606	2529.837523
404.092367	2529.764426
404.474067	2528.937677
404.855705	2527.599250
405.237282	2528.768798
405.618797	2528.988088
406.000250	2534.808100
406.381642	2528.463808
406.762972	2528.715866
407.144240	2529.048582
407.525447	2527.901720
407.906593	2524.791328
408.287677	2530.555887
408.668700	2529.714014
409.049661	2533.628470
409.430560	2533.104190
409.811399	2531.186031
410.192176	2533.081505
410.572891	2530.762574
410.953545	2530.303829
411.334138	2532.877338
411.714669	2531.342307
412.095139	2532.375744
412.475547	2530.185362
412.855894	2529.250228
413.236180	2533.678882
413.616405	2532.456402
413.996568	2533.678882
414.376670	2531.359951
414.756711	2532.264838
415.136691	2532.302647
415.516609	2532.965559
415.896466	2534.210724
416.276262	2534.528316
416.655997	2535.705426
417.035670	2532.254756
417.415283	2536.915303
417.794834	2536.580066
418.174324	2534.248532
418.553753	2533.545291
418.933121	2535.965045
419.312428	2532.983203
419.691674	2533.661238
420.070859	2535.322298
420.449983	2535.029911
420.829045	2533.482277
421.208047	2534.671989
421.586988	2536.937988
421.965867	2537.048893
422.344686	2535.279448
422.723444	2537.772299
423.102141	2535.307175
423.480777	2536.028060
423.859352	2536.726259
424.237866	2539.027546
424.616319	2537.815149
424.994712	2535.213913
425.373044	2538.241126
425.751314	2535.672658
426.129524	2533.298275
426.507673	2535.939839
426.885762	2530.928932
427.263789	2535.549150
427.641756	2538.714995
428.019662	2538.452855
428.397508	2535.894469
428.775292	2537.217772
429.153016	2539.186343
429.530679	2537.676517
429.908282	2538.541075
430.285824	2540.577701
430.663305	2538.324305
431.040726	2539.025026
431.418086	2535.869263
431.795385	2538.944367
432.172624	2537.457227
432.549802	2539.461085
432.926920	2536.096115
433.303977	2539.662732
433.680974	2542.233720
434.057910	2541.134748
434.434786	2537.444624
434.811601	2539.251877
435.188355	2536.668286
435.565050	2537.366486
435.941683	2541.545603
436.318257	2539.337577
436.694770	2541.338915
437.071222	2541.099460
437.447614	2538.062165
437.823946	2540.592824
438.200218	2539.821528
438.576429	2540.066024
438.952580	2538.425128
439.328670	2542.747918
439.704700	2542.561395
440.080670	2540.187012
440.456580	2540.181970
440.832429	2543.430994
441.208218	2542.258926
441.583947	2544.776982
441.959616	2543.418391
442.335224	2539.947557
442.710773	2541.931251
443.086261	2542.770603
443.461689	2544.088865
443.837057	2543.693134
444.212365	2542.536189
444.587612	2539.987886
444.962800	2538.165509
445.337927	2539.705581
445.712995	2538.341949
446.088002	2544.320758
446.462949	2542.165664
446.837837	2543.466282
447.212664	2544.608103
447.587431	2542.115253
447.962139	2543.423432
448.336786	2544.222455
448.711374	2544.169523
449.085901	2544.711447
449.460369	2542.435366
449.834776	2543.703216
450.209124	2543.965356
450.583412	2544.635830
450.957640	2541.293545
451.331808	2542.745397
451.705917	2543.914945
452.079965	2545.790254
452.453954	2542.936961
452.827883	2544.217414
453.201752	2545.543237
453.575562	2543.713299
453.949311	2544.540048
454.323001	2545.792775
454.696632	2543.473844
455.070202	2544.514842
455.443713	2542.405119
455.817164	2547.693290
456.190556	2544.287990
456.563888	2545.704554
456.937160	2544.524924
457.310373	2544.963505
457.683526	2546.269164
458.056619	2540.804553
458.429653	2542.979811
458.802628	2547.791592
459.175542	2546.468289
459.548398	2543.937630
459.921194	2543.231868
460.293930	2547.295038
460.666607	2544.487116
461.039224	2543.645243
461.411782	2545.631458
461.784280	2546.553989
462.156719	2544.250182
462.529099	2545.538196
462.901419	2547.811757
463.273680	2543.841848
463.645882	2541.437218
464.018024	2544.411498
464.390106	2540.968390
464.762130	2544.464431
465.134094	2548.578012
465.505999	2542.566436
465.877845	2547.552137
466.249631	2546.478372
466.621358	2547.161448
466.993026	2548.141952
467.364634	2552.318548
467.736184	2548.746891
468.107674	2545.946530
468.479105	2549.175389
468.850477	2546.463248
469.221790	2546.649771
469.593043	2548.630944
469.964238	2548.600697
470.335373	2547.249668
470.706449	2547.579864
471.077467	2547.156407
471.448425	2548.948537
471.819324	2548.028526
472.190164	2549.157745
472.560945	2550.173537
472.931667	2546.294369
473.302330	2545.734801
473.672934	2549.987015
474.043479	2547.559699
474.413965	2549.702189
474.784393	2549.152704
475.154761	2547.491643
475.525070	2547.353012
475.895321	2545.734801
476.265513	2547.489123
476.635645	2550.649926
477.005719	2549.634134
477.375734	2548.290666
477.745691	2550.914587
478.115588	2546.947199
478.485427	2547.854607
478.855207	2548.416695
479.224928	2547.443752
479.594591	2549.760163
479.964194	2549.790410
480.333739	2549.382076
480.703226	2548.257899
481.072653	2549.981973
481.442022	2553.349464
481.811333	2546.669935
482.180584	2544.335881
482.549777	2547.879812
482.918912	2543.052907
483.287988	2549.460214
483.657005	2547.950388
484.025964	2549.029195
484.394864	2551.713610
484.763706	2549.382076
485.132489	2548.840152
485.501213	2550.894422
485.869879	2550.191181
486.238487	2551.091027
486.607036	2550.458362
486.975527	2549.051881
487.343959	2551.179247
487.712333	2550.108002
488.080648	2549.561037
488.448905	2549.339226
488.817104	2552.280740
489.185244	2552.926007
489.553326	2551.927859
489.921350	2551.484237
490.289315	2552.069011
490.657222	2550.763352
491.025070	2550.710420
491.392861	2552.812581
491.760593	2551.716130
492.128267	2551.582540
492.495883	2552.210163
492.863440	2547.133722
493.230939	2551.668239
493.598380	2549.172868
493.965763	2550.997766
494.333088	2551.703527
494.700354	2554.839125
495.067563	2550.662529
495.434713	2549.611449
495.801805	2551.093548
496.168839	2551.494320
496.535815	2551.786707
496.902733	2552.512633
497.269593	2550.912066
497.636395	2551.421223
498.003139	2551.524567
498.369825	2551.887530
498.736453	2552.558003
499.103023	2551.844680
499.469535	2553.266285
499.835989	2553.041954
500.202385	2550.415513
500.568723	2545.628937
500.935003	2552.179917
501.301226	2544.603062
501.667390	2550.004659
502.033497	2555.323076
502.399546	2552.744526
502.765537	2550.491130
503.131470	2549.792930
503.497345	2552.310987
503.863163	2555.144115
504.228923	2549.316541
504.594625	2551.466593
504.960269	2551.587581
505.325856	2552.187478
505.691385	2551.234700
506.056856	2554.241748
506.422270	2553.160421
506.787625	2551.965667
507.152924	2549.954247
507.518164	2551.149001
507.883347	2550.823846
508.248472	2549.389638
508.613540	2551.131357
508.978550	2553.223435
509.343503	2553.198230
509.708398	2553.036913
510.073236	2550.997766
510.438016	2554.750905
510.802738	2554.677808
511.167403	2550.632282
511.532010	2552.694114
511.896561	2553.873744
512.261053	2555.232335
512.625488	2550.377704
512.989866	2552.626059
513.354186	2554.763508
513.718449	2551.600184
514.082655	2553.876265
514.446803	2552.981460
514.810894	2553.964485
515.174927	2553.578837
515.538904	2554.035061
515.902822	2549.929041
516.266684	2551.222097
516.630488	2552.615976
516.994235	2554.277037
517.357925	2553.442726
517.721558	2553.656975
518.085133	2555.439023
518.448651	2549.382076
518.812112	2548.280584
519.175516	2549.379556
519.538863	2548.762014
519.902152	2553.604042
520.265385	2552.046326
520.628560	2552.994063
520.991678	2550.876778
521.354739	2556.177552
521.717743	2552.323589
522.080690	2551.050698
522.443580	2554.909701
522.806413	2551.040616
523.169189	2553.964485
523.531908	2553.324258
523.894569	2555.938097
524.257174	2553.094886
524.619722	2551.073383
524.982213	2553.236038
525.344647	2555.207129
525.707025	2553.185627
526.069345	2550.715461
526.431608	2556.079249
526.793815	2555.257541
527.155964	2554.312325
527.518057	2552.835267
527.880093	2555.587737
528.242072	2553.682180
528.603995	2556.008673
528.965860	2551.978270
529.327669	2552.590771
529.689421	2553.934238
530.051117	2555.277706
530.412755	2553.331820
530.774337	2554.072870
531.135862	2553.097407
531.497331	2554.899619
531.858743	2553.941800
532.220098	2554.834084
532.581396	2555.948179
532.942638	2556.429609
533.303824	2552.915925
533.664953	2556.197716
534.026025	2553.712427
534.387040	2555.607901
534.747999	2554.917263
535.108902	2556.144784
535.469748	2553.452808
535.830537	2557.279044
536.191270	2555.224773
536.551947	2551.930379
536.912567	2551.091027
537.273131	2553.291491
537.633638	2550.468445
537.994089	2552.066491
538.354483	2554.705535
538.714821	2554.259392
539.075103	2553.069680
539.435328	2553.878785
539.795497	2553.389793
540.155609	2555.791903
540.515665	2556.328786
540.875665	2554.597150
541.235609	2553.407438
541.595496	2552.202602
541.955328	2553.389793
542.315102	2554.191337
542.674821	2551.428785
543.034483	2555.030689
543.394090	2555.711245
543.753640	2554.627397
544.113134	2554.793755
544.472571	2557.286605
544.831953	2555.418858
545.191278	2553.780483
545.550548	2555.360885
545.909761	2556.401883
546.268918	2555.358364
546.628019	2554.297201
546.987064	2554.887016
547.346053	2555.416337
547.704986	2556.664023
548.063863	2554.740823
548.422684	2553.833415
548.781449	2556.099414
549.140158	2556.243087
549.498811	2555.514640
549.857408	2552.742005
550.215949	2556.119578
550.574434	2556.225443
550.932864	2554.536656
551.291237	2551.416182
551.649555	2555.988508
552.007817	2556.122099
552.366022	2552.938610
552.724173	2554.745864
553.082267	2552.805020
553.440305	2556.046482
553.798288	2555.643189
554.156215	2554.408107
554.514086	2552.966337
554.871902	2549.576161
555.229661	2551.108671
555.587365	2549.833259
555.945014	2552.805020
556.302606	2556.495144
556.660143	2553.213353
557.017625	2555.759136
557.375050	2556.255689
557.732421	2555.073539
558.089735	2553.346944
558.446994	2554.796275
558.804197	2556.646379
559.161345	2554.080432
559.518437	2554.685370
559.875474	2553.987170
560.232455	2554.650082
560.589381	2552.595812
560.946251	2555.547407
561.303065	2554.738302
561.659825	2553.546069
562.016528	2555.068498
562.373177	2556.550597
562.729770	2552.177396
563.086307	2554.803837
563.442789	2557.848694
563.799216	2554.153528
564.155587	2555.030689
564.511904	2556.774928
564.868164	2553.616645
565.224370	2553.846018
565.580520	2558.062943
565.936615	2554.304763
566.292654	2552.711758
566.648638	2554.927345
567.004567	2555.242418
567.360441	2555.436502
567.716260	2555.403734
568.072023	2555.698642
568.427732	2551.809392
568.783385	2557.213509
569.138982	2556.008673
569.494525	2555.852397
569.850013	2552.336192
570.205445	2555.242417
570.560823	2555.938097
570.916145	2553.508261
571.271412	2554.844166
571.626625	2554.297201
571.981782	2555.552448
572.336884	2551.983312
572.691931	2550.559186
573.046923	2551.453990
573.401860	2550.629762
573.756743	2554.087993
574.111570	2554.887016
574.466342	2555.552448
574.821059	2553.525905
575.175722	2553.467931
575.530330	2553.362067
575.884882	2553.341902
576.239380	2555.217212
576.593823	2558.299877
576.948211	2555.968344
577.302544	2553.732592
577.656823	2552.575647
578.011047	2555.406255
578.365216	2553.944320
578.719330	2557.813406
579.073389	2552.941131
579.427394	2558.594785
579.781344	2555.948179
580.135239	2557.268961
580.489080	2553.916594
580.842866	2555.612942
581.196597	2557.510937
581.550273	2556.636297
581.903895	2558.224260
582.257463	2555.817109
582.610975	2556.417006
582.964434	2555.474311
583.317837	2553.997252
583.671186	2555.675957
584.024481	2555.088662
584.377721	2555.786862
584.730906	2558.138560
585.084037	2555.640669
585.437113	2557.662171
585.790135	2553.558672
586.143103	2557.135371
586.496016	2558.995557
586.848874	2557.115206
587.201679	2559.043447
587.554428	2557.800803
587.907124	2556.911039
588.259765	2556.409445
588.612352	2556.573282
588.964884	2554.700493
589.317362	2558.367933
589.669786	2553.848538
590.022155	2554.539177
590.374470	2549.293856
590.726731	2551.511964
591.078937	2553.520863
591.431090	2557.750392
591.783188	2556.391801
592.135232	2553.828374
592.487222	2557.168138
592.839157	2557.405072
593.191038	2557.452963
593.542866	2556.870710
593.894639	2556.895916
594.246358	2555.086142
594.598022	2554.077911
594.949633	2555.025648
595.301190	2553.793086
595.652692	2557.132850
596.004141	2556.447253
596.355535	2555.706204
596.706876	2554.869372
597.058162	2556.054043
597.409395	2553.669578
597.760573	2557.684857
598.111698	2555.915412
598.462768	2557.274003
598.813785	2554.539177
599.164748	2557.389949
599.515657	2557.881462
599.866511	2554.614794
600.217312	2556.457336
600.568060	2557.221070
600.918753	2557.468087
601.269392	2556.434650
601.619978	2555.406255
601.970510	2554.748384
602.320988	2555.502037
602.671412	2557.584033
603.021783	2554.360216
603.372100	2557.740309
603.722363	2555.718807
604.072572	2556.598488
604.422728	2554.453477
604.772830	2551.726213
605.122878	2555.058415
605.472872	2554.763508
605.822813	2558.297357
606.172701	2557.674774
606.522534	2554.055226
606.872314	2556.472459
607.222041	2555.635627
607.571714	2554.019938
607.921333	2552.119423
608.270899	2554.781152
608.620411	2550.405430
608.969870	2558.473797
609.319276	2559.298026
609.668627	2564.376988
610.017926	2566.486711
610.367171	2569.763461
610.716362	2569.521486
611.065500	2566.148954
611.414585	2564.586196
611.763616	2561.400187
612.112594	2562.408418
612.461518	2560.991853
612.810389	2561.256514
613.159207	2559.608057
613.507971	2561.251473
613.856682	2560.139898
614.205340	2560.656617
614.553945	2561.067471
614.902496	2556.331307
615.250994	2556.177552
615.599439	2558.796431
615.947830	2558.272151
616.296169	2560.588561
616.644454	2553.659495
616.992686	2557.377346
617.340864	2559.860114
617.688990	2557.899106
618.037063	2559.812223
618.385082	2558.383056
618.733048	2555.617983
619.080961	2555.698642
619.428821	2557.750392
619.776628	2555.749053
620.124382	2556.837943
620.472083	2556.785011
620.819731	2555.020607
621.167326	2555.917932
621.514868	2559.492110
621.862357	2559.973540
622.209793	2555.030689
622.557176	2557.026986
622.904506	2556.366595
623.251783	2559.441699
623.599007	2557.185782
623.946179	2558.642676
624.293297	2555.244938
624.640363	2554.561862
624.987376	2554.899619
625.334336	2552.189999
625.681243	2552.820143
626.028097	2552.381563
626.374899	2557.969682
626.721647	2555.345761
627.068343	2557.934394
627.414987	2555.875082
627.761577	2555.209650
628.108115	2557.601678
628.454600	2557.470608
628.801032	2557.500854
629.147412	2558.607388
629.493739	2556.477500
629.840014	2557.997408
630.186236	2555.890206
630.532405	2556.522871
630.878521	2557.755433
631.224585	2556.905998
631.570597	2556.144784
631.916556	2556.911039
632.262462	2554.677808
632.608316	2556.734599
632.954117	2555.249979
633.299866	2556.437171
633.645562	2555.570092
633.991206	2554.602191
634.336797	2557.221070
634.682336	2556.406924
635.027823	2555.887685
635.373257	2554.251831
635.718639	2557.185782
636.063968	2556.754764
636.409245	2555.287788
636.754470	2555.928014
637.099642	2553.964485
637.444762	2555.176882
637.789829	2557.916750
638.134845	2553.833415
638.479808	2553.621687
638.824719	2555.706204
639.169577	2556.515309
639.514383	2556.386759
639.859137	2556.802655
640.203839	2553.737633
640.548489	2555.383570
640.893086	2555.683518
641.237632	2555.406255
641.582125	2554.622356
641.926566	2554.703014
642.270955	2551.600184
642.615292	2551.499361
642.959576	2551.625390
643.303809	2551.174206
643.647990	2555.406255
643.992118	2555.307952
644.336195	2558.549414
