Dividing Wavelength (nm)	Counts (n)	Blue Motor Position (mm): 6.600000	Red Motor Position (mm): 0.000000	
326.493990	2064.271842
326.888308	2064.271842
327.282561	2064.271842
327.676750	2037.490712
328.070874	2039.333253
328.464933	2044.467669
328.858929	2053.025027
329.252859	2062.598178
329.646726	2076.451269
330.040528	2094.566656
330.434265	2111.686414
330.827938	2132.899589
331.221547	2156.406490
331.615091	2174.108502
332.008571	2193.274968
332.401986	2216.360933
332.795338	2236.591083
333.188625	2254.121695
333.581847	2276.451486
333.975006	2289.129988
334.368100	2309.733184
334.761129	2324.324804
335.154095	2340.716116
335.546996	2358.934846
335.939833	2379.447301
336.332606	2395.054713
336.725315	2404.237175
337.117960	2415.733526
337.510540	2421.309042
337.903056	2432.679365
338.295508	2442.098761
338.687896	2447.220573
339.080220	2451.913887
339.472480	2456.914712
339.864676	2460.098200
340.256807	2460.256997
340.648875	2461.739096
341.040879	2464.579786
341.432818	2466.750003
341.824694	2466.666824
342.216506	2468.794191
342.608253	2466.893676
342.999937	2466.119859
343.391557	2463.629529
343.783113	2465.043572
344.174605	2461.479477
344.566033	2462.470063
344.957397	2460.854373
345.348697	2457.756584
345.739934	2455.601491
346.131106	2454.195009
346.522215	2454.053857
346.913260	2448.775769
347.304241	2449.027827
347.695159	2449.045471
348.086012	2449.955399
348.476802	2443.197732
348.867528	2442.635643
349.258191	2436.288831
349.648789	2439.898297
350.039324	2435.451999
350.429796	2439.926023
350.820203	2438.955601
351.210548	2437.450817
351.600828	2438.353183
351.991045	2436.740014
352.381198	2437.342432
352.771288	2437.869232
353.161314	2436.878646
353.551276	2435.562905
353.941175	2437.349994
354.331010	2436.916454
354.720782	2435.809921
355.110490	2436.916454
355.500135	2437.150868
355.889717	2437.357555
356.279235	2437.440734
356.668689	2437.433173
357.058080	2437.899479
357.447408	2440.757814
357.836672	2439.434511
358.225873	2439.784871
358.615010	2438.048193
359.004084	2440.843513
359.393095	2440.452824
359.782043	2442.713781
360.170927	2441.546754
360.559748	2443.132197
360.948505	2438.529624
361.337199	2444.752928
361.725830	2443.606066
362.114398	2441.350149
362.502903	2443.689245
362.891344	2444.200922
363.279722	2445.004986
363.668037	2446.154369
364.056289	2442.653288
364.444478	2445.635130
364.832603	2447.822991
365.220665	2446.083793
365.608665	2445.839297
365.996601	2447.681838
366.384474	2447.006324
366.772284	2448.301900
367.160031	2448.672425
367.547715	2451.223249
367.935336	2448.798454
368.322893	2445.385593
368.710388	2446.671087
369.097820	2446.353494
369.485189	2444.395006
369.872495	2449.859617
370.259738	2448.080090
370.646918	2452.523867
371.034035	2451.508074
371.421090	2448.866510
371.808081	2451.261058
372.195010	2451.785338
372.581875	2450.867848
372.968678	2453.176696
373.355418	2452.682663
373.742096	2453.491768
374.128710	2450.789710
374.515262	2452.788527
374.901751	2454.089145
375.288177	2453.723661
375.674540	2454.676439
376.060841	2454.263065
376.447079	2454.449588
376.833254	2455.364557
377.219367	2453.902622
377.605417	2456.534105
377.991404	2456.652572
378.377329	2456.113168
378.763191	2457.358333
379.148991	2455.684670
379.534727	2457.113837
379.920402	2456.730710
380.306013	2457.307922
380.691563	2457.975875
381.077049	2455.077211
381.462474	2458.061574
381.847835	2456.040072
382.233134	2458.462346
382.618371	2460.322532
383.003545	2460.652727
383.388657	2455.316666
383.773706	2459.089970
384.158693	2459.354630
384.543618	2460.655248
384.928480	2456.927315
385.313280	2458.301029
385.698017	2457.716255
386.082692	2458.679116
386.467305	2458.371605
386.851856	2461.592903
387.236344	2458.452264
387.620770	2459.740278
388.005133	2458.709362
388.389435	2460.075515
388.773674	2455.808178
389.157851	2461.479477
389.541965	2460.592233
389.926018	2463.246401
390.310008	2460.118365
390.693936	2462.349076
391.077802	2461.991154
391.461606	2464.650362
391.845348	2463.259004
392.229027	2461.325721
392.612645	2464.688171
392.996200	2464.317646
393.379694	2462.709518
393.763125	2463.773202
394.146494	2464.065588
394.529801	2465.061216
394.913047	2465.628346
395.296230	2463.611885
395.679351	2463.833695
396.062410	2463.866463
396.445408	2465.154478
396.828343	2467.594396
397.211217	2464.236988
397.594028	2464.456278
397.976778	2467.904427
398.359466	2465.484673
398.742092	2465.976186
399.124656	2466.437451
399.507158	2464.988120
399.889598	2464.569704
400.271977	2469.194963
400.654294	2464.040383
401.036549	2468.731176
401.418742	2468.421145
401.800874	2466.896196
402.182944	2466.860908
402.564952	2466.394602
402.946898	2465.938377
403.328783	2466.944087
403.710606	2468.325363
404.092367	2467.385188
404.474067	2470.737556
404.855705	2469.101701
405.237282	2468.975672
405.618797	2467.652369
406.000250	2469.643625
406.381642	2470.994654
406.762972	2464.768829
407.144240	2468.292596
407.525447	2466.576083
407.906593	2466.558439
408.287677	2471.728142
408.668700	2468.259828
409.049661	2469.817545
409.430560	2469.618419
409.811399	2468.726135
410.192176	2470.425004
410.572891	2470.709829
410.953545	2471.198821
411.334138	2473.981538
411.714669	2469.774695
412.095139	2470.755200
412.475547	2470.261167
412.855894	2472.270066
413.236180	2471.213945
413.616405	2472.310396
413.996568	2472.454068
414.376670	2472.486836
414.756711	2474.286528
415.136691	2471.985241
415.516609	2472.242340
415.896466	2474.583956
416.276262	2476.527321
416.655997	2470.238481
417.035670	2474.213431
417.415283	2476.736529
417.794834	2475.380458
418.174324	2476.711323
418.553753	2473.575725
418.933121	2475.602269
419.312428	2475.829121
419.691674	2476.368524
420.070859	2474.770479
420.449983	2476.905407
420.829045	2476.653350
421.208047	2475.861888
421.586988	2473.633698
421.965867	2474.321816
422.344686	2476.328195
422.723444	2474.725108
423.102141	2476.381127
423.480777	2474.137814
423.859352	2476.101343
424.237866	2472.988431
424.616319	2478.105202
424.994712	2477.906076
425.373044	2474.175623
425.751314	2472.138996
426.129524	2470.654377
426.507673	2474.352063
426.885762	2469.136989
427.263789	2477.066724
427.641756	2476.734008
428.019662	2475.413226
428.397508	2477.011272
428.775292	2474.941878
429.153016	2478.521097
429.530679	2479.494040
429.908282	2474.747793
430.285824	2477.538072
430.663305	2477.442290
431.040726	2477.775006
431.418086	2476.615541
431.795385	2476.625623
432.172624	2476.542444
432.549802	2476.582773
432.926920	2479.088227
433.303977	2475.105715
433.680974	2478.319451
434.057910	2479.872126
434.434786	2476.555047
434.811601	2480.383803
435.188355	2477.452372
435.565050	2479.461272
435.941683	2477.669142
436.318257	2479.042857
436.694770	2477.656539
437.071222	2475.698051
437.447614	2480.023361
437.823946	2479.257106
438.200218	2479.715851
438.576429	2480.792137
438.952580	2477.021354
439.328670	2480.280460
439.704700	2478.281642
440.080670	2480.656026
440.456580	2480.996304
440.832429	2480.603094
441.208218	2482.775831
441.583947	2478.926910
441.959616	2479.907414
442.335224	2479.972949
442.710773	2480.245172
443.086261	2482.059987
443.461689	2480.424133
443.837057	2480.139307
444.212365	2481.596201
444.587612	2480.033443
444.962800	2476.557568
445.337927	2481.018989
445.712995	2475.430870
446.088002	2481.213073
446.462949	2480.575367
446.837837	2483.985708
447.212664	2478.979842
447.587431	2479.304997
447.962139	2480.192240
448.336786	2482.485965
448.711374	2481.467652
449.085901	2480.381283
449.460369	2480.824904
449.834776	2480.890439
450.209124	2483.312714
450.583412	2480.620738
450.957640	2484.857827
451.331808	2481.916314
451.705917	2482.483444
452.079965	2484.164669
452.453954	2482.884216
452.827883	2483.234576
453.201752	2482.962354
453.575562	2483.532004
453.949311	2482.707775
454.323001	2483.864720
454.696632	2482.077631
455.070202	2485.898826
455.443713	2479.859523
455.817164	2482.687611
456.190556	2479.998155
456.563888	2482.191057
456.937160	2483.438743
457.310373	2483.093424
457.683526	2484.454535
458.056619	2481.898670
458.429653	2486.012252
458.802628	2483.562251
459.175542	2482.415388
459.548398	2484.769607
459.921194	2485.099803
460.293930	2482.669967
460.666607	2483.010245
461.039224	2484.089052
461.411782	2482.533856
461.784280	2485.634165
462.156719	2484.620893
462.529099	2484.633496
462.901419	2484.545276
463.273680	2481.623927
463.645882	2479.161324
464.018024	2483.181644
464.390106	2477.301138
464.762130	2484.288177
465.134094	2485.500575
465.505999	2483.736171
465.877845	2484.583085
466.249631	2484.479741
466.621358	2484.804895
466.993026	2482.823722
467.364634	2487.685915
467.736184	2482.624596
468.107674	2485.465287
468.479105	2482.211222
468.850477	2484.270533
469.221790	2484.782210
469.593043	2486.463435
469.964238	2482.004534
470.335373	2483.557210
470.706449	2484.509988
471.077467	2483.100985
471.448425	2486.072746
471.819324	2483.693321
472.190164	2484.444453
472.560945	2484.575523
472.931667	2487.819505
473.302330	2485.041830
473.672934	2485.992087
474.043479	2485.951758
474.413965	2484.459576
474.784393	2487.713641
475.154761	2489.447798
475.525070	2484.910760
475.895321	2486.415544
476.265513	2485.843373
476.635645	2487.688435
477.005719	2487.176758
477.375734	2486.783548
477.745691	2485.306490
478.115588	2488.784886
478.485427	2485.026706
478.855207	2487.973261
479.224928	2486.052581
479.594591	2487.890082
479.964194	2488.419403
480.333739	2487.055771
480.703226	2486.760863
481.072653	2489.687253
481.442022	2488.633652
481.811333	2487.098620
482.180584	2485.427478
482.549777	2486.506285
482.918912	2483.259782
483.287988	2487.600215
483.657005	2487.731285
484.025964	2487.877479
484.394864	2488.132057
484.763706	2489.800679
485.132489	2483.564772
485.501213	2488.517705
485.869879	2488.442088
486.238487	2488.046357
486.607036	2488.477376
486.975527	2488.429485
487.343959	2489.654485
487.712333	2486.584423
488.080648	2487.751450
488.448905	2487.945534
488.817104	2491.494507
489.185244	2487.297746
489.553326	2489.362098
489.921350	2487.441419
490.289315	2489.462922
490.657222	2487.804382
491.025070	2489.505771
491.392861	2490.400576
491.760593	2490.637510
492.128267	2489.407469
492.495883	2488.658858
492.863440	2489.314208
493.230939	2488.608446
493.598380	2487.509474
493.965763	2486.944865
494.333088	2490.788745
494.700354	2485.747591
495.067563	2490.100627
495.434713	2488.127016
495.801805	2489.702376
496.168839	2489.198261
496.535815	2491.605412
496.902733	2490.350165
497.269593	2489.215905
497.636395	2488.958806
498.003139	2486.549135
498.369825	2490.297233
498.736453	2490.561893
499.103023	2489.566265
499.469535	2489.014259
499.835989	2490.521564
500.202385	2488.507623
500.568723	2484.036119
500.935003	2488.457211
501.301226	2484.751963
501.667390	2488.500061
502.033497	2490.340082
502.399546	2491.784373
502.765537	2489.117603
503.131470	2489.503251
503.497345	2489.856132
503.863163	2486.173569
504.228923	2489.165493
504.594625	2491.701194
504.960269	2492.016266
505.325856	2491.320587
505.691385	2492.900988
506.056856	2488.782366
506.422270	2489.495689
506.787625	2487.582571
507.152924	2490.750936
507.518164	2491.219764
507.883347	2492.205309
508.248472	2493.389980
508.613540	2489.309166
508.978550	2492.222953
509.343503	2488.333703
509.708398	2490.287150
510.073236	2489.541059
510.438016	2489.099958
510.802738	2489.762870
511.167403	2489.775473
511.532010	2490.246821
511.896561	2491.887717
512.261053	2490.209012
512.625488	2490.022490
512.989866	2490.511482
513.354186	2489.117603
513.718449	2490.254383
514.082655	2488.910915
514.446803	2489.568786
514.810894	2491.943169
515.174927	2492.212871
515.538904	2491.635659
515.902822	2488.731954
516.266684	2491.250011
516.630488	2490.203971
516.994235	2491.381081
517.357925	2490.209012
517.721558	2491.625577
518.085133	2491.963334
518.448651	2490.088025
518.812112	2487.829588
519.175516	2489.757829
519.538863	2485.709783
519.902152	2491.280258
520.265385	2492.931235
520.628560	2489.319249
520.991678	2490.682881
521.354739	2492.187665
521.717743	2491.444095
522.080690	2490.922336
522.443580	2490.962665
522.806413	2490.753457
523.169189	2493.591627
523.531908	2493.969713
523.894569	2492.492655
524.257174	2489.881337
524.619722	2491.766729
524.982213	2492.691781
525.344647	2491.093735
525.707025	2492.598519
526.069345	2488.709269
526.431608	2491.449136
526.793815	2493.480721
527.155964	2492.928715
527.518057	2491.754126
527.880093	2490.594661
528.242072	2492.227994
528.603995	2491.716317
528.965860	2493.760505
529.327669	2491.965854
529.689421	2489.470483
530.051117	2490.887047
530.412755	2491.555000
530.774337	2493.505927
531.135862	2490.186327
531.497331	2493.523571
531.858743	2490.975268
532.220098	2492.245638
532.581396	2493.047182
532.942638	2491.103817
533.303824	2490.256903
533.664953	2493.389980
534.026025	2491.403766
534.387040	2492.313694
534.747999	2490.934938
535.108902	2492.069198
535.469748	2490.755977
535.830537	2492.369147
536.191270	2492.230515
536.551947	2489.697335
536.912567	2487.915287
537.273131	2492.366626
537.633638	2485.669453
537.994089	2492.230515
538.354483	2490.670278
538.714821	2493.710094
539.075103	2491.186996
539.435328	2493.377378
539.795497	2490.360247
540.155609	2492.021307
540.515665	2493.906699
540.875665	2492.994250
541.235609	2490.781183
541.595496	2492.164980
541.955328	2490.277068
542.315102	2494.262100
542.674821	2494.856956
543.034483	2494.458705
543.394090	2492.820330
543.753640	2493.271513
544.113134	2494.539363
544.472571	2492.447285
544.831953	2493.377377
545.191278	2492.694301
545.550548	2492.164980
545.909761	2490.884527
546.268918	2492.076760
546.628019	2492.296050
546.987064	2495.406442
547.346053	2492.926194
547.704986	2492.394353
548.063863	2495.751761
548.422684	2493.173211
548.781449	2495.776967
549.140158	2492.159939
549.498811	2491.693632
549.857408	2492.880824
550.215949	2491.144146
550.574434	2495.819817
550.932864	2489.621718
551.291237	2494.549446
551.649555	2493.730258
552.007817	2494.927532
552.366022	2494.352841
552.724173	2495.819817
553.082267	2495.053561
553.440305	2495.421565
553.798288	2495.419045
554.156215	2493.483242
554.514086	2494.322594
554.871902	2491.917963
555.229661	2494.345279
555.587365	2489.838488
555.945014	2493.079949
556.302606	2499.368789
556.660143	2493.747902
557.017625	2495.968531
557.375050	2496.386946
557.732421	2495.277893
558.089735	2496.487769
558.446994	2494.128509
558.804197	2497.687564
559.161345	2497.047338
559.518437	2496.386946
559.875474	2495.877790
560.232455	2496.525578
560.589381	2492.792604
560.946251	2495.976092
561.303065	2496.162615
561.659825	2497.611947
562.016528	2496.704539
562.373177	2499.388953
562.729770	2497.506082
563.086307	2496.439878
563.442789	2498.095897
563.799216	2497.329642
564.155587	2498.206803
564.511904	2497.082626
564.868164	2499.071361
565.224370	2499.784684
565.580520	2497.218737
565.936615	2498.289982
566.292654	2497.564056
566.648638	2497.352327
567.004567	2497.916937
567.360441	2498.516834
567.716260	2499.827534
568.072023	2501.433141
568.427732	2501.773419
568.783385	2499.572956
569.138982	2502.065806
569.494525	2498.799138
569.850013	2500.929026
570.205445	2498.295023
570.560823	2500.583707
570.916145	2500.742503
571.271412	2501.428100
571.626625	2503.099243
571.981782	2498.443737
572.336884	2499.454488
572.691931	2498.463902
573.046923	2499.761999
573.401860	2496.560866
573.756743	2501.430621
574.111570	2502.254849
574.466342	2502.627895
574.821059	2503.346259
575.175722	2500.694612
575.530330	2502.524551
575.884882	2501.458347
576.239380	2502.025477
576.593823	2503.232833
576.948211	2503.883142
577.302544	2503.235354
577.656823	2503.401712
578.011047	2505.413132
578.365216	2500.392143
578.719330	2501.395333
579.073389	2503.989006
579.427394	2504.409943
579.781344	2502.529592
580.135239	2504.674603
580.489080	2502.426249
580.842866	2502.834582
581.196597	2504.147803
581.550273	2504.966990
581.903895	2504.740138
582.257463	2506.660818
582.610975	2506.169305
582.964434	2502.900117
583.317837	2505.163595
583.671186	2507.754748
584.024481	2504.162926
584.377721	2505.113184
584.730906	2504.954387
585.084037	2506.270128
585.437113	2507.023781
585.790135	2505.803822
586.143103	2503.774757
586.496016	2506.567557
586.848874	2508.213493
587.201679	2505.750890
587.554428	2507.706857
587.907124	2507.197701
588.259765	2505.163595
588.612352	2507.134686
588.964884	2507.159892
589.317362	2509.748525
589.669786	2507.616117
590.022155	2507.109481
590.374470	2501.745693
590.726731	2508.473113
591.078937	2505.423215
591.431090	2509.337671
591.783188	2506.675941
592.135232	2509.269615
592.487222	2508.359687
592.839157	2508.780623
593.191038	2509.269615
593.542866	2508.863802
593.894639	2509.153668
594.246358	2510.456807
594.598022	2508.024450
594.949633	2508.009327
595.301190	2508.795747
595.652692	2507.618637
596.004141	2507.280880
596.355535	2511.061745
596.706876	2508.178205
597.058162	2508.697444
597.409395	2509.277177
597.760573	2506.875067
598.111698	2508.047135
598.462768	2508.135355
598.813785	2506.711229
599.164748	2506.905314
599.515657	2506.398678
599.866511	2510.035870
600.217312	2510.550068
600.568060	2507.452279
600.918753	2511.885974
601.269392	2507.167454
601.619978	2509.793895
601.970510	2506.726353
602.320988	2510.855058
602.671412	2509.960253
603.021783	2507.739625
603.372100	2509.176354
603.722363	2507.144769
604.072572	2511.707013
604.422728	2510.192146
604.772830	2509.607372
605.122878	2511.104595
605.472872	2508.384893
605.822813	2509.698113
606.172701	2508.253822
606.522534	2507.754748
606.872314	2508.405057
607.222041	2510.945799
607.571714	2506.842299
607.921333	2507.953874
608.270899	2507.893380
608.620411	2502.731238
608.969870	2508.871364
609.319276	2510.562671
609.668627	2508.904131
610.017926	2511.969153
610.367171	2509.607372
610.716362	2512.017044
611.065500	2509.773730
611.414585	2507.850530
611.763616	2508.841117
612.112594	2511.903618
612.461518	2513.032836
612.810389	2511.102074
613.159207	2513.496622
613.507971	2510.913031
613.856682	2510.764317
614.205340	2513.685666
614.553945	2515.114833
614.902496	2512.470748
615.250994	2510.766838
615.599439	2510.603000
615.947830	2511.061745
616.296169	2512.266581
616.644454	2513.247085
616.992686	2509.428411
617.340864	2514.202384
617.688990	2514.424195
618.037063	2513.179030
618.385082	2514.293125
618.733048	2516.460821
619.080961	2513.940244
619.428821	2516.428053
619.776628	2514.766993
620.124382	2517.214473
620.472083	2513.244565
620.819731	2517.159021
621.167326	2514.388907
621.514868	2514.991325
621.862357	2512.906808
622.209793	2515.981911
622.557176	2514.358660
622.904506	2517.436284
623.251783	2513.685666
623.599007	2514.832528
623.946179	2514.555265
624.293297	2516.118023
624.640363	2514.557785
624.987376	2515.293794
625.334336	2509.342712
625.681243	2512.405213
626.028097	2510.605521
626.374899	2513.776407
626.721647	2516.448218
627.068343	2517.222035
627.414987	2516.251613
627.761577	2515.618948
628.108115	2516.435615
628.454600	2516.995183
628.801032	2517.302694
629.147412	2516.944772
629.493739	2518.900739
629.840014	2518.812519
630.186236	2517.534587
630.532405	2516.168434
630.878521	2519.722447
631.224585	2519.956861
631.570597	2521.007942
631.916556	2520.468538
632.262462	2521.416275
632.608316	2522.248066
632.954117	2525.285361
633.299866	2523.193282
633.645562	2525.446678
633.991206	2525.464322
634.336797	2520.667664
634.682336	2524.899712
635.027823	2523.838550
635.373257	2524.188910
635.718639	2523.964578
636.063968	2522.636234
636.409245	2526.298633
636.754470	2522.295957
637.099642	2525.492048
637.444762	2525.524816
637.789829	2526.056657
638.134845	2525.708818
638.479808	2529.109076
638.824719	2527.460619
639.169577	2526.505320
639.514383	2529.232584
639.859137	2530.581093
640.203839	2528.990609
640.548489	2527.677388
640.893086	2530.016484
641.237632	2532.879859
641.582125	2533.268028
641.926566	2535.115611
642.270955	2529.527492
642.615292	2530.026566
642.959576	2534.850950
643.303809	2531.826258
643.647990	2537.613503
643.992118	2539.009902
644.336195	2538.921682
