Dividing Wavelength (nm)	Counts (n)	Blue Motor Position (mm): 9.000000	Red Motor Position (mm): 0.000000	
326.493990	2101.190732
326.888308	2101.190732
327.282561	2101.190732
327.676750	2078.888667
328.070874	2081.000911
328.464933	2089.396952
328.858929	2099.506986
329.252859	2111.068873
329.646726	2123.066819
330.040528	2139.127935
330.434265	2158.846408
330.827938	2179.338699
331.221547	2199.495752
331.615091	2221.069370
332.008571	2243.502505
332.401986	2261.247366
332.795338	2281.374173
333.188625	2301.264046
333.581847	2321.221974
333.975006	2339.612103
334.368100	2353.629031
334.761129	2371.951105
335.154095	2390.447098
335.546996	2416.530028
335.939833	2452.554114
336.332606	2465.134313
336.725315	2476.479430
337.117960	2484.346150
337.510540	2490.939980
337.903056	2502.370796
338.295508	2508.644512
338.687896	2513.148783
339.080220	2523.548683
339.472480	2525.146729
339.864676	2530.689478
340.256807	2534.112421
340.648875	2532.433717
341.040879	2535.803728
341.432818	2539.206507
341.824694	2539.491332
342.216506	2538.699871
342.608253	2536.741383
342.999937	2536.161650
343.391557	2536.259953
343.783113	2533.194931
344.174605	2528.846936
344.566033	2530.901206
344.957397	2529.376257
345.348697	2528.501617
345.739934	2523.871317
346.131106	2525.209743
346.522215	2521.212108
346.913260	2521.146573
347.304241	2519.485513
347.695159	2518.479803
348.086012	2516.753208
348.476802	2514.998886
348.867528	2511.565861
349.258191	2512.332116
349.648789	2513.516787
350.039324	2511.359173
350.429796	2509.007475
350.820203	2509.015037
351.210548	2507.565705
351.600828	2505.002278
351.991045	2505.650067
352.381198	2505.314830
352.771288	2502.872391
353.161314	2504.339367
353.551276	2503.767196
353.941175	2502.370796
354.331010	2505.753410
354.720782	2507.038904
355.110490	2505.513955
355.500135	2506.055879
355.889717	2503.283245
356.279235	2504.662000
356.668689	2507.119563
357.058080	2505.140910
357.447408	2503.636126
357.836672	2502.292658
358.225873	2503.331136
358.615010	2504.455313
359.004084	2508.894049
359.393095	2509.113339
359.782043	2510.718947
360.170927	2509.584687
360.559748	2510.592918
360.948505	2510.013185
361.337199	2514.610717
361.725830	2512.037208
362.114398	2512.248937
362.502903	2514.141890
362.891344	2515.991994
363.279722	2514.472086
363.668037	2517.282529
364.056289	2512.868999
364.444478	2515.344205
364.832603	2514.577950
365.220665	2518.358815
365.608665	2516.622138
365.996601	2519.228414
366.384474	2517.665657
366.772284	2519.266223
367.160031	2518.628517
367.547715	2519.304032
367.935336	2516.407889
368.322893	2518.401665
368.710388	2517.930317
369.097820	2522.459794
369.485189	2519.654392
369.872495	2520.990298
370.259738	2519.112468
370.646918	2519.198168
371.034035	2522.230422
371.421090	2522.041378
371.808081	2519.840915
372.195010	2522.220339
372.581875	2521.038189
372.968678	2523.006759
373.355418	2524.798889
373.742096	2522.825278
374.128710	2522.147243
374.515262	2522.585823
374.901751	2522.752181
375.288177	2523.755371
375.674540	2522.648837
376.060841	2521.610360
376.447079	2525.184538
376.833254	2521.660771
377.219367	2520.498785
377.605417	2519.298991
377.991404	2520.241686
378.377329	2521.015503
378.763191	2520.753363
379.148991	2523.543642
379.534727	2528.632687
379.920402	2527.816020
380.306013	2526.235618
380.691563	2526.515402
381.077049	2524.856863
381.462474	2525.234949
381.847835	2527.868952
382.233134	2526.820392
382.618371	2526.139836
383.003545	2524.423323
383.388657	2528.983047
383.773706	2527.080012
384.158693	2529.396422
384.543618	2527.369878
384.928480	2527.601771
385.313280	2528.975485
385.698017	2528.201668
386.082692	2528.892306
386.467305	2529.693850
386.851856	2531.801052
387.236344	2530.162677
387.620770	2532.842050
388.005133	2531.077647
388.389435	2528.118489
388.773674	2530.780218
389.157851	2530.860877
389.541965	2532.469005
389.926018	2528.826771
390.310008	2529.900537
390.693936	2530.853315
391.077802	2533.913296
391.461606	2535.244160
391.845348	2529.656041
392.229027	2533.026053
392.612645	2533.323481
392.996200	2531.899355
393.379694	2535.521424
393.763125	2532.249715
394.146494	2535.816331
394.529801	2534.752648
394.913047	2536.065868
395.296230	2533.562935
395.679351	2536.103677
396.062410	2533.202493
396.445408	2533.963707
396.828343	2533.998995
397.211217	2530.089580
397.594028	2532.408511
397.976778	2529.025897
398.359466	2529.618232
398.742092	2532.466484
399.124656	2535.052596
399.507158	2540.181970
399.889598	2536.632998
400.271977	2538.314223
400.654294	2538.316743
401.036549	2533.663758
401.418742	2537.051414
401.800874	2536.779192
402.182944	2536.007895
402.564952	2538.291538
402.946898	2539.750952
403.328783	2536.209541
403.710606	2540.187012
404.092367	2538.871270
404.474067	2541.089378
404.855705	2537.225334
405.237282	2537.900848
405.618797	2539.302289
406.000250	2539.569470
406.381642	2541.273380
406.762972	2539.004861
407.144240	2538.697351
407.525447	2541.964018
407.906593	2539.902186
408.287677	2535.970086
408.668700	2538.573842
409.049661	2543.030222
409.430560	2539.995448
409.811399	2540.648277
410.192176	2538.866229
410.572891	2540.857485
410.953545	2541.603576
411.334138	2542.382434
411.714669	2541.301107
412.095139	2544.058618
412.475547	2543.940151
412.855894	2543.221786
413.236180	2543.471323
413.616405	2540.557536
413.996568	2545.301262
414.376670	2541.311189
414.756711	2540.857485
415.136691	2542.873947
415.516609	2543.564585
415.896466	2540.791950
416.276262	2544.446787
416.655997	2539.753472
417.035670	2538.505787
417.415283	2541.454862
417.794834	2537.210210
418.174324	2543.183978
418.553753	2543.776313
418.933121	2544.038453
419.312428	2542.952084
419.691674	2544.227496
420.070859	2545.218083
420.449983	2543.816642
420.829045	2543.115922
421.208047	2545.061807
421.586988	2544.308155
421.965867	2544.940820
422.344686	2544.328319
422.723444	2545.976777
423.102141	2544.020809
423.480777	2546.193546
423.859352	2545.001313
424.237866	2543.917465
424.616319	2543.357897
424.994712	2546.589277
425.373044	2543.456200
425.751314	2546.425439
426.129524	2545.568443
426.507673	2548.222611
426.885762	2542.715150
427.263789	2544.837476
427.641756	2549.235883
428.019662	2546.339740
428.397508	2544.139276
428.775292	2548.300749
429.153016	2549.031716
429.530679	2546.301931
429.908282	2546.944678
430.285824	2544.603062
430.663305	2547.504246
431.040726	2545.666746
431.418086	2545.397044
431.795385	2547.839483
432.172624	2547.322765
432.549802	2545.906201
432.926920	2547.171530
433.303977	2548.499874
433.680974	2546.642209
434.057910	2547.857127
434.434786	2546.677497
434.811601	2553.059598
435.188355	2549.523228
435.565050	2545.772610
435.941683	2549.366953
436.318257	2545.812939
436.694770	2547.640357
437.071222	2545.760007
437.447614	2544.613145
437.823946	2546.725388
438.200218	2547.784030
438.576429	2550.559186
438.952580	2548.653629
439.328670	2547.877292
439.704700	2550.453321
440.080670	2550.044988
440.456580	2548.809905
440.832429	2551.212015
441.208218	2548.250337
441.583947	2550.428116
441.959616	2547.340409
442.335224	2549.251006
442.710773	2551.300235
443.086261	2549.281253
443.461689	2549.334185
443.837057	2549.818136
444.212365	2548.895605
444.587612	2551.116233
444.962800	2548.179761
445.337927	2552.167314
445.712995	2547.884853
446.088002	2551.078424
446.462949	2550.342416
446.837837	2551.950544
447.212664	2550.539021
447.587431	2552.414330
447.962139	2552.739485
448.336786	2552.462221
448.711374	2551.010369
449.085901	2553.422561
449.460369	2549.351829
449.834776	2551.580019
450.209124	2552.779814
450.583412	2554.632438
450.957640	2550.188661
451.331808	2552.684032
451.705917	2553.503219
452.079965	2551.408620
452.453954	2552.116902
452.827883	2553.034392
453.201752	2552.250493
453.575562	2553.641851
453.949311	2552.033723
454.323001	2553.828374
454.696632	2553.757798
455.070202	2554.289639
455.443713	2553.535987
455.817164	2551.363250
456.190556	2548.346119
456.563888	2550.634803
456.937160	2548.003321
457.310373	2553.387273
457.683526	2553.495658
458.056619	2553.707386
458.429653	2554.793755
458.802628	2553.341902
459.175542	2555.723848
459.548398	2554.927345
459.921194	2556.263251
460.293930	2558.456153
460.666607	2553.362067
461.039224	2554.352654
461.411782	2554.932387
461.784280	2556.769887
462.156719	2554.123281
462.529099	2556.172510
462.901419	2556.404403
463.273680	2556.321224
463.645882	2555.008004
464.018024	2555.980947
464.390106	2557.079918
464.762130	2557.299208
465.134094	2555.771739
465.505999	2559.353478
465.877845	2558.347768
466.249631	2559.285423
466.621358	2558.118396
466.993026	2560.565876
467.364634	2563.749365
467.736184	2559.885320
468.107674	2560.369271
468.479105	2557.699980
468.850477	2559.522357
469.221790	2562.882286
469.593043	2560.754919
469.964238	2557.795762
470.335373	2558.529250
470.706449	2559.666030
471.077467	2563.031000
471.448425	2562.569735
471.819324	2565.296999
472.190164	2564.450085
472.560945	2562.778942
472.931667	2561.947152
473.302330	2563.787173
473.672934	2561.536298
474.043479	2561.264076
474.413965	2558.662840
474.784393	2557.614280
475.154761	2559.494631
475.525070	2558.534291
475.895321	2560.354147
476.265513	2556.500185
476.635645	2561.495969
477.005719	2561.082594
477.375734	2567.734397
477.745691	2563.920764
478.115588	2564.477811
478.485427	2561.311967
478.855207	2567.797411
479.224928	2567.240364
479.594591	2568.167936
479.964194	2563.235167
480.333739	2569.650035
480.703226	2568.057031
481.072653	2567.598286
481.442022	2569.831517
481.811333	2569.529047
482.180584	2564.225754
482.549777	2568.409911
482.918912	2566.879921
483.287988	2572.097515
483.657005	2564.321536
484.025964	2567.583162
484.394864	2570.459140
484.763706	2566.302709
485.132489	2569.897052
485.501213	2564.891186
485.869879	2568.125086
486.238487	2566.509396
486.607036	2568.447720
486.975527	2566.627863
487.343959	2567.373954
487.712333	2567.636094
488.080648	2569.007288
488.448905	2566.784139
488.817104	2565.140723
489.185244	2568.747669
489.553326	2571.936198
489.921350	2572.077351
490.289315	2572.531055
490.657222	2572.082392
491.025070	2569.972669
491.392861	2572.437793
491.760593	2574.406364
492.128267	2571.918554
492.495883	2571.018708
492.863440	2569.234140
493.230939	2567.348748
493.598380	2568.530899
493.965763	2568.697257
494.333088	2567.862946
494.700354	2566.574931
495.067563	2566.814386
495.434713	2563.081412
495.801805	2569.657597
496.168839	2567.142061
496.535815	2569.531568
496.902733	2569.541650
497.269593	2570.169274
497.636395	2568.724983
498.003139	2569.420663
498.369825	2570.789336
498.736453	2572.304203
499.103023	2567.653738
499.469535	2573.667835
499.835989	2571.215313
500.202385	2568.961918
500.568723	2570.698595
500.935003	2570.812021
501.301226	2568.929150
501.667390	2568.611557
502.033497	2573.138514
502.399546	2572.823442
502.765537	2570.267577
503.131470	2574.207238
503.497345	2571.545509
503.863163	2572.755386
504.228923	2573.196487
504.594625	2575.008782
504.960269	2573.272104
505.325856	2576.495922
505.691385	2572.737742
506.056856	2575.964080
506.422270	2576.155644
506.787625	2577.758731
507.152924	2579.712178
507.518164	2580.803588
507.883347	2580.717888
508.248472	2581.295101
508.613540	2578.162023
508.978550	2583.399782
509.343503	2584.889443
509.708398	2586.500092
510.073236	2586.684094
510.438016	2586.195102
510.802738	2586.583271
511.167403	2590.790114
511.532010	2591.634507
511.896561	2592.516709
512.261053	2594.931422
512.625488	2593.053592
512.989866	2592.713314
513.354186	2597.628439
513.718449	2593.736668
514.082655	2598.987030
514.446803	2601.091712
514.810894	2604.320571
515.174927	2607.872064
515.538904	2608.131683
515.902822	2609.759976
516.266684	2611.998248
516.630488	2611.821808
516.994235	2613.979422
517.357925	2616.207612
517.721558	2619.222222
518.085133	2620.893364
518.448651	2623.698766
518.812112	2623.398817
519.175516	2624.185237
519.538863	2624.843108
519.902152	2629.430558
520.265385	2632.482977
520.628560	2632.634211
520.991678	2635.671507
521.354739	2636.498256
521.717743	2641.355407
522.080690	2639.258287
522.443580	2645.894967
522.806413	2649.693476
523.169189	2649.335554
523.531908	2651.583909
523.894569	2651.868734
524.257174	2656.398211
524.619722	2654.601039
524.982213	2658.775115
525.344647	2660.327790
525.707025	2660.327790
526.069345	2664.050682
526.431608	2666.417504
526.793815	2670.291631
527.155964	2671.332629
527.518057	2671.050324
527.880093	2674.415294
528.242072	2676.373783
528.603995	2677.656756
528.965860	2676.681293
529.327669	2679.093485
529.689421	2682.997859
530.051117	2682.823939
530.412755	2685.397448
530.774337	2686.844259
531.135862	2688.926256
531.497331	2688.737212
531.858743	2690.456246
532.220098	2692.903726
532.581396	2692.266020
532.942638	2693.065043
533.303824	2699.832792
533.664953	2698.564942
534.026025	2698.093594
534.387040	2704.579038
534.747999	2704.137937
535.108902	2706.381251
535.469748	2704.891590
535.830537	2711.803012
536.191270	2711.873588
536.551947	2713.469113
536.912567	2713.428784
537.273131	2715.490616
537.633638	2714.608414
537.994089	2715.747715
538.354483	2718.883312
538.714821	2720.967830
539.075103	2722.119733
539.435328	2722.497820
539.795497	2722.094527
540.155609	2727.284395
540.515665	2728.464025
540.875665	2728.763974
541.235609	2729.152143
541.595496	2733.235478
541.955328	2736.103894
542.315102	2733.512741
542.674821	2736.124059
543.034483	2736.323184
543.394090	2734.649521
543.753640	2736.360993
544.113134	2743.020357
544.472571	2741.513052
544.831953	2746.276942
545.191278	2743.539596
545.550548	2744.303331
545.909761	2746.244175
546.268918	2748.033785
546.628019	2750.234248
546.987064	2749.379773
547.346053	2748.537900
547.704986	2755.048550
548.063863	2753.692480
548.422684	2753.747932
548.781449	2756.820516
549.140158	2758.506782
549.498811	2758.274889
549.857408	2757.561565
550.215949	2759.961155
550.574434	2762.864859
550.932864	2762.736310
551.291237	2765.498862
551.649555	2768.122783
552.007817	2771.860798
552.366022	2771.407094
552.724173	2773.980603
553.082267	2776.420522
553.440305	2781.136521
553.798288	2779.120060
554.156215	2780.975204
554.514086	2784.599794
554.871902	2783.851183
555.229661	2787.304373
555.587365	2788.887295
555.945014	2791.339817
556.302606	2790.800413
556.660143	2796.386012
557.017625	2795.531536
557.375050	2799.045220
557.732421	2802.498411
558.089735	2802.752989
558.446994	2803.529327
558.804197	2809.603917
559.161345	2807.683237
559.518437	2807.010243
559.875474	2810.826397
560.232455	2814.209011
560.589381	2816.195226
560.946251	2817.412664
561.303065	2822.148828
561.659825	2821.037254
562.016528	2821.435505
562.373177	2818.630103
562.729770	2821.803509
563.086307	2824.838284
563.442789	2826.516988
563.799216	2827.656289
564.155587	2827.338696
564.511904	2829.153512
564.868164	2828.866166
565.224370	2831.694253
565.580520	2831.185097
565.936615	2832.198369
566.292654	2830.796928
566.648638	2832.722649
567.004567	2831.162412
567.360441	2832.072340
567.716260	2835.011332
568.072023	2833.060406
568.427732	2830.814572
568.783385	2826.950527
569.138982	2829.534119
569.494525	2833.146106
569.850013	2826.252328
570.205445	2831.459840
570.560823	2834.928153
570.916145	2831.903461
571.271412	2833.443534
571.626625	2834.686178
571.981782	2830.038234
572.336884	2830.507062
572.691931	2831.439675
573.046923	2829.156032
573.401860	2828.490600
573.756743	2825.929694
574.111570	2829.513954
574.466342	2829.392967
574.821059	2831.175014
575.175722	2827.865497
575.530330	2827.477328
575.884882	2827.368943
576.239380	2825.251659
576.593823	2827.144612
576.948211	2828.483038
577.302544	2825.236535
577.656823	2828.533450
578.011047	2830.844819
578.365216	2829.541681
578.719330	2834.121569
579.073389	2832.899089
579.427394	2830.880107
579.781344	2835.069306
580.135239	2837.899914
580.489080	2837.746158
580.842866	2839.258505
581.196597	2845.444000
581.550273	2846.502643
581.903895	2847.127746
582.257463	2854.553365
582.610975	2853.396421
582.964434	2860.053264
583.317837	2859.932277
583.671186	2861.132071
584.024481	2867.678009
584.377721	2870.488453
584.730906	2873.654297
585.084037	2879.204608
585.437113	2878.012375
585.790135	2881.384907
586.143103	2884.225597
586.496016	2890.857235
586.848874	2891.215157
587.201679	2899.028945
587.554428	2897.483832
587.907124	2905.554719
588.259765	2908.518917
588.612352	2923.717996
588.964884	2921.613314
589.317362	2931.042793
589.669786	2934.435489
590.022155	2941.099895
590.374470	2949.243879
590.726731	2952.225721
591.078937	2952.739919
591.431090	2960.495734
591.783188	2965.133596
592.135232	2968.433031
592.487222	2974.714308
592.839157	2983.528766
593.191038	2988.267451
593.542866	2993.127123
593.894639	2992.766680
594.246358	3004.547857
594.598022	3015.870288
594.949633	3018.650485
595.301190	3022.340609
595.652692	3030.230015
596.004141	3039.747714
596.355535	3036.574307
596.706876	3042.212838
597.058162	3048.668035
597.409395	3062.102710
597.760573	3069.687126
598.111698	3072.278279
598.462768	3077.821028
598.813785	3091.301073
599.164748	3093.257041
599.515657	3106.916047
599.866511	3113.028447
600.217312	3127.872124
600.568060	3125.238121
600.918753	3144.749907
601.269392	3154.010507
601.619978	3160.397649
601.970510	3174.946419
602.320988	3188.557534
602.671412	3205.097560
603.021783	3214.464024
603.372100	3218.365877
603.722363	3230.462125
604.072572	3244.559712
604.422728	3257.548245
604.772830	3262.556631
605.122878	3274.773868
605.472872	3287.381793
605.822813	3307.090184
606.172701	3315.582008
606.522534	3338.471367
606.872314	3356.090200
607.222041	3364.811396
607.571714	3388.623286
607.921333	3395.043196
608.270899	3413.498860
608.620411	3438.679423
608.969870	3446.026905
609.319276	3464.500213
609.668627	3488.543997
610.017926	3511.451000
610.367171	3535.230122
610.716362	3551.729819
611.065500	3572.610278
611.414585	3596.643979
611.763616	3623.218422
612.112594	3643.163747
612.461518	3671.237933
612.810389	3700.829506
613.159207	3719.106209
613.507971	3741.206627
613.856682	3779.297586
614.205340	3799.313487
614.553945	3843.657997
614.902496	3852.336343
615.250994	3889.862692
615.599439	3921.538783
615.947830	3951.720171
616.296169	3982.745952
616.644454	4020.584853
616.992686	4058.441398
617.340864	4108.336218
617.688990	4132.495948
618.037063	4191.827808
618.385082	4222.651943
618.733048	4267.664406
619.080961	4305.208399
619.428821	4337.333152
619.776628	4366.644941
620.124382	4388.137900
620.472083	4415.377775
620.819731	4444.878608
621.167326	4449.763486
621.514868	4470.049089
621.862357	4468.708142
622.209793	4492.857789
622.557176	4494.448273
622.904506	4499.118902
623.251783	4506.211806
623.599007	4511.099204
623.946179	4525.554713
624.293297	4549.064134
624.640363	4542.109862
624.987376	4569.649686
625.334336	4584.447993
625.681243	4593.471658
626.028097	4616.469402
626.374899	4643.527795
626.721647	4672.922763
627.068343	4698.229356
627.414987	4714.292992
627.761577	4735.445674
628.108115	4786.769661
628.454600	4786.293272
628.801032	4830.794058
629.147412	4866.014079
629.493739	4898.801744
629.840014	4913.287499
630.186236	4970.255058
630.532405	4984.695444
630.878521	5036.858783
631.224585	5066.450356
631.570597	5092.200570
631.916556	5138.455677
632.262462	5171.576058
632.608316	5214.004929
632.954117	5236.160800
633.299866	5267.252117
633.645562	5288.228358
633.991206	5287.552843
634.336797	5277.137819
634.682336	5301.274864
635.027823	5309.204599
635.373257	5324.575077
635.718639	5326.591539
636.063968	5346.685578
636.409245	5326.130273
636.754470	5354.338049
637.099642	5362.270305
637.444762	5361.055387
637.789829	5393.994286
638.134845	5397.747425
638.479808	5421.430766
638.824719	5445.691319
639.169577	5448.799190
639.514383	5479.792204
639.859137	5487.626157
640.203839	5543.923243
640.548489	5542.867121
640.893086	5578.223253
641.237632	5586.241209
641.582125	5629.882477
641.926566	5654.702598
642.270955	5691.820614
642.615292	5728.207663
642.959576	5760.103043
643.303809	5797.231141
643.647990	5845.520354
643.992118	5878.330704
644.336195	5918.586838
