Dividing Wavelength (nm)	Counts (n)	Blue Motor Position (mm): 5.900000	Red Motor Position (mm): 0.000000	
326.493990	2141.688841
326.888308	2141.688841
327.282561	2141.688841
327.676750	2109.554006
328.070874	2107.726588
328.464933	2109.574171
328.858929	2115.953751
329.252859	2128.942284
329.646726	2138.817904
330.040528	2151.874493
330.434265	2169.049704
330.827938	2183.971519
331.221547	2203.727801
331.615091	2223.484083
332.008571	2240.578636
332.401986	2262.197624
332.795338	2281.180089
333.188625	2300.230609
333.581847	2318.663588
333.975006	2337.414160
334.368100	2355.917715
334.761129	2375.787423
335.154095	2390.081615
335.546996	2407.748338
335.939833	2424.648807
336.332606	2441.624892
336.725315	2450.396500
337.117960	2459.647017
337.510540	2466.311423
337.903056	2479.181488
338.295508	2484.179792
338.687896	2494.703201
339.080220	2501.082781
339.472480	2508.372290
339.864676	2516.362518
340.256807	2516.659947
340.648875	2520.566841
341.040879	2521.794362
341.432818	2524.312418
341.824694	2525.103879
342.216506	2525.829805
342.608253	2526.737213
342.999937	2528.907430
343.391557	2527.737882
343.783113	2525.116482
344.174605	2524.854342
344.566033	2521.678415
344.957397	2525.544980
345.348697	2519.442663
345.739934	2518.678929
346.131106	2517.758918
346.522215	2514.819925
346.913260	2512.019564
347.304241	2511.069307
347.695159	2508.959584
348.086012	2508.417660
348.476802	2505.093019
348.867528	2504.747700
349.258191	2501.213851
349.648789	2501.060096
350.039324	2501.012205
350.429796	2498.784015
350.820203	2496.628922
351.210548	2496.828047
351.600828	2497.843840
351.991045	2491.502068
352.381198	2494.002481
352.771288	2494.337717
353.161314	2493.566421
353.551276	2494.236894
353.941175	2494.057933
354.331010	2493.546256
354.720782	2491.970896
355.110490	2491.917963
355.500135	2493.319404
355.889717	2495.008191
356.279235	2495.726555
356.668689	2493.422748
357.058080	2495.590444
357.447408	2489.762870
357.836672	2492.659013
358.225873	2490.682881
358.615010	2491.449136
359.004084	2495.406442
359.393095	2493.631956
359.782043	2496.737307
360.170927	2497.173366
360.559748	2501.395333
360.948505	2499.426762
361.337199	2498.136227
361.725830	2499.129334
362.114398	2499.804849
362.502903	2498.262256
362.891344	2499.882987
363.279722	2499.598161
363.668037	2502.431290
364.056289	2499.278048
364.444478	2504.583863
364.832603	2502.733759
365.220665	2506.423884
365.608665	2503.384068
365.996601	2502.595127
366.384474	2503.247957
366.772284	2505.405571
367.160031	2504.412463
367.547715	2506.275170
367.935336	2504.863647
368.322893	2508.135355
368.710388	2505.365241
369.097820	2506.552433
369.485189	2506.691065
369.872495	2506.280211
370.259738	2508.485716
370.646918	2508.392454
371.034035	2508.987310
371.421090	2508.838596
371.808081	2505.922289
372.195010	2508.916734
372.581875	2506.038235
372.968678	2510.267763
373.355418	2507.646363
373.742096	2512.054853
374.128710	2509.955212
374.515262	2508.677279
374.901751	2513.620131
375.288177	2511.321365
375.674540	2511.228103
376.060841	2508.536127
376.447079	2509.322547
376.833254	2510.421519
377.219367	2508.057218
377.605417	2511.573422
377.991404	2509.715757
378.377329	2509.115860
378.763191	2508.243740
379.148991	2515.255985
379.534727	2512.077538
379.920402	2516.962416
380.306013	2515.273629
380.691563	2513.368073
381.077049	2514.802281
381.462474	2514.552744
381.847835	2513.448732
382.233134	2514.812364
382.618371	2512.657270
383.003545	2514.751870
383.388657	2514.086438
383.773706	2513.015192
384.158693	2515.571057
384.543618	2515.684483
384.928480	2514.625841
385.313280	2517.400996
385.698017	2517.834535
386.082692	2516.561644
386.467305	2515.515605
386.851856	2515.409740
387.236344	2514.877899
387.620770	2517.602642
388.005133	2515.034174
388.389435	2517.277488
388.773674	2516.975019
389.157851	2517.416120
389.541965	2516.390245
389.926018	2518.983918
390.310008	2519.563651
390.693936	2519.856038
391.077802	2519.195647
391.461606	2520.171110
391.845348	2518.636079
392.229027	2521.227232
392.612645	2518.608352
392.996200	2520.738240
393.379694	2519.833353
393.763125	2522.779907
394.146494	2516.637261
394.529801	2521.302849
394.913047	2521.186903
395.296230	2524.660258
395.679351	2520.350071
396.062410	2522.926101
396.445408	2519.707324
396.828343	2522.487520
397.211217	2517.605163
397.594028	2519.309073
397.976778	2518.157169
398.359466	2519.263703
398.742092	2515.681963
399.124656	2521.617921
399.507158	2522.442150
399.889598	2524.027593
400.271977	2524.186389
400.654294	2521.000380
401.036549	2525.769312
401.418742	2523.127747
401.800874	2524.587161
402.182944	2523.548683
402.564952	2527.006915
402.946898	2524.108251
403.328783	2523.682274
403.710606	2524.657737
404.092367	2525.260155
404.474067	2525.018180
404.855705	2526.714528
405.237282	2525.870135
405.618797	2524.728313
406.000250	2524.846780
406.381642	2525.855011
406.762972	2527.064888
407.144240	2524.864424
407.525447	2527.455577
407.906593	2526.502799
408.287677	2528.252080
408.668700	2528.499096
409.049661	2525.764270
409.430560	2525.504651
409.811399	2531.773326
410.192176	2526.890968
410.572891	2529.275434
410.953545	2527.707635
411.334138	2529.686288
411.714669	2525.897861
412.095139	2528.864580
412.475547	2527.732841
412.855894	2531.475898
413.236180	2525.708818
413.616405	2529.993798
413.996568	2527.163191
414.376670	2530.404653
414.756711	2528.612522
415.136691	2531.241484
415.516609	2531.387678
415.896466	2530.036648
416.276262	2532.879859
416.655997	2525.607995
417.035670	2527.200999
417.415283	2528.166380
417.794834	2524.544311
418.174324	2530.550846
418.553753	2531.513706
418.933121	2530.134951
419.312428	2533.389016
419.691674	2530.918850
420.070859	2531.364992
420.449983	2529.809796
420.829045	2532.819365
421.208047	2530.616381
421.586988	2530.936494
421.965867	2532.537061
422.344686	2532.804242
422.723444	2531.916999
423.102141	2531.107893
423.480777	2535.861702
423.859352	2532.070754
424.237866	2533.610826
424.616319	2532.771474
424.994712	2532.441279
425.373044	2532.214427
425.751314	2535.186187
426.129524	2532.232071
426.507673	2533.343645
426.885762	2532.741227
427.263789	2534.097298
427.641756	2533.704088
428.019662	2534.293903
428.397508	2535.695343
428.775292	2535.564273
429.153016	2533.719211
429.530679	2536.353214
429.908282	2533.757020
430.285824	2533.396577
430.663305	2532.368182
431.040726	2535.138296
431.418086	2534.246012
431.795385	2535.702905
432.172624	2533.918337
432.549802	2535.889428
432.926920	2534.515713
433.303977	2536.817000
433.680974	2538.049562
434.057910	2535.876825
434.434786	2535.027391
434.811601	2534.913965
435.188355	2536.038142
435.565050	2535.488656
435.941683	2535.123173
436.318257	2534.011598
436.694770	2531.546474
437.071222	2535.080323
437.447614	2532.302647
437.823946	2531.705270
438.200218	2536.191897
438.576429	2537.973945
438.952580	2536.040663
439.328670	2538.120138
439.704700	2536.156609
440.080670	2536.469161
440.456580	2538.276414
440.832429	2536.764068
441.208218	2538.737680
441.583947	2537.540406
441.959616	2538.299099
442.335224	2538.629295
442.710773	2536.693492
443.086261	2535.670138
443.461689	2536.965714
443.837057	2539.514017
444.212365	2538.747762
444.587612	2537.313554
444.962800	2540.887732
445.337927	2539.332536
445.712995	2537.232895
446.088002	2539.287166
446.462949	2540.723894
446.837837	2541.840510
447.212664	2539.057793
447.587431	2539.060314
447.962139	2540.229861
448.336786	2540.459234
448.711374	2537.495035
449.085901	2539.125849
449.460369	2535.281969
449.834776	2540.817156
450.209124	2540.653318
450.583412	2539.604758
450.957640	2538.069727
451.331808	2535.274407
451.705917	2538.397402
452.079965	2541.681714
452.453954	2538.238606
452.827883	2539.183822
453.201752	2538.102494
453.575562	2539.662732
453.949311	2540.766744
454.323001	2543.738504
454.696632	2539.224151
455.070202	2541.810263
455.443713	2538.989738
455.817164	2538.553678
456.190556	2534.936650
456.563888	2537.913451
456.937160	2535.783564
457.310373	2542.611807
457.683526	2540.721374
458.056619	2542.384955
458.429653	2541.205325
458.802628	2542.644574
459.175542	2540.454193
459.548398	2541.558205
459.921194	2541.086857
460.293930	2543.163813
460.666607	2541.714481
461.039224	2541.079296
461.411782	2540.055942
461.784280	2543.930068
462.156719	2541.467465
462.529099	2544.063659
462.901419	2540.912938
463.273680	2545.349153
463.645882	2539.965201
464.018024	2542.833617
464.390106	2543.965356
464.762130	2543.506611
465.134094	2542.190870
465.505999	2542.906714
465.877845	2543.327650
466.249631	2545.891077
466.621358	2539.284645
466.993026	2547.635316
467.364634	2544.623227
467.736184	2545.187836
468.107674	2542.919317
468.479105	2543.647764
468.850477	2544.608103
469.221790	2543.062990
469.593043	2542.392516
469.964238	2544.293031
470.335373	2544.003165
470.706449	2541.417053
471.077467	2543.219266
471.448425	2542.838658
471.819324	2542.274049
472.190164	2544.769420
472.560945	2546.581715
472.931667	2546.959802
473.302330	2543.919986
473.672934	2545.691952
474.043479	2543.204142
474.413965	2545.006355
474.784393	2542.110212
475.154761	2540.643236
475.525070	2540.602907
475.895321	2544.381252
476.265513	2538.974614
476.635645	2542.740356
477.005719	2543.781354
477.375734	2544.555171
477.745691	2541.911086
478.115588	2543.793957
478.485427	2543.224307
478.855207	2544.913093
479.224928	2546.165820
479.594591	2546.624565
479.964194	2546.785882
480.333739	2546.057435
480.703226	2542.790768
481.072653	2548.028526
481.442022	2544.993752
481.811333	2544.661036
482.180584	2544.351005
482.549777	2545.200439
482.918912	2547.353012
483.287988	2546.095244
483.657005	2545.956612
484.025964	2545.588608
484.394864	2545.555840
484.763706	2547.279915
485.132489	2546.044832
485.501213	2547.809236
485.869879	2546.717826
486.238487	2545.366797
486.607036	2546.397713
486.975527	2547.050542
487.343959	2547.156407
487.712333	2546.516180
488.080648	2547.287477
488.448905	2547.635316
488.817104	2548.220090
489.185244	2548.068856
489.553326	2548.716644
489.921350	2545.802857
490.289315	2547.292518
490.657222	2549.155224
491.025070	2548.459545
491.392861	2548.646068
491.760593	2548.449463
492.128267	2547.431150
492.495883	2547.683207
492.863440	2544.252702
493.230939	2548.184802
493.598380	2543.302445
493.965763	2542.931920
494.333088	2545.291180
494.700354	2542.052238
495.067563	2546.806047
495.434713	2540.938143
495.801805	2547.413506
496.168839	2546.523742
496.535815	2546.680018
496.902733	2548.595656
497.269593	2549.739998
497.636395	2549.389638
498.003139	2548.018444
498.369825	2547.179092
498.736453	2547.950388
499.103023	2543.569626
499.469535	2545.795295
499.835989	2549.160265
500.202385	2549.251006
500.568723	2549.089689
500.935003	2546.102806
501.301226	2546.904349
501.667390	2546.382590
502.033497	2548.293187
502.399546	2549.936603
502.765537	2547.763866
503.131470	2548.769576
503.497345	2544.756818
503.863163	2547.968032
504.228923	2547.491643
504.594625	2547.683207
504.960269	2549.036757
505.325856	2548.772097
505.691385	2548.981304
506.056856	2547.095913
506.422270	2548.525080
506.787625	2547.529452
507.152924	2547.574822
507.518164	2548.572971
507.883347	2547.778989
508.248472	2547.153886
508.613540	2550.160934
508.978550	2546.087682
509.343503	2549.339226
509.708398	2546.508618
510.073236	2548.562889
510.438016	2548.467107
510.802738	2548.227652
511.167403	2548.028526
511.532010	2550.100441
511.896561	2549.944165
512.261053	2549.515667
512.625488	2548.391489
512.989866	2545.162630
513.354186	2546.312013
513.718449	2545.054246
514.082655	2548.656150
514.446803	2550.087838
514.810894	2551.106151
515.174927	2548.363763
515.538904	2547.615152
515.902822	2547.484082
516.266684	2547.332847
516.630488	2547.945347
516.994235	2549.379556
517.357925	2549.510626
517.721558	2549.152704
518.085133	2551.206974
518.448651	2550.153373
518.812112	2548.525080
519.175516	2548.293187
519.538863	2548.252858
519.902152	2548.754453
520.265385	2550.410472
520.628560	2550.002138
520.991678	2550.841490
521.354739	2549.263609
521.717743	2548.530121
522.080690	2548.807385
522.443580	2547.819318
522.806413	2549.843342
523.169189	2550.092879
523.531908	2547.731098
523.894569	2547.428629
524.257174	2548.411654
524.619722	2549.601366
524.982213	2549.901315
525.344647	2547.345450
525.707025	2549.142621
526.069345	2547.030378
526.431608	2549.475338
526.793815	2545.891077
527.155964	2552.482386
527.518057	2548.373845
527.880093	2548.361242
528.242072	2551.786707
528.603995	2550.602035
528.965860	2547.814277
529.327669	2551.436346
529.689421	2550.889381
530.051117	2551.128836
530.412755	2553.301573
530.774337	2549.818136
531.135862	2550.854093
531.497331	2549.293856
531.858743	2547.547096
532.220098	2545.679349
532.581396	2547.053063
532.942638	2546.264122
533.303824	2550.100441
533.664953	2548.242775
534.026025	2549.152704
534.387040	2549.631613
534.747999	2549.659340
535.108902	2549.964329
535.469748	2554.188816
535.830537	2553.692263
536.191270	2549.603887
536.551947	2548.928372
536.912567	2546.848896
537.273131	2552.721841
537.633638	2550.370142
537.994089	2551.360729
538.354483	2550.062632
538.714821	2548.139432
539.075103	2550.231511
539.435328	2551.085986
539.795497	2552.666388
540.155609	2550.407951
540.515665	2551.955585
540.875665	2549.581202
541.235609	2549.230842
541.595496	2552.119423
541.955328	2549.971891
542.315102	2551.388455
542.674821	2548.656150
543.034483	2549.351829
543.394090	2551.181768
543.753640	2549.407282
544.113134	2548.401572
544.472571	2549.984494
544.831953	2547.670604
545.191278	2553.644372
545.550548	2552.699155
545.909761	2550.082797
546.268918	2548.774617
546.628019	2551.194371
546.987064	2554.130843
547.346053	2548.807385
547.704986	2554.377860
548.063863	2548.782179
548.422684	2548.119267
548.781449	2551.186809
549.140158	2548.094061
549.498811	2552.978939
549.857408	2550.685214
550.215949	2547.819318
550.574434	2544.204811
550.932864	2549.392158
551.291237	2546.039791
551.649555	2553.777962
552.007817	2551.637993
552.366022	2551.275029
552.724173	2553.074721
553.082267	2552.462221
553.440305	2552.111861
553.798288	2552.318548
554.156215	2551.665719
554.514086	2552.943651
554.871902	2552.789896
555.229661	2550.967519
555.587365	2550.458362
555.945014	2552.169834
556.302606	2550.629762
556.660143	2551.312838
557.017625	2551.496840
557.375050	2552.532797
557.732421	2549.167827
558.089735	2553.377191
558.446994	2548.567930
558.804197	2550.544062
559.161345	2550.400389
559.518437	2553.626728
559.875474	2549.964329
560.232455	2551.612787
560.589381	2550.705379
560.946251	2554.022458
561.303065	2552.149670
561.659825	2550.249155
562.016528	2549.734957
562.373177	2549.704710
562.729770	2551.496840
563.086307	2553.392314
563.442789	2549.679504
563.799216	2550.203784
564.155587	2552.356357
564.511904	2555.136553
564.868164	2550.201264
565.224370	2552.247972
565.580520	2553.916594
565.936615	2551.948023
566.292654	2549.167827
566.648638	2550.652447
567.004567	2551.370811
567.360441	2548.870399
567.716260	2549.558517
568.072023	2549.717313
568.427732	2548.608259
568.783385	2550.743188
569.138982	2546.012065
569.494525	2546.667415
569.850013	2547.216901
570.205445	2549.492982
570.560823	2550.786038
570.916145	2550.876778
571.271412	2551.827036
571.626625	2551.224618
571.981782	2552.646223
572.336884	2551.698486
572.691931	2548.215049
573.046923	2551.426264
573.401860	2552.205122
573.756743	2552.721841
574.111570	2551.181768
574.466342	2551.622869
574.821059	2549.157745
575.175722	2551.448949
575.530330	2550.909546
575.884882	2552.517674
576.239380	2553.546069
576.593823	2554.700493
576.948211	2551.443908
577.302544	2549.871068
577.656823	2552.852911
578.011047	2554.582026
578.365216	2553.344423
578.719330	2550.203784
579.073389	2552.048847
579.427394	2546.886705
579.781344	2549.689587
580.135239	2551.118754
580.489080	2551.050698
580.842866	2552.568085
581.196597	2554.415668
581.550273	2550.299566
581.903895	2551.164124
582.257463	2552.898281
582.610975	2548.777138
582.964434	2551.630431
583.317837	2552.142108
583.671186	2552.303425
584.024481	2551.781665
584.377721	2552.341233
584.730906	2551.398538
585.084037	2551.811912
585.437113	2550.901984
585.790135	2552.948693
586.143103	2550.924669
586.496016	2553.230997
586.848874	2548.512477
587.201679	2549.810574
587.554428	2548.429298
587.907124	2551.098589
588.259765	2546.871582
588.612352	2550.864175
588.964884	2552.915925
589.317362	2549.992056
589.669786	2552.555482
590.022155	2552.900802
590.374470	2552.220246
590.726731	2553.674619
591.078937	2551.217056
591.431090	2553.709907
591.783188	2551.327962
592.135232	2552.832746
592.487222	2552.595812
592.839157	2550.491130
593.191038	2553.049516
593.542866	2551.874927
593.894639	2548.383928
594.246358	2550.894422
594.598022	2549.976932
594.949633	2552.900802
595.301190	2550.740667
595.652692	2553.404917
596.004141	2549.351829
596.355535	2551.958106
596.706876	2548.426777
597.058162	2551.600184
597.409395	2551.174206
597.760573	2550.344937
598.111698	2553.087324
598.462768	2550.294525
598.813785	2550.264278
599.164748	2553.740154
599.515657	2551.033054
599.866511	2551.426264
600.217312	2553.173024
600.568060	2551.539690
600.918753	2551.887530
601.269392	2549.800492
601.619978	2549.397200
601.970510	2551.481717
602.320988	2551.673281
602.671412	2551.701007
603.021783	2550.619679
603.372100	2550.581871
603.722363	2549.790410
604.072572	2554.027499
604.422728	2553.089845
604.772830	2549.548434
605.122878	2549.152704
605.472872	2547.968032
605.822813	2548.484751
606.172701	2549.470296
606.522534	2549.941644
606.872314	2551.920297
607.222041	2551.108671
607.571714	2552.026161
607.921333	2552.308466
608.270899	2551.149001
608.620411	2552.328631
608.969870	2554.685370
609.319276	2554.277037
609.668627	2557.878941
610.017926	2558.020093
610.367171	2561.188458
610.716362	2558.819116
611.065500	2556.517829
611.414585	2555.597819
611.763616	2556.495144
612.112594	2553.553631
612.461518	2553.389793
612.810389	2554.075390
613.159207	2554.725699
613.507971	2552.618497
613.856682	2555.688560
614.205340	2554.960113
614.553945	2553.815771
614.902496	2549.881150
615.250994	2553.931717
615.599439	2551.539690
615.947830	2552.981460
616.296169	2551.514484
616.644454	2555.423899
616.992686	2552.116902
617.340864	2552.144628
617.688990	2551.925338
618.037063	2555.658313
618.385082	2550.150852
618.733048	2552.195040
619.080961	2552.280740
619.428821	2550.692776
619.776628	2551.590102
620.124382	2550.571788
620.472083	2553.409958
620.819731	2550.155893
621.167326	2549.992056
621.514868	2555.391132
621.862357	2553.009186
622.209793	2551.340564
622.557176	2550.738147
622.904506	2548.031047
623.251783	2545.114739
623.599007	2548.308310
623.946179	2546.692621
624.293297	2549.278732
624.640363	2550.917107
624.987376	2551.015410
625.334336	2551.438867
625.681243	2548.860317
626.028097	2551.864844
626.374899	2552.374001
626.721647	2554.846687
627.068343	2551.839639
627.414987	2547.531973
627.761577	2550.778476
628.108115	2549.487940
628.454600	2551.935421
628.801032	2554.650082
629.147412	2550.939793
629.493739	2552.875596
629.840014	2552.661347
630.186236	2551.121274
630.532405	2554.486244
630.878521	2551.333003
631.224585	2554.670247
631.570597	2548.426778
631.916556	2553.299053
632.262462	2552.293342
632.608316	2551.486758
632.954117	2549.787889
633.299866	2549.734957
633.645562	2552.424412
633.991206	2552.076573
634.336797	2550.937272
634.682336	2553.435164
635.027823	2550.609597
635.373257	2549.845862
635.718639	2550.498692
636.063968	2551.466593
636.409245	2551.877447
636.754470	2549.830739
637.099642	2550.634803
637.444762	2549.742519
637.789829	2550.239072
638.134845	2551.900132
638.479808	2550.901984
638.824719	2552.487427
639.169577	2550.355019
639.514383	2553.712427
639.859137	2548.875440
640.203839	2552.502550
640.548489	2552.953734
640.893086	2547.126160
641.237632	2546.886705
641.582125	2546.634647
641.926566	2543.914945
642.270955	2552.293342
642.615292	2553.929197
642.959576	2550.740667
643.303809	2548.845193
643.647990	2552.714279
643.992118	2549.462735
644.336195	2551.411141
