Dividing Wavelength (nm)	Counts (n)	Blue Motor Position (mm): 5.900000	Red Motor Position (mm): 0.000000	
326.493990	2159.635349
326.888308	2159.635349
327.282561	2159.635349
327.676750	2116.921652
328.070874	2115.903339
328.464933	2113.990221
328.858929	2118.358381
329.252859	2124.198558
329.646726	2132.889507
330.040528	2143.813688
330.434265	2157.679381
330.827938	2177.712927
331.221547	2192.924608
331.615091	2207.546475
332.008571	2227.637994
332.401986	2248.089955
332.795338	2267.145516
333.188625	2284.986160
333.581847	2302.748665
333.975006	2320.291881
334.368100	2338.273677
334.761129	2357.049454
335.154095	2373.324819
335.546996	2391.288971
335.939833	2407.718091
336.332606	2425.273910
336.725315	2436.361927
337.117960	2449.589915
337.510540	2460.844291
337.903056	2471.473564
338.295508	2479.375573
338.687896	2489.682212
339.080220	2495.509786
339.472480	2505.939933
339.864676	2507.132166
340.256807	2513.141221
340.648875	2516.430574
341.040879	2521.726306
341.432818	2520.690349
341.824694	2524.594723
342.216506	2527.304343
342.608253	2529.376257
342.999937	2530.076978
343.391557	2526.482635
343.783113	2528.199148
344.174605	2527.626977
344.566033	2526.928777
344.957397	2521.872500
345.348697	2523.773015
345.739934	2519.130112
346.131106	2518.883095
346.522215	2518.419309
346.913260	2515.654236
347.304241	2514.857734
347.695159	2513.221880
348.086012	2512.720285
348.476802	2506.686024
348.867528	2506.857423
349.258191	2500.003974
349.648789	2501.521362
350.039324	2497.808552
350.429796	2497.319560
350.820203	2500.208141
351.210548	2499.429283
351.600828	2494.662872
351.991045	2497.054899
352.381198	2494.456184
352.771288	2494.257059
353.161314	2496.311329
353.551276	2493.082470
353.941175	2495.197234
354.331010	2489.856132
354.720782	2492.517861
355.110490	2491.640700
355.500135	2492.953921
355.889717	2494.728407
356.279235	2490.975268
356.668689	2491.393683
357.058080	2493.158087
357.447408	2492.722028
357.836672	2493.281596
358.225873	2493.508448
358.615010	2492.210350
359.004084	2491.189517
359.393095	2494.778818
359.782043	2495.817296
360.170927	2495.663541
360.559748	2493.780670
360.948505	2494.768736
361.337199	2498.700836
361.725830	2497.385095
362.114398	2499.784684
362.502903	2499.663696
362.891344	2500.344252
363.279722	2500.135044
363.668037	2500.379540
364.056289	2501.614623
364.444478	2500.465240
364.832603	2501.617143
365.220665	2501.932216
365.608665	2501.649911
365.996601	2504.669562
366.384474	2501.191166
366.772284	2505.440859
367.160031	2503.137051
367.547715	2505.256857
367.935336	2503.673934
368.322893	2503.353821
368.710388	2502.305261
369.097820	2503.840292
369.485189	2502.403563
369.872495	2506.116373
370.259738	2504.011692
370.646918	2508.437825
371.034035	2508.619306
371.421090	2509.511590
371.808081	2505.390447
372.195010	2504.082268
372.581875	2506.875067
372.968678	2508.435304
373.355418	2509.085613
373.742096	2510.272805
374.128710	2507.666528
374.515262	2508.369769
374.901751	2508.241220
375.288177	2511.447393
375.674540	2510.015706
376.060841	2506.832217
376.447079	2510.537465
376.833254	2509.118380
377.219367	2506.832217
377.605417	2509.572084
377.991404	2510.295490
378.377329	2514.058711
378.763191	2510.454286
379.148991	2510.156858
379.534727	2514.454442
379.920402	2510.504698
380.306013	2512.327075
380.691563	2511.442352
381.077049	2513.181550
381.462474	2509.108298
381.847835	2512.669873
382.233134	2513.201715
382.618371	2513.995697
383.003545	2513.116015
383.388657	2514.194822
383.773706	2514.567868
384.158693	2514.278001
384.543618	2514.141890
384.928480	2515.860924
385.313280	2516.619617
385.698017	2514.789678
386.082692	2516.249093
386.467305	2514.383866
386.851856	2517.146418
387.236344	2516.599453
387.620770	2513.410923
388.005133	2512.095182
388.389435	2514.603156
388.773674	2514.827487
389.157851	2515.744977
389.541965	2515.258506
389.926018	2518.457118
390.310008	2516.007117
390.693936	2517.602642
391.077802	2520.413086
391.461606	2519.929135
391.845348	2518.091634
392.229027	2521.431399
392.612645	2517.721109
392.996200	2521.814526
393.379694	2518.905781
393.763125	2516.894360
394.146494	2517.564834
394.529801	2522.316121
394.913047	2518.633558
395.296230	2520.917201
395.679351	2517.680780
396.062410	2519.659433
396.445408	2520.647499
396.828343	2521.227232
397.211217	2519.946779
397.594028	2520.309742
397.976778	2523.611698
398.359466	2521.267561
398.742092	2522.628673
399.124656	2521.625483
399.507158	2522.553055
399.889598	2521.756553
400.271977	2521.050792
400.654294	2523.949455
401.036549	2520.027437
401.418742	2526.391894
401.800874	2520.304701
402.182944	2523.258817
402.564952	2523.475587
402.946898	2522.076666
403.328783	2523.964578
403.710606	2526.338962
404.092367	2524.204033
404.474067	2525.171935
404.855705	2524.042716
405.237282	2525.514733
405.618797	2524.080525
406.000250	2524.776204
406.381642	2522.265710
406.762972	2521.963240
407.144240	2520.592047
407.525447	2523.233611
407.906593	2521.146573
408.287677	2527.715197
408.668700	2523.929290
409.049661	2523.435257
409.430560	2527.195958
409.811399	2528.489014
410.192176	2528.809127
410.572891	2526.384332
410.953545	2527.168232
411.334138	2528.463808
411.714669	2528.673016
412.095139	2526.041534
412.475547	2527.911802
412.855894	2530.404653
413.236180	2526.961544
413.616405	2528.466329
413.996568	2529.865249
414.376670	2528.262162
414.756711	2529.265352
415.136691	2528.390712
415.516609	2528.163860
415.896466	2530.150074
416.276262	2529.096473
416.655997	2529.676206
417.035670	2528.461288
417.415283	2529.449354
417.794834	2528.748633
418.174324	2529.502286
418.553753	2528.496576
418.933121	2528.168901
419.312428	2528.673016
419.691674	2527.258972
420.070859	2532.151412
420.449983	2530.666792
420.829045	2530.293747
421.208047	2531.039838
421.586988	2530.223171
421.965867	2531.722914
422.344686	2527.286699
422.723444	2530.371885
423.102141	2530.213089
423.480777	2532.587472
423.859352	2532.330373
424.237866	2531.690147
424.616319	2534.742565
424.994712	2530.926412
425.373044	2533.507483
425.751314	2530.850795
426.129524	2530.447502
426.507673	2529.028417
426.885762	2527.498427
427.263789	2531.400280
427.641756	2531.725435
428.019662	2533.298275
428.397508	2532.952956
428.775292	2532.063192
429.153016	2530.694519
429.530679	2535.970086
429.908282	2534.843388
430.285824	2535.339942
430.663305	2532.693336
431.040726	2535.027391
431.418086	2536.161650
431.795385	2532.728624
432.172624	2534.296423
432.549802	2534.117462
432.926920	2533.948584
433.303977	2534.180477
433.680974	2535.254242
434.057910	2536.915303
434.434786	2534.631660
434.811601	2533.641073
435.188355	2534.001516
435.565050	2536.375899
435.941683	2535.276928
436.318257	2534.815662
436.694770	2533.583100
437.071222	2534.379602
437.447614	2535.450847
437.823946	2533.610826
438.200218	2532.572349
438.576429	2536.680889
438.952580	2537.973945
439.328670	2537.013605
439.704700	2539.637526
440.080670	2536.844727
440.456580	2536.668286
440.832429	2537.568132
441.208218	2537.242978
441.583947	2535.594520
441.959616	2536.428831
442.335224	2538.510828
442.710773	2534.639222
443.086261	2537.323636
443.461689	2536.416228
443.837057	2539.773637
444.212365	2534.906403
444.587612	2535.097967
444.962800	2531.521268
445.337927	2536.678368
445.712995	2530.946577
446.088002	2538.354552
446.462949	2539.473688
446.837837	2538.851106
447.212664	2538.243647
447.587431	2541.533000
447.962139	2535.743234
448.336786	2541.966539
448.711374	2537.159799
449.085901	2542.659697
449.460369	2539.430838
449.834776	2537.288348
450.209124	2535.392874
450.583412	2540.597866
450.957640	2538.415046
451.331808	2539.090561
451.705917	2539.806404
452.079965	2537.371527
452.453954	2538.541075
452.827883	2537.371527
453.201752	2538.815818
453.575562	2541.061652
453.949311	2538.591486
454.323001	2539.740869
454.696632	2540.436549
455.070202	2541.033925
455.443713	2539.496373
455.817164	2539.735828
456.190556	2540.597866
456.563888	2542.836138
456.937160	2539.725746
457.310373	2539.995448
457.683526	2541.452341
458.056619	2538.929244
458.429653	2541.137269
458.802628	2538.959491
459.175542	2540.728936
459.548398	2539.997968
459.921194	2541.941333
460.293930	2541.311189
460.666607	2539.294727
461.039224	2539.945036
461.411782	2538.606610
461.784280	2542.228679
462.156719	2541.296065
462.529099	2540.577701
462.901419	2541.422094
463.273680	2538.944367
463.645882	2535.581918
464.018024	2539.980324
464.390106	2536.776671
464.762130	2542.190870
465.134094	2543.564585
465.505999	2541.182639
465.877845	2541.112063
466.249631	2543.463762
466.621358	2539.544264
466.993026	2542.170706
467.364634	2547.027857
467.736184	2542.576518
468.107674	2544.177085
468.479105	2541.585932
468.850477	2541.732125
469.221790	2542.188350
469.593043	2542.740356
469.964238	2542.752959
470.335373	2541.815304
470.706449	2541.895963
471.077467	2542.919317
471.448425	2540.522248
471.819324	2545.490305
472.190164	2542.616848
472.560945	2543.574667
472.931667	2546.700182
473.302330	2542.374872
473.672934	2542.909235
474.043479	2542.480737
474.413965	2544.371169
474.784393	2544.219935
475.154761	2542.516025
475.525070	2542.425284
475.895321	2543.315048
476.265513	2541.709440
476.635645	2540.849923
477.005719	2544.282949
477.375734	2540.648277
477.745691	2542.964687
478.115588	2543.476364
478.485427	2543.725902
478.855207	2545.709596
479.224928	2543.993083
479.594591	2542.321940
479.964194	2546.392672
480.333739	2541.724563
480.703226	2545.699513
481.072653	2542.899152
481.442022	2543.846889
481.811333	2542.178267
482.180584	2540.560057
482.549777	2542.102650
482.918912	2541.381765
483.287988	2546.579195
483.657005	2545.707075
484.025964	2546.637168
484.394864	2544.300593
484.763706	2544.897970
485.132489	2544.759338
485.501213	2546.344781
485.869879	2545.820501
486.238487	2545.908721
486.607036	2545.250851
486.975527	2546.581715
487.343959	2545.054246
487.712333	2545.684390
488.080648	2541.414532
488.448905	2546.740512
488.817104	2544.003165
489.185244	2547.990718
489.553326	2546.090203
489.921350	2545.971736
490.289315	2544.517363
490.657222	2546.241437
491.025070	2544.799667
491.392861	2543.957795
491.760593	2546.775800
492.128267	2545.265974
492.495883	2545.787733
492.863440	2544.580377
493.230939	2547.746222
493.598380	2547.816798
493.965763	2546.468289
494.333088	2546.004503
494.700354	2543.912424
495.067563	2547.370656
495.434713	2543.990562
495.801805	2545.702034
496.168839	2545.066848
496.535815	2545.543237
496.902733	2548.134391
497.269593	2545.502908
497.636395	2546.770758
498.003139	2545.306303
498.369825	2544.668597
498.736453	2544.587939
499.103023	2545.099616
499.469535	2544.653474
499.835989	2544.169523
500.202385	2543.904862
500.568723	2543.136087
500.935003	2543.415871
501.301226	2541.346477
501.667390	2547.589946
502.033497	2550.009700
502.399546	2546.990049
502.765537	2547.393341
503.131470	2546.347302
503.497345	2547.902498
503.863163	2548.716644
504.228923	2547.259750
504.594625	2546.503577
504.960269	2544.575336
505.325856	2546.107847
505.691385	2545.346633
506.056856	2548.641027
506.422270	2546.899308
506.787625	2546.937117
507.152924	2545.702034
507.518164	2547.400903
507.883347	2547.809236
508.248472	2548.000800
508.613540	2545.591128
508.978550	2547.620193
509.343503	2546.566592
509.708398	2548.245296
510.073236	2548.545245
510.438016	2545.618855
510.802738	2546.236396
511.167403	2547.327806
511.532010	2548.762014
511.896561	2551.612787
512.261053	2547.632796
512.625488	2547.776469
512.989866	2547.685728
513.354186	2548.925852
513.718449	2549.455173
514.082655	2547.126160
514.446803	2549.382076
514.810894	2546.233876
515.174927	2549.301418
515.538904	2548.174720
515.902822	2548.867878
516.266684	2546.962322
516.630488	2547.799154
516.994235	2547.559699
517.357925	2546.919473
517.721558	2546.722868
518.085133	2549.389638
518.448651	2548.706562
518.812112	2545.260933
519.175516	2547.549617
519.538863	2542.140459
519.902152	2547.191695
520.265385	2544.277908
520.628560	2546.264122
520.991678	2546.175902
521.354739	2545.795295
521.717743	2547.738660
522.080690	2547.683207
522.443580	2547.065666
522.806413	2547.995759
523.169189	2546.808567
523.531908	2548.487271
523.894569	2545.805378
524.257174	2548.086500
524.619722	2549.203115
524.982213	2548.885522
525.344647	2548.457024
525.707025	2547.957950
526.069345	2549.014072
526.431608	2550.690256
526.793815	2549.770245
527.155964	2550.602035
527.518057	2548.633465
527.880093	2548.968702
528.242072	2545.878474
528.603995	2550.067673
528.965860	2548.315872
529.327669	2547.743701
529.689421	2548.542724
530.051117	2548.872920
530.412755	2547.874771
530.774337	2550.264278
531.135862	2548.295708
531.497331	2549.472817
531.858743	2549.031716
532.220098	2550.448280
532.581396	2549.613969
532.942638	2546.927034
533.303824	2549.999617
533.664953	2552.250493
534.026025	2550.433157
534.387040	2551.146480
534.747999	2549.908877
535.108902	2548.116747
535.469748	2548.091541
535.830537	2547.436191
536.191270	2549.624052
536.551947	2548.547765
536.912567	2545.175233
537.273131	2546.695141
537.633638	2544.620706
537.994089	2552.550441
538.354483	2549.256047
538.714821	2552.202602
539.075103	2549.671942
539.435328	2548.958619
539.795497	2550.055070
540.155609	2550.612118
540.515665	2548.056253
540.875665	2548.951057
541.235609	2551.474155
541.595496	2546.700182
541.955328	2550.574309
542.315102	2548.467107
542.674821	2549.253527
543.034483	2550.181099
543.394090	2548.625903
543.753640	2550.513815
544.113134	2548.953578
544.472571	2547.287477
544.831953	2549.203115
545.191278	2549.669422
545.550548	2550.279402
545.909761	2550.773435
546.268918	2550.803682
546.628019	2549.235883
546.987064	2550.939793
547.346053	2551.665719
547.704986	2550.032385
548.063863	2548.552806
548.422684	2548.978784
548.781449	2551.559855
549.140158	2551.459032
549.498811	2552.568085
549.857408	2552.230328
550.215949	2549.651778
550.574434	2550.357539
550.932864	2548.368804
551.291237	2551.244783
551.649555	2548.666232
552.007817	2551.330482
552.366022	2551.108671
552.724173	2552.951213
553.082267	2548.701520
553.440305	2551.496840
553.798288	2552.631100
554.156215	2550.914587
554.514086	2548.741850
554.871902	2548.036088
555.229661	2547.698331
555.587365	2547.053063
555.945014	2553.553631
556.302606	2551.549772
556.660143	2552.023641
557.017625	2550.055070
557.375050	2552.890719
557.732421	2550.284443
558.089735	2552.600853
558.446994	2551.673281
558.804197	2554.725699
559.161345	2553.455328
559.518437	2554.425751
559.875474	2552.550441
560.232455	2554.519012
560.589381	2553.535987
560.946251	2553.422561
561.303065	2553.571275
561.659825	2552.096737
562.016528	2552.134546
562.373177	2552.333672
562.729770	2554.642520
563.086307	2551.096068
563.442789	2553.798127
563.799216	2552.132026
564.155587	2552.996583
564.511904	2554.508930
564.868164	2551.096068
565.224370	2552.875596
565.580520	2552.507592
565.936615	2552.316028
566.292654	2553.553631
566.648638	2553.440205
567.004567	2555.398693
567.360441	2553.954403
567.716260	2554.098076
568.072023	2555.507078
568.427732	2554.990360
568.783385	2553.697304
569.138982	2553.586398
569.494525	2552.000956
569.850013	2554.037582
570.205445	2554.919784
570.560823	2553.057077
570.916145	2551.529608
571.271412	2553.387273
571.626625	2552.699155
571.981782	2554.327448
572.336884	2548.283105
572.691931	2549.808054
573.046923	2552.941131
573.401860	2548.046170
573.756743	2552.835267
574.111570	2551.733774
574.466342	2553.233518
574.821059	2552.147149
575.175722	2552.918446
575.530330	2553.372149
575.884882	2553.014227
576.239380	2551.053219
576.593823	2553.210832
576.948211	2553.772921
577.302544	2554.740823
577.656823	2552.585729
578.011047	2556.986657
578.365216	2552.404248
578.719330	2554.395504
579.073389	2552.926007
579.427394	2553.848538
579.781344	2554.100596
580.135239	2555.771739
580.489080	2554.299722
580.842866	2554.458518
581.196597	2553.631769
581.550273	2553.669577
581.903895	2552.726882
582.257463	2554.398024
582.610975	2553.689742
582.964434	2552.472303
583.317837	2554.839125
583.671186	2552.825184
584.024481	2552.830225
584.377721	2551.020451
584.730906	2554.203940
585.084037	2552.989022
585.437113	2554.755946
585.790135	2554.501368
586.143103	2553.946841
586.496016	2555.441543
586.848874	2553.387273
587.201679	2553.331820
587.554428	2555.575134
587.907124	2555.433981
588.259765	2552.696635
588.612352	2553.641851
588.964884	2551.572457
589.317362	2553.137736
589.669786	2553.246121
590.022155	2550.309648
590.374470	2547.894936
590.726731	2550.145811
591.078937	2550.982642
591.431090	2552.192519
591.783188	2551.736295
592.135232	2554.269475
592.487222	2553.195709
592.839157	2553.341902
593.191038	2553.097407
593.542866	2553.127653
593.894639	2554.771070
594.246358	2553.485575
594.598022	2552.699155
594.949633	2554.720658
595.301190	2551.587581
595.652692	2554.720658
596.004141	2551.085986
596.355535	2551.895091
596.706876	2552.784855
597.058162	2552.212684
597.409395	2552.016079
597.760573	2551.199412
598.111698	2553.848538
598.462768	2552.336192
598.813785	2550.861655
599.164748	2550.342416
599.515657	2553.115051
599.866511	2552.956254
600.217312	2551.766542
600.568060	2553.755277
600.918753	2551.436346
601.269392	2552.046326
601.619978	2550.423074
601.970510	2551.247303
602.320988	2551.438867
602.671412	2550.944834
603.021783	2551.259906
603.372100	2553.636810
603.722363	2553.016748
604.072572	2552.447098
604.422728	2552.794937
604.772830	2550.362581
605.122878	2553.132695
605.472872	2552.076573
605.822813	2552.283260
606.172701	2551.350647
606.522534	2552.905843
606.872314	2552.661347
607.222041	2551.970709
607.571714	2548.260419
607.921333	2547.645399
608.270899	2549.009031
608.620411	2546.606921
608.969870	2555.796944
609.319276	2554.992880
609.668627	2560.172666
610.017926	2564.034190
610.367171	2567.250446
610.716362	2566.736248
611.065500	2565.317163
611.414585	2560.371792
611.763616	2562.763819
612.112594	2556.696790
612.461518	2554.955072
612.810389	2557.599157
613.159207	2555.933056
613.507971	2555.859959
613.856682	2556.079249
614.205340	2554.622356
614.553945	2557.468087
614.902496	2554.569423
615.250994	2550.241593
615.599439	2555.128992
615.947830	2557.137891
616.296169	2552.164793
616.644454	2552.668908
616.992686	2553.162942
617.340864	2550.728064
617.688990	2550.854093
618.037063	2552.258054
618.385082	2553.772921
618.733048	2551.315359
619.080961	2550.337375
619.428821	2553.535987
619.776628	2555.159238
620.124382	2551.758980
620.472083	2552.817622
620.819731	2553.225956
621.167326	2550.680173
621.514868	2553.835936
621.862357	2555.033210
622.209793	2552.709238
622.557176	2552.263096
622.904506	2550.869217
623.251783	2552.003476
623.599007	2551.804351
623.946179	2553.150339
624.293297	2550.939793
624.640363	2552.283260
624.987376	2550.667570
625.334336	2551.711089
625.681243	2550.680173
626.028097	2546.916952
626.374899	2553.205791
626.721647	2549.845862
627.068343	2551.312838
627.414987	2554.950031
627.761577	2553.757798
628.108115	2552.343754
628.454600	2553.548590
628.801032	2550.430636
629.147412	2555.562531
629.493739	2556.321224
629.840014	2552.565565
630.186236	2552.926007
630.532405	2555.592778
630.878521	2553.041954
631.224585	2552.305945
631.570597	2549.979453
631.916556	2553.319217
632.262462	2551.101110
632.608316	2553.084804
632.954117	2551.504402
633.299866	2552.336192
633.645562	2551.206974
633.991206	2550.952396
634.336797	2552.852911
634.682336	2550.314690
635.027823	2554.861810
635.373257	2548.656150
635.718639	2552.076573
636.063968	2552.865513
636.409245	2552.462221
636.754470	2551.169165
637.099642	2549.165307
637.444762	2551.219577
637.789829	2551.070863
638.134845	2550.901984
638.479808	2551.607746
638.824719	2551.811912
639.169577	2552.167314
639.514383	2551.585060
639.859137	2551.484237
640.203839	2550.062632
640.548489	2549.508105
640.893086	2553.268806
641.237632	2551.269988
641.582125	2552.187478
641.926566	2551.385935
642.270955	2550.334854
642.615292	2552.288301
642.959576	2550.907025
643.303809	2548.401572
643.647990	2554.534135
643.992118	2552.084135
644.336195	2551.882488
