Dividing Wavelength (nm)	Counts (n)	Blue Motor Position (mm): 43.300000	Red Motor Position (mm): 0.000000	
326.493990	2256.370050
326.888308	2256.370050
327.282561	2256.370050
327.676750	2221.008876
328.070874	2218.742878
328.464933	2217.845552
328.858929	2221.071891
329.252859	2226.460884
329.646726	2233.505897
330.040528	2246.537279
330.434265	2262.827768
330.827938	2279.304779
331.221547	2296.802624
331.615091	2311.429532
332.008571	2330.878304
332.401986	2350.354802
332.795338	2368.888604
333.188625	2387.256048
333.581847	2409.288411
333.975006	2426.912285
334.368100	2448.306942
334.761129	2465.373768
335.154095	2484.106696
335.546996	2508.130314
335.939833	2546.927034
336.332606	2562.572255
336.725315	2575.906107
337.117960	2590.255752
337.510540	2600.365786
337.903056	2613.964298
338.295508	2621.463014
338.687896	2628.475259
339.080220	2636.281486
339.472480	2643.757517
339.864676	2647.719864
340.256807	2653.723878
340.648875	2656.373005
341.040879	2660.811741
341.432818	2664.839623
341.824694	2664.821979
342.216506	2665.104283
342.608253	2666.886331
342.999937	2666.233502
343.391557	2666.727535
343.783113	2667.287103
344.174605	2663.458347
344.566033	2665.184942
344.957397	2665.343738
345.348697	2661.641011
345.739934	2660.630259
346.131106	2659.531288
346.522215	2656.771256
346.913260	2657.996256
347.304241	2653.078611
347.695159	2653.108858
348.086012	2652.642551
348.476802	2648.725574
348.867528	2645.194246
349.258191	2643.215593
349.648789	2642.235089
350.039324	2637.022536
350.429796	2640.919348
350.820203	2641.889770
351.210548	2641.539410
351.600828	2637.829120
351.991045	2639.089409
352.381198	2637.977834
352.771288	2637.065386
353.161314	2637.113277
353.551276	2636.238636
353.941175	2635.396764
354.331010	2634.988430
354.720782	2634.900210
355.110490	2633.776033
355.500135	2630.975672
355.889717	2633.579428
356.279235	2634.403656
356.668689	2636.851137
357.058080	2636.813328
357.447408	2635.999182
357.836672	2636.962042
358.225873	2636.157978
358.615010	2636.629326
359.004084	2637.655201
359.393095	2639.182670
359.782043	2639.044038
360.170927	2639.996817
360.559748	2641.894811
360.948505	2642.741725
361.337199	2644.138124
361.725830	2645.355563
362.114398	2645.219452
362.502903	2642.245171
362.891344	2645.080820
363.279722	2645.196767
363.668037	2645.080820
364.056289	2648.360091
364.444478	2645.985707
364.832603	2648.231541
365.220665	2649.385966
365.608665	2647.238434
365.996601	2647.803043
366.384474	2649.801861
366.772284	2650.638692
367.160031	2652.135915
367.547715	2653.625576
367.935336	2650.089207
368.322893	2651.909063
368.710388	2650.585760
369.097820	2650.346305
369.485189	2650.595842
369.872495	2653.978457
370.259738	2654.764877
370.646918	2657.008190
371.034035	2654.674136
371.421090	2657.199754
371.808081	2655.334527
372.195010	2657.350989
372.581875	2655.717655
372.968678	2658.989364
373.355418	2657.766884
373.742096	2658.565907
374.128710	2658.253355
374.515262	2661.527585
374.901751	2662.568583
375.288177	2661.625887
375.674540	2662.503048
376.060841	2664.615291
376.447079	2661.467091
376.833254	2664.068326
377.219367	2666.896413
377.605417	2666.316681
377.991404	2668.799449
378.377329	2671.201559
378.763191	2673.407064
379.148991	2678.521314
379.534727	2685.155473
379.920402	2691.114117
380.306013	2699.376568
380.691563	2714.172354
381.077049	2726.089642
381.462474	2746.556727
381.847835	2766.895262
382.233134	2795.657565
382.618371	2820.893581
383.003545	2857.673840
383.388657	2888.651730
383.773706	2935.030345
384.158693	2970.250367
384.543618	3008.898373
384.928480	3058.682287
385.313280	3111.463168
385.698017	3154.338182
386.082692	3231.772825
386.467305	3260.706528
386.851856	3310.142603
387.236344	3394.186199
387.620770	3443.266873
388.005133	3505.920854
388.389435	3573.777305
388.773674	3613.877163
389.157851	3700.045606
389.541965	3786.405613
389.926018	3791.043474
390.310008	3902.838622
390.693936	3980.273266
391.077802	4038.468346
391.461606	4065.476328
391.845348	4152.705933
392.229027	4233.445053
392.612645	4259.812809
392.996200	4374.073081
393.379694	4456.458138
393.763125	4571.298143
394.146494	4619.312613
394.529801	4696.386814
394.913047	4795.417761
395.296230	4759.970887
395.679351	4881.069485
396.062410	4950.392912
396.445408	4937.996715
396.828343	5003.446015
397.211217	5066.694852
397.594028	4963.767093
397.976778	5088.689406
398.359466	5140.615812
398.742092	5171.712169
399.124656	5088.661680
399.507158	5210.113158
399.889598	5281.006905
400.271977	5412.313839
400.654294	5397.820522
401.036549	5446.341628
401.418742	5365.078228
401.800874	5575.866514
402.182944	5630.048836
402.564952	5739.139405
402.946898	5802.907480
403.328783	5642.044261
403.710606	5657.127393
404.092367	5983.456405
404.474067	5999.678838
404.855705	5902.518160
405.237282	5837.199929
405.618797	6090.830462
406.000250	6068.883798
406.381642	6276.647392
406.762972	6296.353263
407.144240	6349.295461
407.525447	6336.253996
407.906593	6363.761052
408.287677	6521.012284
408.668700	6431.483912
409.049661	6548.408435
409.430560	6573.830973
409.811399	6432.230003
410.192176	6704.056580
410.572891	6709.702673
410.953545	6913.420741
411.334138	6640.366643
411.714669	6812.920298
412.095139	6610.941428
412.475547	6857.461412
412.855894	6918.837460
413.236180	7099.862774
413.616405	6775.756911
413.996568	6995.268914
414.376670	7032.054214
414.756711	6926.883142
415.136691	7031.124121
415.516609	7230.408494
415.896466	7215.741257
416.276262	7419.093842
416.655997	7406.034733
417.035670	7584.489058
417.415283	7933.435207
417.794834	7989.087025
418.174324	7844.312648
418.553753	7761.912468
418.933121	8074.196825
419.312428	8174.001589
419.691674	7955.374308
420.070859	8423.223632
420.449983	8116.640820
420.829045	8473.431004
421.208047	8247.461283
421.586988	8558.114827
421.965867	8573.583608
422.344686	8674.159668
422.723444	8726.575065
423.102141	8075.900735
423.480777	8832.850150
423.859352	8362.573510
424.237866	8978.123601
424.616319	8845.432870
424.994712	9267.659751
425.373044	8820.418664
425.751314	9290.329820
426.129524	9166.957662
426.507673	9268.375595
426.885762	9419.705993
427.263789	9340.088529
427.641756	9265.875183
428.019662	9362.776242
428.397508	9617.697310
428.775292	9288.978791
429.153016	9677.313995
429.530679	9511.313840
429.908282	9535.292088
430.285824	9255.729861
430.663305	9944.265777
431.040726	9387.450170
431.418086	9372.886276
431.795385	9704.710146
432.172624	9795.949989
432.549802	9704.747954
432.926920	9779.525910
433.303977	9654.931272
433.680974	9861.613539
434.057910	9952.921438
434.434786	10028.150577
434.811601	9855.067600
435.188355	10422.731770
435.565050	10158.350978
435.941683	10077.463143
436.318257	10559.891484
436.694770	10720.792512
437.071222	10770.944431
437.447614	10607.172466
437.823946	10518.624599
438.200218	10638.047013
438.576429	10463.910436
438.952580	10705.043948
439.328670	10745.587427
439.704700	10540.649400
440.080670	10526.781186
440.456580	11062.912938
440.832429	10842.309526
441.208218	10441.888155
441.583947	10751.417522
441.959616	10918.231823
442.335224	10718.339991
442.710773	10853.536175
443.086261	11067.533156
443.461689	10343.671355
443.837057	11012.715649
444.212365	11265.426171
444.587612	10899.125850
444.962800	11125.403082
445.337927	10875.245904
445.712995	10514.914310
446.088002	11574.436299
446.462949	11259.838052
446.837837	11221.187525
447.212664	11168.628455
447.587431	11731.992521
447.962139	12474.458701
448.336786	14756.639458
448.711374	15275.653973
449.085901	13106.392541
449.460369	12747.837953
449.834776	12176.430726
450.209124	13089.303029
450.583412	13513.690045
450.957640	14449.817191
451.331808	13525.766129
451.705917	12568.670304
452.079965	11831.149497
452.453954	12748.425247
452.827883	12394.931978
453.201752	12680.415041
453.575562	12220.165257
453.949311	12636.105819
454.323001	12611.280657
454.696632	12855.332997
455.070202	13127.106642
455.443713	13331.527951
455.817164	13829.125124
456.190556	13799.145382
456.563888	14163.978727
456.937160	14306.308144
457.310373	13673.600487
457.683526	13768.860650
458.056619	13295.067806
458.429653	13495.874608
458.802628	12868.704658
459.175542	13272.806071
459.548398	14220.868148
459.921194	14576.939968
460.293930	14643.221058
460.666607	15504.718963
461.039224	16546.649845
461.411782	17272.023993
461.784280	17076.946463
462.156719	17176.799117
462.529099	16852.738625
462.901419	15789.380317
463.273680	15567.388067
463.645882	15459.179699
464.018024	15186.231466
464.390106	15412.685137
464.762130	16123.167717
465.134094	16928.630675
465.505999	18956.850705
465.877845	22224.241803
466.249631	25039.965681
466.621358	24681.953017
466.993026	23245.055292
467.364634	22670.346110
467.736184	21199.458405
468.107674	20404.140768
468.479105	20533.469050
468.850477	19991.915536
469.221790	19603.182081
469.593043	18907.460000
469.964238	18328.564139
470.335373	17982.350296
470.706449	18468.814081
471.077467	18038.377680
471.448425	19906.278935
471.819324	24011.204813
472.190164	25909.116057
472.560945	22255.806988
472.931667	19944.097671
473.302330	19322.294030
473.672934	18938.155586
474.043479	19189.895686
474.413965	18987.221136
474.784393	18595.253781
475.154761	19349.511219
475.525070	19281.758112
475.895321	18987.531167
476.265513	19588.096428
476.635645	20174.145686
477.005719	19951.319124
477.375734	20129.075250
477.745691	20610.797829
478.115588	21158.224287
478.485427	21700.271834
478.855207	22785.985138
479.224928	24576.363529
479.594591	26801.473384
479.964194	26742.600269
480.333739	26993.216191
480.703226	26552.611783
481.072653	26253.809992
481.442022	26872.536009
481.811333	27786.025854
482.180584	27681.101798
482.549777	26726.975212
482.918912	26400.439513
483.287988	26522.097679
483.657005	26158.958162
484.025964	25941.238289
484.394864	25821.054661
484.763706	25483.115871
485.132489	24940.952378
485.501213	25126.721418
485.869879	25035.758838
486.238487	24877.496854
486.607036	24995.754762
486.975527	24740.758077
487.343959	25042.405599
487.712333	24951.369923
488.080648	24619.664520
488.448905	25113.584171
488.817104	24879.909046
489.185244	25576.999800
489.553326	25526.159763
489.921350	26571.604330
490.289315	28906.818027
490.657222	30632.800719
491.025070	31143.638482
491.392861	30890.207075
491.760593	30041.853980
492.128267	29115.544481
492.495883	28075.456140
492.863440	27200.342079
493.230939	26336.439545
493.598380	26171.170357
493.965763	25780.687621
494.333088	25295.469002
494.700354	25259.570945
495.067563	25101.374496
495.434713	24854.529357
495.801805	25034.589290
496.168839	24815.452853
496.535815	24674.056049
496.902733	24887.417845
497.269593	24580.514919
497.636395	24748.418110
498.003139	24681.857235
498.369825	24421.804273
498.736453	24648.820033
499.103023	24508.008003
499.469535	24515.824312
499.835989	24734.378496
500.202385	24754.341466
500.568723	24280.165494
500.935003	24483.815506
501.301226	24154.313088
501.667390	25005.479147
502.033497	25209.333327
502.399546	24941.222080
502.765537	24481.317614
503.131470	24876.176072
503.497345	25013.907957
503.863163	24256.217492
504.228923	24809.965557
504.594625	25036.179774
504.960269	24596.258443
505.325856	25073.559930
505.691385	24473.839063
506.056856	25078.739716
506.422270	25053.233998
506.787625	24597.337250
507.152924	25027.554360
507.518164	25061.902262
507.883347	24866.892787
508.248472	24556.733276
508.613540	25323.071840
508.978550	25133.910103
509.343503	25138.106864
509.708398	25353.457394
510.073236	25519.858321
510.438016	25738.664563
510.802738	25386.134154
511.167403	25636.371989
511.532010	25379.338678
511.896561	26141.495605
512.261053	26109.880008
512.625488	25923.231287
512.989866	25822.766132
513.354186	25640.924151
513.718449	25781.842045
514.082655	26149.299311
514.446803	25879.655553
514.810894	26368.904575
515.174927	25860.315167
515.538904	25875.151283
515.902822	26378.573508
516.266684	26137.089636
516.630488	26036.054831
516.994235	25992.776525
517.357925	26326.611815
517.721558	26487.293553
518.085133	26607.726718
518.448651	26483.348850
518.812112	26253.870486
519.175516	26474.403322
519.538863	26612.898942
519.902152	26410.786482
520.265385	26669.052355
520.628560	26462.228936
520.991678	26450.775434
521.354739	26519.904777
521.717743	26606.554650
522.080690	26371.170574
522.443580	26729.087456
522.806413	26690.958689
523.169189	26807.968911
523.531908	26849.082041
523.894569	26467.323022
524.257174	26564.007312
524.619722	26711.319909
524.982213	26409.523672
525.344647	26443.337212
525.707025	26609.569260
526.069345	26572.728508
526.431608	26538.909927
526.793815	26723.824491
527.155964	26209.190739
527.518057	26382.740022
527.880093	26289.990353
528.242072	26523.380653
528.603995	26231.573462
528.965860	26016.354002
529.327669	26067.710757
529.689421	26043.656891
530.051117	25903.177577
530.412755	26069.046662
530.774337	25849.554824
531.135862	25750.377684
531.497331	25932.985920
531.858743	25512.926735
532.220098	25981.401162
532.581396	25662.369220
532.942638	25564.898510
533.303824	25687.154053
533.664953	25672.907752
534.026025	25341.756876
534.387040	25589.887510
534.747999	25630.620033
535.108902	25803.408102
535.469748	25305.841176
535.830537	25452.511026
536.191270	25607.090447
536.551947	25430.178715
536.912567	25062.487036
537.273131	25487.070657
537.633638	25161.555791
537.994089	25392.057509
538.354483	24879.183120
538.714821	25393.857201
539.075103	25429.583859
539.435328	25205.703696
539.795497	24805.849455
540.155609	25157.411962
540.515665	25479.198895
540.875665	24683.462843
541.235609	25021.444482
541.595496	24947.513440
541.955328	25313.473483
542.315102	25235.761576
542.674821	24743.074487
543.034483	24632.930316
543.394090	24799.187570
543.753640	24617.990857
544.113134	25242.620065
544.472571	24831.607231
544.831953	25132.112932
545.191278	24783.542349
545.550548	24676.851369
545.909761	24851.597926
546.268918	25104.260557
546.628019	25078.626290
546.987064	24756.335242
547.346053	24508.834753
547.704986	24608.485761
548.063863	24764.476705
548.422684	24803.044053
548.781449	24290.918275
549.140158	24706.153076
549.498811	24272.031592
549.857408	24037.751529
550.215949	24443.483755
550.574434	24137.856241
550.932864	24341.476007
551.291237	24514.788355
551.649555	24363.762948
552.007817	24422.815024
552.366022	24281.942500
552.724173	24297.393637
553.082267	24269.500933
553.440305	24749.612863
553.798288	23992.232430
554.156215	24482.318283
554.514086	24613.978098
554.871902	23995.473892
555.229661	24275.066367
555.587365	24113.701552
555.945014	24018.582541
556.302606	24230.736980
556.660143	24221.781370
557.017625	24445.374187
557.375050	23967.795437
557.732421	24350.633263
558.089735	24179.057592
558.446994	24235.765531
558.804197	24262.024902
559.161345	24173.192209
559.518437	23971.500685
559.875474	24140.376818
560.232455	24321.666793
560.589381	24127.403409
560.946251	24137.924297
561.303065	24438.906387
561.659825	24536.762745
562.016528	24129.613955
562.373177	23867.007648
562.729770	24239.743002
563.086307	24077.075049
563.442789	24252.822275
563.799216	24092.773202
564.155587	24080.954217
564.511904	24070.897115
564.868164	24021.806359
565.224370	23982.845802
565.580520	23913.676130
565.936615	24034.464696
566.292654	23743.030551
566.648638	23987.821420
567.004567	23823.436955
567.360441	23766.890333
567.716260	23486.297189
568.072023	23805.122443
568.427732	23583.893927
568.783385	23359.383620
569.138982	23609.908802
569.494525	23632.609118
569.850013	23377.612432
570.205445	23487.159226
570.560823	23317.353000
570.916145	23066.530390
571.271412	23256.617178
571.626625	23006.066791
571.981782	23118.124079
572.336884	22913.692688
572.691931	23054.035891
573.046923	22793.352784
573.401860	22666.537518
573.756743	22702.780893
574.111570	22590.768976
574.466342	22513.359538
574.821059	22590.348039
575.175722	22302.019245
575.530330	22266.776538
575.884882	22282.540227
576.239380	22201.007125
576.593823	22091.145259
576.948211	22063.154252
577.302544	21917.714443
577.656823	21776.967948
578.011047	21886.449207
578.365216	21752.319227
578.719330	21624.747788
579.073389	21519.420440
579.427394	21668.991474
579.781344	21422.012744
580.135239	21325.930873
580.489080	21262.349320
580.842866	21027.575223
581.196597	21259.249010
581.550273	21217.175540
581.903895	21095.378743
582.257463	21398.788149
582.610975	20942.551123
582.964434	21262.339237
583.317837	20946.069848
583.671186	21025.029441
584.024481	21012.640805
584.377721	20774.698344
584.730906	20862.316118
585.084037	20849.148624
585.437113	20783.671597
585.790135	20982.691310
586.143103	20428.010632
586.496016	20457.786207
586.848874	20696.182373
587.201679	20607.821028
587.554428	20303.020263
587.907124	20642.471399
588.259765	20391.928573
588.612352	20468.412959
588.964884	20041.462517
589.317362	20210.575584
589.669786	20277.552354
590.022155	20273.620254
590.374470	20508.646408
590.726731	20276.143352
591.078937	20071.618699
591.431090	20144.486057
591.783188	19909.497712
592.135232	19880.599298
592.487222	19985.291460
592.839157	19982.092848
593.191038	19867.918275
593.542866	19747.906046
593.894639	19469.142841
594.246358	19677.135808
594.598022	19565.202028
594.949633	19333.674434
595.301190	19313.227514
595.652692	19477.312031
596.004141	19703.112873
596.355535	19019.010652
596.706876	19050.351506
597.058162	18938.120298
597.409395	19188.292599
597.760573	19229.443538
598.111698	19002.566409
598.462768	18952.326269
598.813785	18927.054965
599.164748	18719.051916
599.515657	18775.301111
599.866511	18565.516014
600.217312	18924.083205
600.568060	18430.092978
600.918753	18747.710876
601.269392	18650.159508
601.619978	18443.532694
601.970510	18629.609244
602.320988	18578.827181
602.671412	18776.369836
603.021783	18711.399445
603.372100	18412.257376
603.722363	18575.227797
604.072572	18515.296040
604.422728	18670.014092
604.772830	18419.743489
605.122878	18370.357825
605.472872	18359.715950
605.822813	18353.691771
606.172701	18323.338983
606.522534	18496.951281
606.872314	18538.828146
607.222041	18378.005256
607.571714	18582.144260
607.921333	18414.082273
608.270899	18489.334097
608.620411	18654.439448
608.969870	18444.722406
609.319276	18438.841900
609.668627	18467.558833
610.017926	18594.038863
610.367171	18708.155462
610.716362	18771.227859
611.065500	18576.999763
611.414585	18721.287668
611.763616	18708.556234
612.112594	18643.273292
612.461518	18619.239591
612.810389	18813.752512
613.159207	18661.509666
613.507971	18575.923476
613.856682	18821.813317
614.205340	18752.840250
614.553945	18904.891532
614.902496	18649.491555
615.250994	18865.673876
615.599439	18810.115319
615.947830	18799.657446
616.296169	18881.722389
616.644454	18826.975458
616.992686	18797.847672
617.340864	19028.979534
617.688990	18774.746584
618.037063	18949.107493
618.385082	18805.742118
618.733048	19072.918231
619.080961	18954.269634
619.428821	18987.057299
619.776628	18860.184059
620.124382	18795.216189
620.472083	18852.380353
620.819731	18858.868318
621.167326	18544.103713
621.514868	18600.955326
621.862357	18367.212145
622.209793	18371.615593
622.557176	18205.189461
622.904506	18034.987504
623.251783	17967.355384
623.599007	17713.228298
623.946179	17656.971542
624.293297	17582.518741
624.640363	17320.587948
624.987376	17357.610182
625.334336	17145.228891
625.681243	16998.004514
626.028097	17008.006163
626.374899	16928.388700
626.721647	16795.904656
627.068343	16621.677338
627.414987	16564.533339
627.761577	16533.532763
628.108115	16563.051239
628.454600	16290.639888
628.801032	16382.144393
629.147412	16329.096331
629.493739	16337.182341
629.840014	16147.138403
630.186236	16239.048720
630.532405	16015.435738
630.878521	16208.166612
631.224585	16113.639936
631.570597	15922.923003
631.916556	15955.740915
632.262462	15933.524550
632.608316	15849.007085
632.954117	15791.923580
633.299866	15789.700431
633.645562	15700.461925
633.991206	15468.105062
634.336797	15332.976933
634.682336	15301.711697
635.027823	15170.949208
635.373257	15040.378282
635.718639	14955.381908
636.063968	14901.416356
