Dividing Wavelength (nm)	Counts (n)	Blue Motor Position (mm): 8.000000	Red Motor Position (mm): 0.000000	
326.493990	2100.492532
326.888308	2100.492532
327.282561	2100.492532
327.676750	2081.747001
328.070874	2079.942268
328.464933	2087.647672
328.858929	2098.536564
329.252859	2109.707761
329.646726	2125.428599
330.040528	2140.683131
330.434265	2162.269352
330.827938	2179.376507
331.221547	2200.473736
331.615091	2218.306818
332.008571	2241.062586
332.401986	2264.607295
332.795338	2281.265788
333.188625	2302.055507
333.581847	2321.327838
333.975006	2337.273008
334.368100	2355.945441
334.761129	2373.881867
335.154095	2390.890720
335.546996	2412.078689
335.939833	2443.691765
336.332606	2459.384877
336.725315	2468.416104
337.117960	2475.007413
337.510540	2483.925214
337.903056	2492.555669
338.295508	2495.388798
338.687896	2503.026146
339.080220	2513.022754
339.472480	2517.464011
339.864676	2521.552386
340.256807	2525.376102
340.648875	2526.054137
341.040879	2526.611184
341.432818	2526.228057
341.824694	2529.035979
342.216506	2527.158149
342.608253	2526.449867
342.999937	2525.119003
343.391557	2525.058509
343.783113	2523.873838
344.174605	2522.699249
344.566033	2520.924763
344.957397	2520.193795
345.348697	2518.139525
345.739934	2515.092148
346.131106	2513.862106
346.522215	2511.152486
346.913260	2508.488236
347.304241	2507.399347
347.695159	2506.103770
348.086012	2507.253153
348.476802	2503.648728
348.867528	2502.809376
349.258191	2504.016733
349.648789	2502.784171
350.039324	2499.207472
350.429796	2502.012874
350.820203	2497.435506
351.210548	2498.965497
351.600828	2498.007677
351.991045	2498.806700
352.381198	2495.320742
352.771288	2493.586585
353.161314	2497.125475
353.551276	2494.378047
353.941175	2493.992398
354.331010	2495.860146
354.720782	2495.653458
355.110490	2496.661689
355.500135	2496.207985
355.889717	2496.505413
356.279235	2496.029024
356.668689	2499.010867
357.058080	2502.327946
357.447408	2493.266472
357.836672	2496.646566
358.225873	2497.193531
358.615010	2494.436020
359.004084	2499.572956
359.393095	2501.334839
359.782043	2504.384737
360.170927	2500.732421
360.559748	2504.606548
360.948505	2503.784840
361.337199	2503.431959
361.725830	2503.338698
362.114398	2506.164264
362.502903	2503.711743
362.891344	2503.497494
363.279722	2504.883811
363.668037	2502.859788
364.056289	2505.428256
364.444478	2506.612927
364.832603	2506.191991
365.220665	2502.953049
365.608665	2507.268277
365.996601	2509.083092
366.384474	2506.058400
366.772284	2511.243227
367.160031	2509.677948
367.547715	2508.556292
367.935336	2509.277177
368.322893	2508.142917
368.710388	2509.395644
369.097820	2509.380520
369.485189	2510.212311
369.872495	2510.774399
370.259738	2507.285921
370.646918	2509.612413
371.034035	2511.061745
371.421090	2514.404030
371.808081	2510.842455
372.195010	2511.941427
372.581875	2509.118380
372.968678	2512.359842
373.355418	2512.521159
373.742096	2512.127949
374.128710	2512.173320
374.515262	2515.765142
374.901751	2515.006448
375.288177	2514.434277
375.674540	2512.032167
376.060841	2513.718433
376.447079	2513.998217
376.833254	2514.439318
377.219367	2510.885305
377.605417	2515.160203
377.991404	2510.199708
378.377329	2512.523680
378.763191	2510.164420
379.148991	2516.372601
379.534727	2517.022910
379.920402	2516.322189
380.306013	2515.233300
380.691563	2519.722447
381.077049	2515.613907
381.462474	2517.602642
381.847835	2514.628362
382.233134	2516.649864
382.618371	2515.308917
383.003545	2517.005266
383.388657	2515.802950
383.773706	2517.791686
384.158693	2515.835718
384.543618	2520.473579
384.928480	2515.855883
385.313280	2519.561131
385.698017	2518.046264
386.082692	2522.681605
386.467305	2516.241531
386.851856	2517.915194
387.236344	2520.259330
387.620770	2521.335617
388.005133	2522.343848
388.389435	2523.094979
388.773674	2519.568692
389.157851	2517.247241
389.541965	2520.443333
389.926018	2521.842253
390.310008	2519.813188
390.693936	2520.075328
391.077802	2521.716224
391.461606	2521.466687
391.845348	2520.077849
392.229027	2521.794362
392.612645	2523.621780
392.996200	2520.982736
393.379694	2522.563138
393.763125	2524.720752
394.146494	2524.153622
394.529801	2523.289064
394.913047	2524.284692
395.296230	2527.044723
395.679351	2526.452388
396.062410	2524.209074
396.445408	2525.479445
396.828343	2525.827285
397.211217	2521.552386
397.594028	2522.981553
397.976778	2521.680936
398.359466	2525.885258
398.742092	2523.394928
399.124656	2525.698735
399.507158	2527.014477
399.889598	2526.238139
400.271977	2525.938190
400.654294	2526.573376
401.036549	2527.551359
401.418742	2527.964734
401.800874	2525.489528
402.182944	2529.383819
402.564952	2527.649662
402.946898	2527.689991
403.328783	2525.958355
403.710606	2529.648479
404.092367	2527.939528
404.474067	2531.909437
404.855705	2528.408356
405.237282	2528.264683
405.618797	2529.333407
406.000250	2530.535723
406.381642	2530.676875
406.762972	2527.440454
407.144240	2530.104704
407.525447	2531.768285
407.906593	2529.635877
408.287677	2529.409025
408.668700	2528.196627
409.049661	2531.659900
409.430560	2529.275434
409.811399	2533.658717
410.192176	2528.940197
410.572891	2532.234591
410.953545	2530.762574
411.334138	2531.488501
411.714669	2531.458254
412.095139	2531.710311
412.475547	2530.979344
412.855894	2531.972451
413.236180	2529.958510
413.616405	2530.480270
413.996568	2530.150074
414.376670	2532.277441
414.756711	2528.307533
415.136691	2532.647966
415.516609	2533.247863
415.896466	2533.741896
416.276262	2536.927906
416.655997	2528.582275
417.035670	2528.236956
417.415283	2531.896834
417.794834	2529.875331
418.174324	2531.715353
418.553753	2532.068233
418.933121	2531.722914
419.312428	2533.449509
419.691674	2534.135106
420.070859	2533.436907
420.449983	2533.099149
420.829045	2532.131248
421.208047	2535.781043
421.586988	2534.815662
421.965867	2535.826413
422.344686	2534.523275
422.723444	2536.799356
423.102141	2534.475384
423.480777	2536.474202
423.859352	2534.679551
424.237866	2535.649973
424.616319	2534.485467
424.994712	2536.580066
425.373044	2535.332380
425.751314	2534.566125
426.129524	2537.517721
426.507673	2535.317257
426.885762	2534.384643
427.263789	2534.482946
427.641756	2535.861702
428.019662	2537.842875
428.397508	2537.127031
428.775292	2535.259284
429.153016	2537.794984
429.530679	2536.819521
429.908282	2535.697864
430.285824	2537.006043
430.663305	2537.411856
431.040726	2539.357742
431.418086	2540.645757
431.795385	2539.491332
432.172624	2537.265663
432.549802	2537.454706
432.926920	2539.040149
433.303977	2541.044008
433.680974	2537.883204
434.057910	2539.360262
434.434786	2539.219110
434.811601	2538.271373
435.188355	2539.304810
435.565050	2538.437731
435.941683	2536.078471
436.318257	2537.232895
436.694770	2535.712987
437.071222	2538.404964
437.447614	2534.366999
437.823946	2536.234747
438.200218	2540.721374
438.576429	2539.514017
438.952580	2538.914120
439.328670	2539.299768
439.704700	2537.197607
440.080670	2539.624923
440.456580	2538.962011
440.832429	2540.116435
441.208218	2538.732639
441.583947	2538.576363
441.959616	2540.988555
442.335224	2539.977804
442.710773	2539.077958
443.086261	2539.088040
443.461689	2541.855633
443.837057	2540.736497
444.212365	2542.198432
444.587612	2539.451003
444.962800	2540.396219
445.337927	2540.688606
445.712995	2539.075437
446.088002	2542.785726
446.462949	2541.283462
446.837837	2542.878988
447.212664	2541.409491
447.587431	2542.279090
447.962139	2543.506611
448.336786	2543.398227
448.711374	2540.953267
449.085901	2542.354708
449.460369	2539.748431
449.834776	2539.372865
450.209124	2544.648433
450.583412	2544.144317
450.957640	2541.969059
451.331808	2542.551313
451.705917	2541.964018
452.079965	2542.374872
452.453954	2541.139790
452.827883	2543.635161
453.201752	2544.645912
453.575562	2541.011240
453.949311	2543.476364
454.323001	2543.524255
454.696632	2544.537527
455.070202	2542.967208
455.443713	2541.618699
455.817164	2543.894780
456.190556	2541.303627
456.563888	2542.170706
456.937160	2536.708615
457.310373	2541.323792
457.683526	2543.927548
458.056619	2541.958977
458.429653	2542.500901
458.802628	2544.512322
459.175542	2541.452341
459.548398	2548.328475
459.921194	2539.579553
460.293930	2545.941489
460.666607	2545.797816
461.039224	2547.030378
461.411782	2543.859492
461.784280	2541.812784
462.156719	2547.509287
462.529099	2547.060625
462.901419	2544.802188
463.273680	2546.876623
463.645882	2546.160779
464.018024	2546.480892
464.390106	2546.372507
464.762130	2545.291180
465.134094	2549.555996
465.505999	2543.085675
465.877845	2546.828732
466.249631	2547.020296
466.621358	2548.053732
466.993026	2548.373845
467.364634	2549.989535
467.736184	2547.027857
468.107674	2545.724719
468.479105	2545.790254
468.850477	2548.938455
469.221790	2549.583722
469.593043	2547.537014
469.964238	2549.697148
470.335373	2545.636499
470.706449	2548.625903
471.077467	2548.419216
471.448425	2552.837787
471.819324	2551.814433
472.190164	2548.792261
472.560945	2549.472817
472.931667	2549.772766
473.302330	2547.138763
473.672934	2549.916438
474.043479	2550.118085
474.413965	2551.539690
474.784393	2544.882846
475.154761	2550.493651
475.525070	2546.579195
475.895321	2545.548279
476.265513	2545.462579
476.635645	2552.351316
477.005719	2551.413661
477.375734	2551.244783
477.745691	2550.458363
478.115588	2553.649413
478.485427	2549.563558
478.855207	2554.413148
479.224928	2553.215874
479.594591	2551.663198
479.964194	2551.658157
480.333739	2554.791234
480.703226	2553.236038
481.072653	2552.774773
481.442022	2553.248641
481.811333	2552.633620
482.180584	2549.722354
482.549777	2556.132181
482.918912	2554.214022
483.287988	2555.282747
483.657005	2551.257385
484.025964	2555.804506
484.394864	2552.215205
484.763706	2553.954403
485.132489	2552.484906
485.501213	2552.986501
485.869879	2553.180586
486.238487	2551.890050
486.607036	2553.407437
486.975527	2553.427602
487.343959	2552.164793
487.712333	2554.566903
488.080648	2553.755277
488.448905	2554.279557
488.817104	2553.561193
489.185244	2553.987170
489.553326	2551.892571
489.921350	2556.608570
490.289315	2556.457336
490.657222	2556.822819
491.025070	2556.477500
491.392861	2560.800290
491.760593	2555.935576
492.128267	2558.448591
492.495883	2556.185113
492.863440	2555.179403
493.230939	2556.477500
493.598380	2555.723848
493.965763	2553.634289
494.333088	2551.549772
494.700354	2552.968857
495.067563	2553.818292
495.434713	2552.338713
495.801805	2556.958930
496.168839	2555.496996
496.535815	2555.973385
496.902733	2556.981616
497.269593	2554.014897
497.636395	2557.369784
498.003139	2554.219063
498.369825	2554.549259
498.736453	2557.034548
499.103023	2556.585885
499.469535	2559.945814
499.835989	2554.473642
500.202385	2555.557490
500.568723	2555.111348
500.935003	2557.906667
501.301226	2556.606050
501.667390	2557.289126
502.033497	2560.066802
502.399546	2556.800134
502.765537	2554.980277
503.131470	2556.795093
503.497345	2557.737789
503.863163	2558.004970
504.228923	2553.722510
504.594625	2559.429096
504.960269	2555.877603
505.325856	2556.348951
505.691385	2556.243087
506.056856	2556.394321
506.422270	2557.503375
506.787625	2559.174518
507.152924	2555.620504
507.518164	2559.209806
507.883347	2558.572100
508.248472	2556.938766
508.613540	2559.837429
508.978550	2562.075702
509.343503	2558.199054
509.708398	2559.338355
510.073236	2559.613098
510.438016	2559.431616
510.802738	2561.400187
511.167403	2562.962945
511.532010	2562.897410
511.896561	2566.395970
512.261053	2566.978224
512.625488	2562.315156
512.989866	2563.250290
513.354186	2564.480332
513.718449	2561.178376
514.082655	2565.919581
514.446803	2567.444530
514.810894	2569.403019
515.174927	2569.917216
515.538904	2570.305385
515.902822	2574.676066
516.266684	2573.209090
516.630488	2576.979873
516.994235	2576.740418
517.357925	2577.022723
517.721558	2578.439287
518.085133	2579.954154
518.448651	2579.984401
518.812112	2583.631675
519.175516	2583.004052
519.538863	2583.009093
519.902152	2588.304825
520.265385	2588.418251
520.628560	2586.865576
520.991678	2588.733323
521.354739	2591.392532
521.717743	2591.281626
522.080690	2593.479569
522.443580	2597.993923
522.806413	2595.364961
523.169189	2600.010384
523.531908	2602.543564
523.894569	2600.590117
524.257174	2602.203286
524.619722	2605.963987
524.982213	2607.020109
525.344647	2608.431632
525.707025	2609.893566
526.069345	2610.927003
526.431608	2612.635954
526.793815	2616.051336
527.155964	2616.494957
527.518057	2615.058228
527.880093	2619.943107
528.242072	2619.086110
528.603995	2621.016872
528.965860	2622.453601
529.327669	2624.127264
529.689421	2625.715228
530.051117	2628.142543
530.412755	2628.303860
530.774337	2627.247738
531.135862	2630.748820
531.497331	2630.829478
531.858743	2630.189252
532.220098	2634.320477
532.581396	2632.533388
532.942638	2632.346866
533.303824	2637.317443
533.664953	2640.992444
534.026025	2641.720891
534.387040	2640.863895
534.747999	2643.094606
535.108902	2647.440080
535.469748	2647.767755
535.830537	2647.608959
536.191270	2649.695997
536.551947	2647.321613
536.912567	2652.307314
537.273131	2650.835297
537.633638	2651.888898
537.994089	2653.388642
538.354483	2652.571975
538.714821	2655.402583
539.075103	2656.264620
539.435328	2657.681184
539.795497	2659.070022
540.155609	2660.496669
540.515665	2662.808038
540.875665	2660.957934
541.235609	2666.041938
541.595496	2661.825013
541.955328	2666.551094
542.315102	2666.218378
542.674821	2665.903306
543.034483	2668.043276
543.394090	2669.232988
543.753640	2669.641322
544.113134	2671.682989
544.472571	2671.531754
544.831953	2675.819256
545.191278	2674.059893
545.550548	2676.918227
545.909761	2674.717764
546.268918	2676.719102
546.628019	2680.673887
546.987064	2678.145748
547.346053	2677.288752
547.704986	2678.493588
548.063863	2680.252951
548.422684	2680.467200
548.781449	2681.165399
549.140158	2683.592715
549.498811	2685.760411
549.857408	2681.684638
550.215949	2683.396110
550.574434	2683.562468
550.932864	2686.012469
551.291237	2684.858045
551.649555	2690.214271
552.007817	2690.357943
552.366022	2689.742923
552.724173	2694.731144
553.082267	2695.512523
553.440305	2694.408511
553.798288	2695.199972
554.156215	2696.903882
554.514086	2698.580065
554.871902	2701.100642
555.229661	2701.473688
555.587365	2702.494521
555.945014	2703.343956
556.302606	2703.558205
556.660143	2706.565253
557.017625	2707.344111
557.375050	2707.139945
557.732421	2710.673793
558.089735	2711.808053
558.446994	2710.557847
558.804197	2713.650595
559.161345	2712.428115
559.518437	2713.816953
559.875474	2711.586242
560.232455	2716.047663
560.589381	2718.195195
560.946251	2719.997407
561.303065	2723.102758
561.659825	2721.250134
562.016528	2720.796430
562.373177	2721.751729
562.729770	2724.882286
563.086307	2724.816751
563.442789	2725.356154
563.799216	2725.943448
564.155587	2726.404714
564.511904	2725.749364
564.868164	2729.202554
565.224370	2727.468397
565.580520	2728.166597
565.936615	2728.653069
566.292654	2728.050651
566.648638	2730.558625
567.004567	2728.332955
567.360441	2729.676423
567.716260	2729.197513
568.072023	2728.292626
568.427732	2725.507389
568.783385	2727.155846
569.138982	2724.776421
569.494525	2724.385732
569.850013	2722.170145
570.205445	2725.151987
570.560823	2725.013356
570.916145	2724.448746
571.271412	2722.621328
571.626625	2722.170145
571.981782	2720.826677
572.336884	2721.340875
572.691931	2723.440516
573.046923	2717.439022
573.401860	2714.865513
573.756743	2716.743343
574.111570	2713.852241
574.466342	2713.438866
574.821059	2713.877447
575.175722	2711.679504
575.530330	2709.826880
575.884882	2709.282435
576.239380	2707.230685
576.593823	2708.193546
576.948211	2707.490305
577.302544	2702.096270
577.656823	2701.826568
578.011047	2704.122814
578.365216	2701.622402
578.719330	2702.915458
579.073389	2700.767926
579.427394	2699.164839
579.781344	2697.438244
580.135239	2697.108048
580.489080	2696.074612
580.842866	2693.307018
581.196597	2698.138964
581.550273	2697.932277
581.903895	2695.941021
582.257463	2697.581917
582.610975	2693.652338
582.964434	2695.883048
583.317837	2696.198120
583.671186	2698.012936
584.024481	2695.799869
584.377721	2695.187369
584.730906	2695.457071
585.084037	2696.556042
585.437113	2691.325845
585.790135	2694.900023
586.143103	2695.141998
586.496016	2697.884386
586.848874	2694.272399
587.201679	2696.162832
587.554428	2692.003880
587.907124	2696.845908
588.259765	2694.123685
588.612352	2699.343800
588.964884	2699.096784
589.317362	2700.689788
589.669786	2701.042669
590.022155	2704.868905
590.374470	2703.656507
590.726731	2705.625078
591.078937	2702.610468
591.431090	2705.834286
591.783188	2703.689275
592.135232	2703.220447
592.487222	2708.667414
592.839157	2710.809905
593.191038	2710.547765
593.542866	2710.520038
593.894639	2710.686396
594.246358	2713.663198
594.598022	2713.862323
594.949633	2716.866851
595.301190	2712.193701
595.652692	2716.125801
596.004141	2719.831049
596.355535	2719.798282
596.706876	2719.926831
597.058162	2722.467573
597.409395	2722.081925
597.760573	2726.175342
598.111698	2724.075701
598.462768	2727.254148
598.813785	2728.877400
599.164748	2731.423183
599.515657	2733.585838
599.866511	2734.583986
600.217312	2738.511045
600.568060	2736.154306
600.918753	2747.703589
601.269392	2744.194946
601.619978	2747.895153
601.970510	2750.781213
602.320988	2754.375556
602.671412	2759.835126
603.021783	2760.558531
603.372100	2762.522061
603.722363	2763.273193
604.072572	2768.775612
604.422728	2771.228133
604.772830	2772.614451
605.122878	2772.644698
605.472872	2779.220883
605.822813	2780.856737
606.172701	2788.105917
606.522534	2795.909623
606.872314	2801.643935
607.222041	2802.800880
607.571714	2809.515697
607.921333	2810.196253
608.270899	2817.069866
608.620411	2822.680670
608.969870	2828.089828
609.319276	2830.870025
609.668627	2838.686334
610.017926	2844.902076
610.367171	2852.020186
610.716362	2859.229036
611.065500	2864.247504
611.414585	2872.207486
611.763616	2881.427757
612.112594	2887.719117
612.461518	2894.817061
612.810389	2902.991292
613.159207	2909.282652
613.507971	2918.293715
613.856682	2929.091866
614.205340	2934.135541
614.553945	2952.939044
614.902496	2952.886112
615.250994	2965.736013
615.599439	2976.461068
615.947830	2990.157883
616.296169	2998.460664
616.644454	3010.282169
616.992686	3026.020652
617.340864	3045.305586
617.688990	3053.230280
618.037063	3074.209041
618.385082	3086.955599
618.733048	3107.768002
619.080961	3118.556072
619.428821	3127.715848
619.776628	3140.094402
620.124382	3147.812408
620.472083	3159.046619
620.819731	3170.500121
621.167326	3172.766120
621.514868	3177.391378
621.862357	3174.202848
622.209793	3183.445804
622.557176	3186.150383
622.904506	3186.062163
623.251783	3187.919828
623.599007	3194.737989
623.946179	3195.136240
624.293297	3205.740307
624.640363	3206.612427
624.987376	3217.831514
625.334336	3224.647154
625.681243	3230.956158
626.028097	3240.347828
626.374899	3250.412492
626.721647	3261.853390
627.068343	3275.093981
627.414987	3285.438429
627.761577	3290.161990
628.108115	3311.382727
628.454600	3315.231648
628.801032	3335.827282
629.147412	3347.406812
629.493739	3362.810058
629.840014	3374.445041
630.186236	3397.367168
630.532405	3405.639701
630.878521	3428.455963
631.224585	3446.452883
631.570597	3458.453349
631.916556	3479.197697
632.262462	3495.049606
632.608316	3512.464272
632.954117	3525.992208
633.299866	3541.466030
633.645562	3549.574726
633.991206	3552.717885
634.336797	3546.224879
634.682336	3560.635017
635.027823	3562.260789
635.373257	3568.136254
635.718639	3573.222778
636.063968	3577.374168
636.409245	3577.487594
636.754470	3589.220880
637.099642	3597.014504
637.444762	3595.570213
637.789829	3610.088736
638.134845	3617.864716
638.479808	3630.996922
638.824719	3641.825320
639.169577	3643.889673
639.514383	3656.679080
639.859137	3666.990760
640.203839	3689.343237
640.548489	3690.595963
640.893086	3707.619940
641.237632	3712.519941
641.582125	3733.057602
641.926566	3744.911875
642.270955	3763.796038
642.615292	3781.435035
642.959576	3799.510092
643.303809	3815.190601
643.647990	3839.191535
643.992118	3856.664174
644.336195	3873.650342
