Dividing Wavelength (nm)	Counts (n)	Blue Motor Position (mm): 28.300000	Red Motor Position (mm): 0.000000	
326.493990	2131.246091
326.888308	2131.246091
327.282561	2131.246091
327.676750	2099.358272
328.070874	2099.073447
328.464933	2100.966400
328.858929	2106.975456
329.252859	2117.924842
329.646726	2127.487911
330.040528	2142.172792
330.434265	2159.219454
330.827938	2176.361897
331.221547	2193.942921
331.615091	2212.189378
332.008571	2232.986658
332.401986	2252.798393
332.795338	2272.179108
333.188625	2290.513785
333.581847	2311.784934
333.975006	2331.458037
334.368100	2347.146107
334.761129	2364.434744
335.154095	2384.337220
335.546996	2404.451424
335.939833	2425.465473
336.332606	2441.952567
336.725315	2454.510081
337.117960	2462.893520
337.510540	2469.217648
337.903056	2482.881695
338.295508	2488.923518
338.687896	2499.333501
339.080220	2505.839110
339.472480	2513.978053
339.864676	2519.767818
340.256807	2522.142201
340.648875	2524.763601
341.040879	2529.575383
341.432818	2531.188552
341.824694	2530.056813
342.216506	2529.615712
342.608253	2531.793490
342.999937	2530.603778
343.391557	2530.250897
343.783113	2530.828109
344.174605	2526.880886
344.566033	2528.458767
344.957397	2525.340813
345.348697	2523.107582
345.739934	2520.962571
346.131106	2518.517612
346.522215	2518.802437
346.913260	2518.366377
347.304241	2512.748011
347.695159	2513.257168
348.086012	2511.407064
348.476802	2509.977897
348.867528	2507.474964
349.258191	2504.830879
349.648789	2504.326764
350.039324	2501.614623
350.429796	2505.019922
350.820203	2498.879797
351.210548	2504.293996
351.600828	2496.921309
351.991045	2498.784015
352.381198	2496.709580
352.771288	2498.831906
353.161314	2498.559684
353.551276	2494.637666
353.941175	2499.860301
354.331010	2495.184631
354.720782	2496.477687
355.110490	2497.327122
355.500135	2498.300064
355.889717	2496.371823
356.279235	2495.744199
356.668689	2498.196721
357.058080	2495.504744
357.447408	2496.323932
357.836672	2494.783859
358.225873	2496.908706
358.615010	2494.536843
359.004084	2503.263080
359.393095	2500.999602
359.782043	2501.806187
360.170927	2501.518841
360.559748	2504.561177
360.948505	2503.101763
361.337199	2504.238543
361.725830	2507.558143
362.114398	2504.178050
362.502903	2506.950684
362.891344	2506.433966
363.279722	2504.349449
363.668037	2508.546209
364.056289	2504.823317
364.444478	2508.256343
364.832603	2508.503360
365.220665	2506.746518
365.608665	2508.952022
365.996601	2508.599142
366.384474	2506.421363
366.772284	2509.428411
367.160031	2510.683659
367.547715	2509.642660
367.935336	2511.833042
368.322893	2507.474964
368.710388	2512.400172
369.097820	2509.907321
369.485189	2509.612413
369.872495	2513.123577
370.259738	2510.487054
370.646918	2510.552589
371.034035	2513.000069
371.421090	2514.653567
371.808081	2512.218690
372.195010	2512.715244
372.581875	2513.612569
372.968678	2510.872702
373.355418	2512.241375
373.742096	2514.469565
374.128710	2516.029802
374.515262	2516.085255
374.901751	2515.755059
375.288177	2513.093330
375.674540	2513.506705
376.060841	2517.990811
376.447079	2514.225069
376.833254	2514.671211
377.219367	2510.585356
377.605417	2514.572909
377.991404	2511.684328
378.377329	2516.193640
378.763191	2510.126611
379.148991	2516.541479
379.534727	2515.820594
379.920402	2518.789834
380.306013	2519.954341
380.691563	2517.988291
381.077049	2517.796727
381.462474	2519.281347
381.847835	2516.886798
382.233134	2519.004083
382.618371	2519.760256
383.003545	2522.913498
383.388657	2520.445853
383.773706	2521.668333
384.158693	2519.939217
384.543618	2519.697242
384.928480	2518.910822
385.313280	2517.819412
385.698017	2520.939886
386.082692	2523.087418
386.467305	2520.150946
386.851856	2521.738909
387.236344	2523.833508
387.620770	2521.244876
388.005133	2522.714372
388.389435	2523.402490
388.773674	2520.763446
389.157851	2524.100690
389.541965	2524.342665
389.926018	2524.451050
390.310008	2521.310411
390.693936	2524.814013
391.077802	2524.645134
391.461606	2526.361647
391.845348	2524.922398
392.229027	2523.765453
392.612645	2527.135464
392.996200	2526.890968
393.379694	2526.843077
393.763125	2527.889117
394.146494	2525.882737
394.529801	2528.025228
394.913047	2527.551359
395.296230	2526.059178
395.679351	2527.241328
396.062410	2525.587830
396.445408	2525.287881
396.828343	2527.833664
397.211217	2525.731503
397.594028	2525.476925
397.976778	2525.328211
398.359466	2526.286030
398.742092	2526.759898
399.124656	2528.110928
399.507158	2528.095804
399.889598	2531.914478
400.271977	2526.800227
400.654294	2531.448171
401.036549	2528.725948
401.418742	2531.382636
401.800874	2531.886752
402.182944	2533.111752
402.564952	2529.948428
402.946898	2532.179139
403.328783	2532.655528
403.710606	2530.876000
404.092367	2533.081505
404.474067	2532.511855
404.855705	2532.242153
405.237282	2533.237781
405.618797	2530.218130
406.000250	2533.217616
406.381642	2534.913965
406.762972	2531.974972
407.144240	2533.021011
407.525447	2533.421783
407.906593	2534.182997
408.287677	2536.317926
408.668700	2532.867256
409.049661	2536.335570
409.430560	2535.334901
409.811399	2534.450178
410.192176	2535.665097
410.572891	2534.838347
410.953545	2535.748276
411.334138	2536.945550
411.714669	2538.067206
412.095139	2536.305323
412.475547	2537.121990
412.855894	2538.359593
413.236180	2538.508307
413.616405	2538.518390
413.996568	2537.686599
414.376670	2538.999820
414.756711	2536.716177
415.136691	2537.321116
415.516609	2538.674665
415.896466	2539.047711
416.276262	2538.004192
416.655997	2537.631147
417.035670	2537.187525
417.415283	2539.440921
417.794834	2534.314067
418.174324	2539.753472
418.553753	2537.847916
418.933121	2540.280273
419.312428	2542.594162
419.691674	2539.133410
420.070859	2541.359080
420.449983	2541.984183
420.829045	2542.742877
421.208047	2543.378062
421.586988	2544.406457
421.965867	2545.253371
422.344686	2541.006199
422.723444	2545.679349
423.102141	2543.047866
423.480777	2544.842517
423.859352	2546.238917
424.237866	2547.302600
424.616319	2544.983669
424.994712	2546.009544
425.373044	2548.388969
425.751314	2546.417878
426.129524	2547.526932
426.507673	2547.975594
426.885762	2546.967363
427.263789	2549.203115
427.641756	2549.515667
428.019662	2549.205636
428.397508	2549.871068
428.775292	2550.712941
429.153016	2549.039278
429.530679	2551.653116
429.908282	2554.743343
430.285824	2556.268292
430.663305	2553.881306
431.040726	2552.590771
431.418086	2557.672254
431.795385	2558.803993
432.172624	2560.482697
432.549802	2563.583007
432.926920	2567.999057
433.303977	2571.621126
433.680974	2574.630695
434.057910	2580.644792
434.434786	2584.367684
434.811601	2589.202150
435.188355	2591.823550
435.565050	2598.959304
435.941683	2606.198401
436.318257	2616.016048
436.694770	2621.765484
437.071222	2630.673202
437.447614	2638.948257
437.823946	2642.333391
438.200218	2659.967347
438.576429	2667.380364
438.952580	2682.876871
439.328670	2697.647452
439.704700	2705.448637
440.080670	2718.742160
440.456580	2744.447004
440.832429	2756.258427
441.208218	2762.128851
441.583947	2787.916873
441.959616	2807.537044
442.335224	2819.177068
442.710773	2846.167406
443.086261	2871.892414
443.461689	2873.440048
443.837057	2909.338105
444.212365	2949.374949
444.587612	2959.989098
444.962800	3002.899400
445.337927	3027.636342
445.712995	3005.707322
446.088002	3109.353445
446.462949	3117.404168
446.837837	3141.914258
447.212664	3191.471321
447.587431	3256.058584
447.962139	3398.027559
448.336786	3614.368676
448.711374	3602.985751
449.085901	3462.672795
449.460369	3485.194150
449.834776	3514.324457
450.209124	3651.358142
450.583412	3751.054521
450.957640	3820.720747
451.331808	3813.320333
451.705917	3744.710229
452.079965	3768.121348
452.453954	3881.995972
452.827883	3892.474010
453.201752	3968.671051
453.575562	3952.181436
453.949311	4077.678441
454.323001	4085.764452
454.696632	4162.757994
455.070202	4274.107000
455.443713	4389.683014
455.817164	4486.498374
456.190556	4584.463116
456.563888	4678.190769
456.937160	4745.717025
457.310373	4656.924662
457.683526	4730.165065
458.056619	4739.065222
458.429653	4790.916010
458.802628	4806.604081
459.175542	4914.202469
459.548398	5168.417775
459.921194	5311.669723
460.293930	5368.516295
460.666607	5729.901490
461.039224	5970.130115
461.411782	6111.030365
461.784280	6194.164033
462.156719	6202.340785
462.529099	6206.640889
462.901419	6015.702146
463.273680	6008.420199
463.645882	6070.222225
464.018024	6056.933743
464.390106	6217.660851
464.762130	6542.895933
465.134094	6930.469923
465.505999	7693.909823
465.877845	8622.802913
466.249631	9183.316206
466.621358	9021.359057
466.993026	8656.921442
467.364634	8547.314155
467.736184	8342.726488
468.107674	8143.487485
468.479105	8235.581804
468.850477	8094.177438
469.221790	7972.998182
469.593043	7758.887776
469.964238	7696.311933
470.335373	7748.429902
470.706449	7852.509564
471.077467	7875.603090
471.448425	9038.146099
471.819324	10012.260860
472.190164	10079.267877
472.560945	9040.268425
472.931667	8390.299857
473.302330	8303.002195
473.672934	8022.434257
474.043479	8381.167806
474.413965	8356.619908
474.784393	8280.818598
475.154761	8456.938869
475.525070	8563.367709
475.895321	8427.879138
476.265513	8623.148232
476.635645	8802.920819
477.005719	8825.301022
477.375734	8955.143501
477.745691	9201.691212
478.115588	9348.328295
478.485427	9603.529147
478.855207	10128.890474
479.224928	10926.012844
479.594591	11550.102649
479.964194	11388.178267
480.333739	11356.837413
480.703226	11297.578650
481.072653	11407.127964
481.442022	11647.797690
481.811333	11849.201868
482.180584	11663.407623
482.549777	11390.623227
482.918912	11243.235012
483.287988	11270.429516
483.657005	11291.050356
484.025964	10995.008596
484.394864	11126.852413
484.763706	11102.392735
485.132489	10868.589061
485.501213	10842.110400
485.869879	10924.921434
486.238487	10772.761767
486.607036	10884.574559
486.975527	10675.868270
487.343959	10861.176044
487.712333	10917.805846
488.080648	10853.319406
488.448905	10896.184337
488.817104	10837.464977
489.185244	11107.814496
489.553326	11267.573702
489.921350	11794.671707
490.289315	12846.188344
490.657222	13185.571424
491.025070	13092.405860
491.392861	12969.905821
491.760593	12600.389244
492.128267	12254.964342
492.495883	11930.424939
492.863440	11594.056469
493.230939	11268.977664
493.598380	11204.213960
493.965763	11081.482029
494.333088	10978.206430
494.700354	10900.867569
495.067563	10959.523914
495.434713	10796.273709
495.801805	10922.415981
496.168839	10841.205513
496.535815	10781.598910
496.902733	10785.301637
497.269593	10720.142203
497.636395	10813.837089
498.003139	10809.330297
498.369825	10673.496407
498.736453	10829.320993
499.103023	10762.021589
499.469535	10790.955291
499.835989	10778.783425
500.202385	10739.774977
500.568723	10596.333985
500.935003	10814.931019
501.301226	10625.907914
501.667390	10884.403160
502.033497	10973.845832
502.399546	10844.104176
502.765537	10743.752447
503.131470	10820.854375
503.497345	10984.419653
503.863163	10607.164904
504.228923	10922.100909
504.594625	10976.149640
504.960269	10730.539583
505.325856	10944.576893
505.691385	10743.102138
506.056856	10893.890612
506.422270	10923.368759
506.787625	10809.773919
507.152924	10923.295662
507.518164	10910.740668
507.883347	10827.087762
508.248472	10752.231668
508.613540	10980.931174
508.978550	10871.114679
509.343503	10837.858187
509.708398	10965.742178
510.073236	11076.052706
510.438016	11084.030332
510.802738	11027.677794
511.167403	11082.903634
511.532010	10983.585342
511.896561	11208.403159
512.261053	11286.508276
512.625488	11153.288224
512.989866	11134.696449
513.354186	11121.796136
513.718449	11026.631754
514.082655	11217.452030
514.446803	11115.880342
514.810894	11238.655123
515.174927	11102.370050
515.538904	11121.939809
515.902822	11271.725093
516.266684	11156.963225
516.630488	11106.082859
516.994235	11161.948926
517.357925	11221.258101
517.721558	11314.128758
518.085133	11327.896149
518.448651	11334.159783
518.812112	11222.026877
519.175516	11232.583053
519.538863	11351.750889
519.902152	11265.209401
520.265385	11437.090062
520.628560	11344.700836
520.991678	11322.517238
521.354739	11381.249201
521.717743	11319.656383
522.080690	11299.156531
522.443580	11431.867427
522.806413	11391.139945
523.169189	11417.016187
523.531908	11470.706997
523.894569	11296.414143
524.257174	11300.252982
524.619722	11418.931826
524.982213	11364.610873
525.344647	11415.067782
525.707025	11364.043743
526.069345	11459.750049
526.431608	11385.309850
526.793815	11491.204328
527.155964	11277.030907
527.518057	11329.456386
527.880093	11276.052923
528.242072	11345.396515
528.603995	11249.619633
528.965860	11173.909064
529.327669	11227.415871
529.689421	11176.520382
530.051117	11147.977368
530.412755	11253.342525
530.774337	11146.560804
531.135862	11122.728749
531.497331	11140.352623
531.858743	10994.123874
532.220098	11164.073773
532.581396	11033.268433
532.942638	11017.819817
533.303824	10980.164919
533.664953	10992.447690
534.026025	10902.092569
534.387040	11010.721873
534.747999	11008.249187
535.108902	11069.993239
535.469748	10821.166926
535.830537	10933.561972
536.191270	10910.385267
536.551947	10923.958574
536.912567	10928.465365
537.273131	10861.581857
537.633638	10835.055305
537.994089	10826.321506
538.354483	10771.599781
538.714821	10914.491287
539.075103	10923.376321
539.435328	10889.469520
539.795497	10714.349918
540.155609	10870.550069
540.515665	10965.452311
540.875665	10702.220901
541.235609	10775.050451
541.595496	10757.547565
541.955328	10914.836606
542.315102	10802.418875
542.674821	10749.264949
543.034483	10747.714794
543.394090	10750.913406
543.753640	10685.499394
544.113134	10902.347147
544.472571	10759.674932
544.831953	10905.679350
545.191278	10713.566018
545.550548	10739.394370
545.909761	10874.353620
546.268918	10852.099446
546.628019	10931.336302
546.987064	10798.209512
547.346053	10716.114321
547.704986	10819.175671
548.063863	10806.605553
548.422684	10792.109716
548.781449	10717.014167
549.140158	10815.780453
549.498811	10686.668942
549.857408	10550.615761
550.215949	10780.179825
550.574434	10628.809098
550.932864	10729.070087
551.291237	10789.793305
551.649555	10731.205015
552.007817	10748.319733
552.366022	10707.995543
552.724173	10704.433968
553.082267	10687.694817
553.440305	10826.346712
553.798288	10622.850455
554.156215	10780.328539
554.514086	10757.222410
554.871902	10606.060892
555.229661	10642.153033
555.587365	10622.164858
555.945014	10513.767447
556.302606	10639.642538
556.660143	10537.208813
557.017625	10687.231030
557.375050	10577.011243
557.732421	10720.290917
558.089735	10628.753646
558.446994	10636.353185
558.804197	10669.418113
559.161345	10668.341827
559.518437	10513.825420
559.875474	10601.987639
560.232455	10634.692125
560.589381	10589.803171
560.946251	10585.999620
561.303065	10686.000989
561.659825	10623.316761
562.016528	10559.717564
562.373177	10438.959245
562.729770	10548.455627
563.086307	10464.727102
563.442789	10555.621627
563.799216	10441.585686
564.155587	10483.215534
564.511904	10439.410428
564.868164	10430.275857
565.224370	10445.225399
565.580520	10364.574499
565.936615	10377.678978
566.292654	10246.248536
566.648638	10376.053206
567.004567	10332.817750
567.360441	10315.322426
567.716260	10221.443538
568.072023	10323.300052
568.427732	10270.420869
568.783385	10180.073309
569.138982	10256.368652
569.494525	10264.666392
569.850013	10145.944698
570.205445	10225.854548
570.560823	10121.169947
570.916145	10040.214058
571.271412	10113.401529
571.626625	10054.886336
571.981782	10035.009066
572.336884	10015.217496
572.691931	10013.024594
573.046923	9962.403848
573.401860	9914.260829
573.756743	9852.776396
574.111570	9895.631245
574.466342	9877.304130
574.821059	9905.045600
575.175722	9804.434251
575.530330	9809.054469
575.884882	9798.117685
576.239380	9727.859124
576.593823	9707.117297
576.948211	9718.089368
577.302544	9601.409342
577.656823	9614.135735
578.011047	9619.428946
578.365216	9592.821736
578.719330	9514.560343
579.073389	9523.601653
579.427394	9473.641298
579.781344	9453.562382
580.135239	9399.304443
580.489080	9410.568901
580.842866	9311.245568
581.196597	9310.050814
581.550273	9361.210964
581.903895	9325.703597
582.257463	9390.323627
582.610975	9270.266028
582.964434	9287.698338
583.317837	9219.809119
583.671186	9199.016880
584.024481	9192.922125
584.377721	9116.977142
584.730906	9092.739275
585.084037	9122.434191
585.437113	9054.550014
585.790135	9077.862830
586.143103	8982.320361
586.496016	8950.535886
586.848874	9008.642746
587.201679	9001.723763
587.554428	8884.090958
587.907124	8929.957896
588.259765	8901.656859
588.612352	8904.139627
588.964884	8782.189074
589.317362	8792.669633
589.669786	8796.142988
590.022155	8842.382972
590.374470	8858.106331
590.726731	8794.363461
591.078937	8651.403899
591.431090	8766.947146
591.783188	8638.710274
592.135232	8632.146692
592.487222	8620.236966
592.839157	8682.033950
593.191038	8606.769523
593.542866	8561.210095
593.894639	8460.523130
594.246358	8510.486005
594.598022	8531.709263
594.949633	8428.915095
595.301190	8399.835199
595.652692	8430.147657
596.004141	8538.106487
596.355535	8317.142632
596.706876	8296.410887
597.058162	8234.026608
597.409395	8312.787075
597.760573	8371.438379
598.111698	8278.635778
598.462768	8264.649097
598.813785	8229.476967
599.164748	8199.850105
599.515657	8186.060029
599.866511	8098.825382
600.217312	8223.425061
600.568060	8087.412210
600.918753	8185.946603
601.269392	8160.750916
601.619978	8064.522851
601.970510	8129.770505
602.320988	8134.093295
602.671412	8183.184051
603.021783	8124.477294
603.372100	8091.256090
603.722363	8103.312009
604.072572	8069.861433
604.422728	8080.561282
604.772830	8010.834562
605.122878	8023.802931
605.472872	8018.655913
605.822813	8050.863845
606.172701	7989.255903
606.522534	8064.548057
606.872314	8063.549908
607.222041	8032.652676
607.571714	8084.896674
607.921333	8044.212042
608.270899	8054.606901
608.620411	8140.172926
608.969870	8046.566261
609.319276	8039.251547
609.668627	8055.852066
610.017926	8094.883200
610.367171	8140.382134
610.716362	8116.958413
611.065500	8111.350129
611.414585	8135.454406
611.763616	8121.762632
612.112594	8103.475847
612.461518	8119.683156
612.810389	8178.210952
613.159207	8119.075697
613.507971	8070.909993
613.856682	8188.089093
614.205340	8143.260633
614.553945	8220.803661
614.902496	8122.486038
615.250994	8172.872371
615.599439	8155.064495
615.947830	8167.193511
616.296169	8141.513873
616.644454	8157.625401
616.992686	8149.337744
617.340864	8207.651291
617.688990	8111.566899
618.037063	8205.138276
618.385082	8151.729771
618.733048	8234.646670
619.080961	8173.013523
619.428821	8196.911113
619.776628	8200.208027
620.124382	8149.829256
620.472083	8140.518245
620.819731	8161.917943
621.167326	8059.529588
621.514868	8062.662665
621.862357	7951.585881
622.209793	7969.923078
622.557176	7909.633399
622.904506	7872.069241
623.251783	7803.426370
623.599007	7760.828620
623.946179	7769.726256
624.293297	7723.960141
624.640363	7647.112792
624.987376	7629.183928
625.334336	7577.577636
625.681243	7527.324894
626.028097	7508.884353
626.374899	7492.989595
626.721647	7484.497772
627.068343	7414.592091
627.414987	7383.851135
627.761577	7339.622572
628.108115	7379.122533
628.454600	7267.466016
628.801032	7327.062537
629.147412	7284.759695
629.493739	7269.399299
629.840014	7206.329423
630.186236	7269.822756
630.532405	7151.292626
630.878521	7195.654780
631.224585	7158.856877
631.570597	7084.613284
631.916556	7113.730989
632.262462	7111.245700
632.608316	7069.724236
632.954117	7048.357306
633.299866	7036.140069
633.645562	7024.376537
633.991206	6947.453570
634.336797	6894.899541
634.682336	6853.713314
635.027823	6821.137378
635.373257	6809.895605
635.718639	6741.414051
636.063968	6751.435865
636.409245	6648.886192
636.754470	6646.284957
637.099642	6607.483196
637.444762	6545.587909
637.789829	6557.119548
638.134845	6496.950857
638.479808	6484.363096
638.824719	6491.332491
639.169577	6420.776502
639.514383	6443.496982
639.859137	6369.323965
640.203839	6376.033741
640.548489	6364.144179
