Dividing Wavelength (nm)	Counts (n)	Blue Motor Position (mm): 37.500000	Red Motor Position (mm): 0.000000	
326.493990	2240.399675
326.888308	2240.399675
327.282561	2240.399675
327.676750	2199.047090
328.070874	2196.486183
328.464933	2196.564321
328.858929	2198.653880
329.252859	2203.571525
329.646726	2212.902701
330.040528	2227.456512
330.434265	2238.113511
330.827938	2257.753847
331.221547	2274.883688
331.615091	2290.234001
332.008571	2311.134625
332.401986	2329.557522
332.795338	2346.223576
333.188625	2369.102853
333.581847	2387.130019
333.975006	2404.317833
334.368100	2423.645617
334.761129	2443.724533
335.154095	2460.982923
335.546996	2487.053250
335.939833	2528.370547
336.332606	2540.514687
336.725315	2557.049671
337.117960	2568.326732
337.510540	2576.715212
337.903056	2588.327510
338.295508	2596.264807
338.687896	2610.538834
339.080220	2616.096706
339.472480	2623.401338
339.864676	2627.020887
340.256807	2632.394757
340.648875	2636.311733
341.040879	2637.695530
341.432818	2638.234933
341.824694	2645.350522
342.216506	2644.309524
342.608253	2643.812970
342.999937	2644.990079
343.391557	2647.924031
343.783113	2645.826911
344.174605	2642.567805
344.566033	2642.880357
344.957397	2641.773823
345.348697	2639.865747
345.739934	2639.885911
346.131106	2640.823566
346.522215	2632.971969
346.913260	2632.026752
347.304241	2632.034314
347.695159	2629.579272
348.086012	2628.140023
348.476802	2627.653551
348.867528	2621.591564
349.258191	2621.863786
349.648789	2621.740278
350.039324	2617.818260
350.429796	2619.852366
350.820203	2620.724485
351.210548	2618.100565
351.600828	2615.721140
351.991045	2615.718620
352.381198	2617.087293
352.771288	2615.766511
353.161314	2611.582353
353.551276	2611.247116
353.941175	2610.385079
354.331010	2611.453803
354.720782	2610.538834
355.110490	2610.100254
355.500135	2615.214504
355.889717	2611.053032
356.279235	2609.815428
356.668689	2612.693927
357.058080	2612.048660
357.447408	2610.947167
357.836672	2613.182919
358.225873	2609.633947
358.615010	2613.356839
359.004084	2610.954729
359.393095	2616.457149
359.782043	2614.614607
360.170927	2615.781634
360.559748	2615.053187
360.948505	2615.325410
361.337199	2617.972015
361.725830	2617.752725
362.114398	2617.520832
362.502903	2616.835235
362.891344	2619.471759
363.279722	2618.529063
363.668037	2618.327417
364.056289	2619.333127
364.444478	2621.702469
364.832603	2622.718262
365.220665	2622.766153
365.608665	2620.091821
365.996601	2625.057357
366.384474	2622.161214
366.772284	2624.893520
367.160031	2623.602984
367.547715	2626.839405
367.935336	2627.552728
368.322893	2623.802110
368.710388	2621.977212
369.097820	2621.644496
369.485189	2619.943107
369.872495	2625.647172
370.259738	2627.250259
370.646918	2630.063223
371.034035	2629.811165
371.421090	2625.916874
371.808081	2629.778398
372.195010	2630.000208
372.581875	2630.527009
372.968678	2630.395939
373.355418	2631.421814
373.742096	2632.339304
374.128710	2632.019191
374.515262	2631.719242
374.901751	2632.314098
375.288177	2635.744603
375.674540	2632.775364
376.060841	2635.434572
376.447079	2633.229067
376.833254	2636.173101
377.219367	2636.102525
377.605417	2637.340128
377.991404	2635.537916
378.377329	2640.188380
378.763191	2638.252577
379.148991	2638.124028
379.534727	2640.001858
379.920402	2639.349028
380.306013	2639.591004
380.691563	2642.041004
381.077049	2641.269708
381.462474	2641.683082
381.847835	2641.035294
382.233134	2643.870943
382.618371	2645.733650
383.003545	2643.041673
383.388657	2644.836324
383.773706	2647.780358
384.158693	2647.157776
384.543618	2646.273053
384.928480	2648.047539
385.313280	2647.195584
385.698017	2649.648106
386.082692	2649.834628
386.467305	2648.365132
386.851856	2651.044505
387.236344	2652.362767
387.620770	2650.245482
388.005133	2646.293218
388.389435	2649.270019
388.773674	2645.345481
389.157851	2654.774959
389.541965	2656.073056
389.926018	2655.584064
390.310008	2655.904177
390.693936	2658.376863
391.077802	2659.206133
391.461606	2657.792090
391.845348	2656.599857
392.229027	2659.319559
392.612645	2658.858294
392.996200	2663.407935
393.379694	2662.934067
393.763125	2665.174859
394.146494	2668.139058
394.529801	2673.210459
394.913047	2671.660304
395.296230	2680.996521
395.679351	2685.142870
396.062410	2691.492203
396.445408	2700.397401
396.828343	2711.210676
397.211217	2729.386557
397.594028	2739.667990
397.976778	2762.045672
398.359466	2787.082562
398.742092	2813.462920
399.124656	2840.796057
399.507158	2880.064124
399.889598	2924.905188
400.271977	2985.288129
400.654294	3032.947197
401.036549	3091.480034
401.418742	3133.694657
401.800874	3226.530025
402.182944	3299.152888
402.564952	3393.450191
402.946898	3478.176864
403.328783	3504.426152
403.710606	3578.974735
404.092367	3751.157865
404.474067	3841.026515
404.855705	3883.299110
405.237282	3935.028910
405.618797	4115.497177
406.000250	4195.580947
406.381642	4362.175958
406.762972	4455.734732
407.144240	4569.657248
407.525447	4646.968383
407.906593	4743.385491
408.287677	4918.404271
408.668700	4953.893994
409.049661	5111.437613
409.430560	5198.150500
409.811399	5181.595351
410.192176	5440.526657
410.572891	5519.350138
410.953545	5747.691722
411.334138	5626.207476
411.714669	5826.381613
412.095139	5736.429785
412.475547	5987.753989
412.855894	6105.066680
413.236180	6312.124513
413.616405	6112.842660
413.996568	6350.170101
414.376670	6418.863384
414.756711	6381.636983
415.136691	6517.763260
415.516609	6727.795374
415.896466	6773.730368
416.276262	6984.929508
416.655997	7003.609503
417.035670	7222.587144
417.415283	7558.310346
417.794834	7636.281873
418.174324	7538.312089
418.553753	7487.320818
418.933121	7816.699728
419.312428	7934.065351
419.691674	7740.858089
420.070859	8220.085297
420.449983	7931.408663
420.829045	8294.422152
421.208047	8097.146678
421.586988	8391.610557
421.965867	8417.529649
422.344686	8549.154176
422.723444	8574.637209
423.102141	7968.597255
423.480777	8717.011996
423.859352	8237.850323
424.237866	8867.543371
424.616319	8740.551664
424.994712	9145.315989
425.373044	8725.846618
425.751314	9182.229838
426.129524	9048.712358
426.507673	9179.293366
426.885762	9334.170215
427.263789	9245.042615
427.641756	9163.766612
428.019662	9269.086398
428.397508	9505.229167
428.775292	9204.219351
429.153016	9578.182225
429.530679	9412.141741
429.908282	9459.463052
430.285824	9174.287500
430.663305	9853.824956
431.040726	9305.448241
431.418086	9297.382394
431.795385	9619.925500
432.172624	9699.016162
432.549802	9620.122105
432.926920	9704.697543
433.303977	9584.526517
433.680974	9789.910687
434.057910	9872.109221
434.434786	9936.346124
434.811601	9785.066138
435.188355	10345.985244
435.565050	10079.139327
435.941683	10003.146453
436.318257	10497.091310
436.694770	10623.689807
437.071222	10700.829543
437.447614	10544.478156
437.823946	10438.175345
438.200218	10580.489639
438.576429	10385.157530
438.952580	10630.046702
439.328670	10685.862357
439.704700	10464.381783
440.080670	10454.420463
440.456580	11019.125476
440.832429	10773.399473
441.208218	10368.705725
441.583947	10695.957268
441.959616	10849.039466
442.335224	10646.715277
442.710773	10796.722371
443.086261	10995.941210
443.461689	10285.912334
443.837057	10928.230952
444.212365	11206.868128
444.587612	10847.844713
444.962800	11082.628891
445.337927	10848.379075
445.712995	10438.566035
446.088002	11516.082422
446.462949	11181.957266
446.837837	11158.619244
447.212664	11138.792386
447.587431	11654.691468
447.962139	12378.737271
448.336786	14642.885822
448.711374	15191.534759
449.085901	13042.841235
449.460369	12649.056543
449.834776	12096.520876
450.209124	12977.333961
450.583412	13381.374880
450.957640	14336.968442
451.331808	13475.112616
451.705917	12469.311683
452.079965	11774.083635
452.453954	12670.904904
452.827883	12302.452011
453.201752	12594.307092
453.575562	12114.853032
453.949311	12530.395344
454.323001	12492.044766
454.696632	12723.242163
455.070202	13009.206657
455.443713	13244.401689
455.817164	13710.506774
456.190556	13701.480588
456.563888	14061.353437
456.937160	14239.011261
457.310373	13574.246906
457.683526	13653.554338
458.056619	13199.789998
458.429653	13353.918236
458.802628	12780.766770
459.175542	13155.584120
459.548398	14107.941261
459.921194	14441.143886
460.293930	14508.589483
460.666607	15388.306118
461.039224	16434.653051
461.411782	17132.459649
461.784280	16992.481930
462.156719	17048.347997
462.529099	16728.083493
462.901419	15672.052503
463.273680	15462.083404
463.645882	15320.666436
464.018024	15060.195058
464.390106	15281.216886
464.762130	15997.106103
465.134094	16770.270389
465.505999	18779.981822
465.877845	22033.991177
466.249631	24869.234403
466.621358	24539.369022
466.993026	23109.165949
467.364634	22535.480121
467.736184	21063.329607
468.107674	20263.827813
468.479105	20389.929756
468.850477	19852.686429
469.221790	19451.075346
469.593043	18767.852806
469.964238	18210.956541
470.335373	17854.667952
470.706449	18303.023133
471.077467	17868.440384
471.448425	19711.677794
471.819324	23756.929013
472.190164	25754.123261
472.560945	22169.356240
472.931667	19810.890222
473.302330	19173.005300
473.672934	18727.919306
474.043479	19038.535041
474.413965	18847.213171
474.784393	18465.368452
475.154761	19173.098561
475.525070	19145.800713
475.895321	18828.485284
476.265513	19417.526467
476.635645	19999.532720
477.005719	19783.277302
477.375734	19962.492842
477.745691	20461.458688
478.115588	20977.156123
478.485427	21506.172287
478.855207	22573.324063
479.224928	24352.826165
479.594591	26567.818424
479.964194	26579.728150
480.333739	26793.518443
480.703226	26358.797062
481.072653	26045.005400
481.442022	26628.844112
481.811333	27544.443679
482.180584	27445.286703
482.549777	26504.751069
482.918912	26157.743244
483.287988	26288.725023
483.657005	25948.149711
484.025964	25707.356477
484.394864	25599.027122
484.763706	25293.331553
485.132489	24731.736932
485.501213	24900.499639
485.869879	24813.204498
486.238487	24635.476099
486.607036	24769.354022
486.975527	24493.055941
487.343959	24804.410206
487.712333	24748.138326
488.080648	24414.345886
488.448905	24886.969182
488.817104	24650.264324
489.185244	25339.574057
489.553326	25286.815861
489.921350	26294.328266
490.289315	28594.261447
490.657222	30364.815501
491.025070	30865.523065
491.392861	30639.664250
491.760593	29783.819999
492.128267	28894.280677
492.495883	27834.718359
492.863440	26962.634031
493.230939	26086.973005
493.598380	25937.749810
493.965763	25527.987182
494.333088	25077.189561
494.700354	25016.045406
495.067563	24888.983123
495.434713	24628.279852
495.801805	24785.077381
496.168839	24605.329999
496.535815	24434.381952
496.902733	24653.576362
497.269593	24329.263812
497.636395	24513.938921
498.003139	24472.485513
498.369825	24215.976482
498.736453	24420.952318
499.103023	24301.292969
499.469535	24297.383555
499.835989	24515.138716
500.202385	24540.120153
500.568723	24056.968407
500.935003	24277.067705
501.301226	23917.300719
501.667390	24758.540747
502.033497	24986.307639
502.399546	24715.224632
502.765537	24276.321614
503.131470	24656.961497
503.497345	24797.425687
503.863163	24019.749568
504.228923	24613.708397
504.594625	24819.546270
504.960269	24360.299675
505.325856	24849.951989
505.691385	24250.533591
506.056856	24859.666293
506.422270	24824.675644
506.787625	24380.308015
507.152924	24810.411699
507.518164	24831.849206
507.883347	24648.835157
508.248472	24322.455733
508.613540	25115.661126
508.978550	24918.602423
509.343503	24900.320678
509.708398	25139.069724
510.073236	25299.035618
510.438016	25516.314390
510.802738	25180.167731
511.167403	25433.974704
511.532010	25156.103783
511.896561	25919.861276
512.261053	25890.423458
512.625488	25709.652722
512.989866	25598.293634
513.354186	25448.273937
513.718449	25566.441103
514.082655	25944.782220
514.446803	25679.047877
514.810894	26150.249568
515.174927	25647.699462
515.538904	25664.897358
515.902822	26173.534658
516.266684	25913.897591
516.630488	25812.063763
516.994235	25773.650170
517.357925	26104.806087
517.721558	26270.644925
518.085133	26383.133232
518.448651	26276.671625
518.812112	26030.474274
519.175516	26239.026808
519.538863	26394.251497
519.902152	26176.035070
520.265385	26446.273684
520.628560	26247.644661
520.991678	26239.571253
521.354739	26304.529041
521.717743	26367.122527
522.080690	26166.734142
522.443580	26488.969737
522.806413	26487.343964
523.169189	26584.003048
523.531908	26628.503834
523.894569	26245.693734
524.257174	26340.255698
524.619722	26493.355540
524.982213	26195.161208
525.344647	26237.577477
525.707025	26388.764201
526.069345	26360.659768
526.431608	26313.691338
526.793815	26503.629412
527.155964	25971.757434
527.518057	26144.069114
527.880093	26084.954023
528.242072	26290.756608
528.603995	26013.573805
528.965860	25800.527082
529.327669	25850.747057
529.689421	25848.977612
530.051117	25684.504926
530.412755	25859.712749
530.774337	25642.030685
531.135862	25519.941500
531.497331	25724.866925
531.858743	25280.269923
532.220098	25754.929846
532.581396	25448.324348
532.942638	25364.394178
533.303824	25473.247813
533.664953	25490.480997
534.026025	25138.794981
534.387040	25383.971499
534.747999	25440.543327
535.108902	25601.381341
535.469748	25090.208341
535.830537	25273.388748
536.191270	25400.216617
536.551947	25266.232830
536.912567	24896.333125
537.273131	25280.935355
537.633638	24969.507994
537.994089	25179.388873
538.354483	24715.827050
538.714821	25207.702513
539.075103	25252.621715
539.435328	25028.421438
539.795497	24596.049235
540.155609	24987.119265
540.515665	25283.428206
540.875665	24504.380893
541.235609	24828.769061
541.595496	24771.304948
541.955328	25131.903724
542.315102	25047.580344
542.674821	24595.451858
543.034483	24457.515807
543.394090	24640.343333
543.753640	24430.354070
544.113134	25060.788167
544.472571	24651.930425
544.831953	24960.524658
545.191278	24592.565797
545.550548	24495.135417
545.909761	24692.403329
546.268918	24928.541057
546.628019	24897.366562
546.987064	24592.588483
547.346053	24351.044117
547.704986	24463.585356
548.063863	24610.429126
548.422684	24630.402178
548.781449	24141.027127
549.140158	24559.470622
549.498811	24134.072855
549.857408	23893.440938
550.215949	24304.269771
550.574434	23972.009841
550.932864	24196.799933
551.291237	24357.542164
551.649555	24212.702252
552.007817	24281.178766
552.366022	24130.937257
552.724173	24167.641899
553.082267	24122.425269
553.440305	24595.890438
553.798288	23853.527603
554.156215	24351.195351
554.514086	24460.205262
554.871902	23839.908925
555.229661	24120.335711
555.587365	23980.733558
555.945014	23862.558830
556.302606	24101.824594
556.660143	24056.975969
557.017625	24310.598939
557.375050	23825.584487
557.732421	24216.009249
558.089735	24029.297514
558.446994	24083.381533
558.804197	24126.521207
559.161345	24047.813672
559.518437	23809.634276
559.875474	24007.708772
560.232455	24175.811088
560.589381	23996.898018
560.946251	23987.682789
561.303065	24292.874243
561.659825	24390.317226
562.016528	23992.860054
562.373177	23735.393203
562.729770	24095.623975
563.086307	23960.236227
563.442789	24126.228820
563.799216	23963.381907
564.155587	23969.874913
564.511904	23948.117293
564.868164	23884.167736
565.224370	23854.190514
565.580520	23792.995948
565.936615	23916.327777
566.292654	23594.366924
566.648638	23867.471434
567.004567	23697.738305
567.360441	23654.366738
567.716260	23378.091342
568.072023	23691.842675
568.427732	23473.250683
568.783385	23243.754674
569.138982	23484.605882
569.494525	23511.399614
569.850013	23262.696810
570.205445	23356.830276
570.560823	23169.564013
570.916145	22926.252723
571.271412	23116.568883
571.626625	22862.598073
571.981782	22994.139421
572.336884	22787.681486
572.691931	22930.648609
573.046923	22652.132421
573.401860	22550.729611
573.756743	22554.896125
574.111570	22453.952060
574.466342	22380.941029
574.821059	22479.241008
575.175722	22171.241632
575.530330	22155.402327
575.884882	22170.891272
576.239380	22071.585582
576.593823	21973.189821
576.948211	21943.870470
577.302544	21797.291360
577.656823	21670.818892
578.011047	21773.401332
578.365216	21642.051548
578.719330	21506.608347
579.073389	21415.512177
579.427394	21556.472920
579.781344	21320.539359
580.135239	21213.369469
580.489080	21165.334835
580.842866	20942.319230
581.196597	21142.616875
581.550273	21125.953341
581.903895	20988.065180
582.257463	21312.982669
582.610975	20840.445072
582.964434	21162.141264
583.317837	20850.602997
583.671186	20938.344280
584.024481	20914.953326
584.377721	20679.221410
584.730906	20756.141856
585.084037	20758.392732
585.437113	20677.071358
585.790135	20881.943851
586.143103	20333.002526
586.496016	20360.040755
586.848874	20589.859397
587.201679	20521.841628
587.554428	20197.443378
587.907124	20538.686644
588.259765	20314.236831
588.612352	20378.861903
588.964884	19944.962229
589.317362	20113.704772
589.669786	20179.025523
590.022155	20187.673622
590.374470	20405.156561
590.726731	20186.877120
591.078937	19973.384255
591.431090	20058.131092
591.783188	19815.011365
592.135232	19782.357291
592.487222	19878.116529
592.839157	19894.901051
593.191038	19774.019223
593.542866	19665.011833
593.894639	19378.555827
594.246358	19600.739642
594.598022	19492.871552
594.949633	19240.876874
595.301190	19218.174038
595.652692	19390.929339
596.004141	19611.283215
596.355535	18947.648079
596.706876	18971.074321
597.058162	18854.217854
597.409395	19087.603112
597.760573	19151.943359
598.111698	18938.236244
598.462768	18868.572539
598.813785	18842.562706
599.164748	18631.935737
599.515657	18692.336322
599.866511	18483.917378
600.217312	18847.765177
600.568060	18358.790898
600.918753	18673.341254
601.269392	18570.133711
601.619978	18362.004633
601.970510	18554.289365
602.320988	18510.441408
602.671412	18709.395586
603.021783	18637.904463
603.372100	18340.534359
603.722363	18493.949274
604.072572	18435.739070
604.422728	18582.416482
604.772830	18340.297425
605.122878	18295.267318
605.472872	18280.920194
605.822813	18264.702802
606.172701	18243.575327
606.522534	18429.818235
606.872314	18452.664744
607.222041	18292.721536
607.571714	18500.790119
607.921333	18327.339139
608.270899	18405.819822
608.620411	18593.103729
608.969870	18359.176546
609.319276	18353.487604
609.668627	18387.185197
610.017926	18516.969703
610.367171	18629.306775
610.716362	18680.229991
611.065500	18502.173916
611.414585	18643.117016
611.763616	18620.071381
612.112594	18562.307320
612.461518	18529.227268
612.810389	18714.507316
613.159207	18585.146267
613.507971	18490.586824
613.856682	18757.246218
614.205340	18682.957255
614.553945	18832.613989
614.902496	18577.735771
615.250994	18806.173137
615.599439	18748.840094
615.947830	18735.009689
616.296169	18804.718764
616.644454	18760.903576
616.992686	18727.926868
617.340864	18948.081618
617.688990	18704.011634
618.037063	18871.526656
618.385082	18732.305110
618.733048	19008.663684
619.080961	18870.457931
619.428821	18915.051978
619.776628	18793.807187
620.124382	18727.800839
620.472083	18777.163817
620.819731	18789.718811
621.167326	18485.346545
621.514868	18504.059308
621.862357	18294.566598
622.209793	18293.954098
622.557176	18128.195918
622.904506	17956.756358
623.251783	17880.277013
623.599007	17627.800905
623.946179	17575.859376
624.293297	17508.658275
624.640363	17256.393895
624.987376	17281.440868
625.334336	17080.016525
625.681243	16928.681087
626.028097	16935.358095
626.374899	16857.941095
626.721647	16724.305148
627.068343	16557.150569
627.414987	16493.891650
627.761577	16468.302753
628.108115	16497.269223
628.454600	16227.867441
628.801032	16324.637430
629.147412	16257.408602
629.493739	16272.491735
629.840014	16084.991058
630.186236	16176.971952
630.532405	15942.651559
630.878521	16144.804349
631.224585	16044.687033
631.570597	15863.293715
631.916556	15893.064249
632.262462	15870.686567
632.608316	15779.320695
632.954117	15732.521143
633.299866	15727.182561
633.645562	15636.401463
633.991206	15403.701801
634.336797	15273.171205
634.682336	15244.474437
635.027823	15120.867865
635.373257	14991.814326
635.718639	14906.190328
636.063968	14850.732595
