Dividing Wavelength (nm)	Counts (n)	Blue Motor Position (mm): 46.800000	Red Motor Position (mm): 0.000000	
326.493990	2131.054527
326.888308	2131.054527
327.282561	2131.054527
327.676750	2097.722418
328.070874	2095.831985
328.464933	2098.957501
328.858929	2106.037801
329.252859	2115.182454
329.646726	2127.966820
330.040528	2143.075158
330.434265	2158.004536
330.827938	2172.704540
331.221547	2192.309588
331.615091	2212.857331
332.008571	2227.554815
332.401986	2249.466190
332.795338	2270.540733
333.188625	2287.839453
333.581847	2307.936013
333.975006	2323.334217
334.368100	2343.826508
334.761129	2362.151102
335.154095	2375.878164
335.546996	2399.354817
335.939833	2425.636873
336.332606	2438.890066
336.725315	2451.127467
337.117960	2462.835547
337.510540	2470.677062
337.903056	2480.779534
338.295508	2489.324290
338.687896	2495.734117
339.080220	2504.417504
339.472480	2510.371107
339.864676	2518.084073
340.256807	2520.380318
340.648875	2524.350227
341.040879	2527.059847
341.432818	2529.386339
341.824694	2528.756195
342.216506	2530.964221
342.608253	2528.655372
342.999937	2529.812317
343.391557	2529.895496
343.783113	2526.490197
344.174605	2527.402645
344.566033	2525.202182
344.957397	2526.129754
345.348697	2523.888961
345.739934	2523.258817
346.131106	2519.167921
346.522215	2521.176820
346.913260	2512.805984
347.304241	2515.795389
347.695159	2513.171468
348.086012	2510.575274
348.476802	2509.206601
348.867528	2510.562671
349.258191	2506.663338
349.648789	2508.682321
350.039324	2502.375837
350.429796	2503.663852
350.820203	2503.303409
351.210548	2501.596979
351.600828	2502.884994
351.991045	2499.686382
352.381198	2498.584889
352.771288	2502.524551
353.161314	2497.856443
353.551276	2499.043634
353.941175	2497.654797
354.331010	2500.893738
354.720782	2500.205620
355.110490	2501.541526
355.500135	2496.346617
355.889717	2497.448109
356.279235	2498.259735
356.668689	2500.596310
357.058080	2499.484735
357.447408	2496.850733
357.836672	2496.328973
358.225873	2499.812410
358.615010	2495.739158
359.004084	2503.361383
359.393095	2503.179901
359.782043	2502.753924
360.170927	2504.135200
360.559748	2501.992709
360.948505	2504.876249
361.337199	2509.035201
361.725830	2509.007475
362.114398	2508.825993
362.502903	2505.619820
362.891344	2508.788185
363.279722	2505.939933
363.668037	2507.409429
364.056289	2509.501508
364.444478	2510.565192
364.832603	2511.603669
365.220665	2511.714575
365.608665	2510.499657
365.996601	2509.352794
366.384474	2516.632220
366.772284	2513.453773
367.160031	2513.214318
367.547715	2514.341016
367.935336	2515.863444
368.322893	2514.323372
368.710388	2515.553413
369.097820	2520.629855
369.485189	2518.404186
369.872495	2519.145235
370.259738	2519.515760
370.646918	2519.737571
371.034035	2520.140863
371.421090	2522.232942
371.808081	2524.965248
372.195010	2529.383819
372.581875	2531.065044
372.968678	2537.709284
373.355418	2542.626930
373.742096	2552.174875
374.128710	2555.280226
374.515262	2563.676268
374.901751	2574.323185
375.288177	2585.068404
375.674540	2594.848243
376.060841	2607.902311
376.447079	2621.808333
376.833254	2635.384161
377.219367	2646.164668
377.605417	2669.822803
377.991404	2681.513239
378.377329	2702.882690
378.763191	2716.894577
379.148991	2748.096799
379.534727	2771.961621
379.920402	2794.311577
380.306013	2813.467962
380.691563	2853.905577
381.077049	2877.052035
381.462474	2901.526837
381.847835	2938.181067
382.233134	2965.844398
382.618371	2975.674648
383.003545	3038.129503
383.388657	3054.563665
383.773706	3090.247472
384.158693	3115.985083
384.543618	3148.361894
384.928480	3187.168696
385.313280	3236.929926
385.698017	3247.657501
386.082692	3306.601193
386.467305	3319.924962
386.851856	3356.153214
387.236344	3388.005745
387.620770	3423.457659
388.005133	3462.713124
388.389435	3493.973319
388.773674	3511.554343
389.157851	3560.929925
389.541965	3584.053697
389.926018	3556.206363
390.310008	3629.013228
390.693936	3653.266219
391.077802	3698.999567
391.461606	3691.644523
391.845348	3759.833691
392.229027	3763.672529
392.612645	3780.225158
392.996200	3856.197867
393.379694	3894.558527
393.763125	3964.325576
394.146494	3935.417079
394.529801	3998.010566
394.913047	4045.024367
395.296230	4017.900438
395.679351	4070.454467
396.062410	4096.156790
396.445408	4076.529058
396.828343	4113.528606
397.211217	4140.428203
397.594028	4058.980801
397.976778	4123.341212
398.359466	4151.972446
398.742092	4180.349101
399.124656	4100.562759
399.507158	4180.969163
399.889598	4207.357082
400.271977	4268.604581
400.654294	4241.374788
401.036549	4246.962908
401.418742	4215.344791
401.800874	4320.674659
402.182944	4343.480839
402.564952	4406.757402
402.946898	4394.804826
403.328783	4390.910535
403.710606	4302.518943
404.092367	4497.588912
404.474067	4460.634734
404.855705	4469.481959
405.237282	4397.123757
405.618797	4505.279192
406.000250	4543.440727
406.381642	4619.907469
406.762972	4587.893622
407.144240	4596.914766
407.525447	4593.416206
407.906593	4651.467613
408.287677	4689.082182
408.668700	4625.687152
409.049661	4678.107590
409.430560	4717.080751
409.811399	4645.297240
410.192176	4800.355571
410.572891	4745.222992
410.953545	4848.032283
411.334138	4726.006113
411.714669	4795.102689
412.095139	4687.796688
412.475547	4829.465714
412.855894	4811.075585
413.236180	4819.726205
413.616405	4777.506541
413.996568	4863.175910
414.376670	4804.320438
414.756711	4760.916104
415.136691	4788.944919
415.516609	4874.289133
415.896466	4911.651645
416.276262	4939.579637
416.655997	4924.274694
417.035670	5104.054843
417.415283	5198.531108
417.794834	5143.322911
418.174324	5089.730405
418.553753	4999.221528
418.933121	5183.074930
419.312428	5251.803501
419.691674	5187.823697
420.070859	5317.693902
420.449983	5228.248709
420.829045	5344.233057
421.208047	5249.320733
421.586988	5323.662628
421.965867	5337.392211
422.344686	5466.526408
422.723444	5326.528524
423.102141	5141.866018
423.480777	5440.352737
423.859352	5209.359506
424.237866	5466.294515
424.616319	5460.401406
424.994712	5565.451490
425.373044	5445.557728
425.751314	5589.714564
426.129524	5391.050252
426.507673	5586.785653
426.885762	5667.479403
427.263789	5602.403148
427.641756	5482.214478
428.019662	5600.371563
428.397508	5607.235094
428.775292	5558.812291
429.153016	5656.751827
429.530679	5580.002781
429.908282	5671.535011
430.285824	5540.283530
430.663305	5813.612371
431.040726	5542.630187
431.418086	5556.556374
431.795385	5657.429863
432.172624	5667.398744
432.549802	5658.307023
432.926920	5673.526267
433.303977	5687.404563
433.680974	5721.969235
434.057910	5735.373663
434.434786	5741.281895
434.811601	5712.922884
435.188355	5946.308143
435.565050	5817.463812
435.941683	5803.867820
436.318257	6016.475963
436.694770	6002.731257
437.071222	6038.115116
437.447614	5965.272963
437.823946	5878.993615
438.200218	6031.854003
438.576429	5895.082458
438.952580	5998.274877
439.328670	6041.296084
439.704700	5952.604544
440.080670	5936.056956
440.456580	6208.276743
440.832429	6093.167037
441.208218	5937.324807
441.583947	6088.854329
441.959616	6097.938489
442.335224	6022.038876
442.710773	6155.795811
443.086261	6186.093146
443.461689	5974.289067
443.837057	6128.520648
444.212365	6279.873731
444.587612	6177.903792
444.962800	6327.207645
445.337927	6313.157949
445.712995	5918.415438
446.088002	6500.545199
446.462949	6326.269990
446.837837	6258.519403
447.212664	6435.181599
447.587431	6577.001859
447.962139	7115.006401
448.336786	8044.532155
448.711374	7786.135212
449.085901	6860.274376
449.460369	6782.663292
449.834776	6713.463373
450.209124	7103.910821
450.583412	7253.537308
450.957640	7406.044815
451.331808	7175.205339
451.705917	6720.130299
452.079965	6641.440408
452.453954	6854.356062
452.827883	6732.614717
453.201752	6824.421690
453.575562	6621.684126
453.949311	6826.957390
454.323001	6715.575617
454.696632	6793.030425
455.070202	6929.305416
455.443713	7087.025476
455.817164	7187.268820
456.190556	7270.770493
456.563888	7340.189702
456.937160	7384.128399
457.310373	7043.341357
457.683526	7068.098464
458.056619	6959.166691
458.429653	6949.031451
458.802628	6882.702470
459.175542	6987.984447
459.548398	7345.361926
459.921194	7506.250351
460.293930	7506.154569
460.666607	8045.580715
461.039224	8350.341151
461.411782	8472.624419
461.784280	8486.840473
462.156719	8385.054536
462.529099	8262.867049
462.901419	7851.156014
463.273680	7742.907318
463.645882	7757.637569
464.018024	7621.438195
464.390106	7788.242414
464.762130	8176.527207
465.134094	8643.242271
465.505999	9667.781173
465.877845	10893.474717
466.249631	11545.313553
466.621358	11159.849286
466.993026	10528.759839
467.364634	10275.814903
467.736184	9914.764944
468.107674	9577.438655
468.479105	9614.513821
468.850477	9374.386019
469.221790	9141.194845
469.593043	8818.283736
469.964238	8676.982714
470.335373	8691.292029
470.706449	8744.929906
471.077467	8733.310047
471.448425	10036.836485
471.819324	11107.380957
472.190164	11136.692746
472.560945	9886.146314
472.931667	9097.452753
473.302330	8963.486611
473.672934	8614.011141
474.043479	8967.307805
474.413965	8903.378413
474.784393	8786.622769
475.154761	8945.877860
475.525070	9034.171149
475.895321	8866.527578
476.265513	9039.368579
476.635645	9207.241523
477.005719	9210.911483
477.375734	9325.174276
477.745691	9563.779649
478.115588	9694.572385
478.485427	9935.030383
478.855207	10475.326128
479.224928	11294.380038
479.594591	11928.010227
479.964194	11732.040412
480.333739	11671.407934
480.703226	11589.093453
481.072653	11676.063440
481.442022	11913.375757
481.811333	12096.944333
482.180584	11910.267886
482.549777	11619.030346
482.918912	11444.429982
483.287988	11464.324896
483.657005	11468.599794
484.025964	11156.499439
484.394864	11283.914602
484.763706	11259.167578
485.132489	11015.957111
485.501213	10978.400515
485.869879	11047.187059
486.238487	10897.212732
486.607036	11007.835812
486.975527	10784.752152
487.343959	10980.099384
487.712333	11026.430108
488.080648	10952.461258
488.448905	11005.363126
488.817104	10938.235122
489.185244	11209.630680
489.553326	11361.119874
489.921350	11900.631720
490.289315	12963.561529
490.657222	13302.160709
491.025070	13214.721896
491.392861	13082.789859
491.760593	12700.569574
492.128267	12349.556552
492.495883	12024.727284
492.863440	11690.387878
493.230939	11355.118380
493.598380	11279.727924
493.965763	11153.875518
494.333088	11050.859540
494.700354	10970.115378
495.067563	11032.330779
495.434713	10860.213183
495.801805	10987.151958
496.168839	10914.652604
496.535815	10845.843374
496.902733	10849.379744
497.269593	10785.336925
497.636395	10885.739066
498.003139	10871.696932
498.369825	10736.853628
498.736453	10897.991590
499.103023	10826.127422
499.469535	10857.435508
499.835989	10840.678712
500.202385	10803.583382
500.568723	10652.663838
500.935003	10880.231605
501.301226	10686.358911
501.667390	10948.970259
502.033497	11040.673888
502.399546	10894.372042
502.765537	10808.470780
503.131470	10876.518796
503.497345	11054.065713
503.863163	10667.038689
504.228923	10976.389094
504.594625	11041.984588
504.960269	10789.664756
505.325856	11008.564259
505.691385	10795.172217
506.056856	10955.082658
506.422270	10972.698970
506.787625	10874.250276
507.152924	10987.116670
507.518164	10965.348968
507.883347	10881.910310
508.248472	10802.426437
508.613540	11035.705831
508.978550	10926.282546
509.343503	10903.317569
509.708398	11010.744558
510.073236	11127.175047
510.438016	11136.629731
510.802738	11085.610734
511.167403	11136.095369
511.532010	11039.350585
511.896561	11267.611511
512.261053	11338.064157
512.625488	11210.621267
512.989866	11192.016888
513.354186	11178.115907
513.718449	11083.710219
514.082655	11273.192068
514.446803	11175.010556
514.810894	11289.359049
515.174927	11151.216310
515.538904	11184.243429
515.902822	11328.639719
516.266684	11223.274563
516.630488	11159.902218
516.994235	11219.435724
517.357925	11280.738676
517.721558	11364.351253
518.085133	11380.765250
518.448651	11394.376366
518.812112	11271.979671
519.175516	11286.354521
519.538863	11410.923953
519.902152	11326.247692
520.265385	11487.967907
520.628560	11395.167827
520.991678	11372.931297
521.354739	11446.895106
521.717743	11377.909437
522.080690	11356.134172
522.443580	11487.458751
522.806413	11449.655138
523.169189	11475.475928
523.531908	11534.606142
523.894569	11352.743997
524.257174	11357.941426
524.619722	11476.768984
524.982213	11419.496435
525.344647	11480.925415
525.707025	11420.426528
526.069345	11521.695747
526.431608	11436.996801
526.793815	11549.840509
527.155964	11337.217243
527.518057	11379.666279
527.880093	11333.965698
528.242072	11402.043961
528.603995	11309.735392
528.965860	11230.332178
529.327669	11281.792277
529.689421	11229.918804
530.051117	11201.045595
530.412755	11304.699280
530.774337	11195.349091
531.135862	11175.343272
531.497331	11206.926101
531.858743	11048.238140
532.220098	11218.886238
532.581396	11089.106774
532.942638	11071.046840
533.303824	11037.813033
533.664953	11044.782429
534.026025	10966.460542
534.387040	11062.610469
534.747999	11062.532331
535.108902	11124.210849
535.469748	10882.890814
535.830537	10983.013171
536.191270	10970.077570
536.551947	10989.700261
536.912567	10988.906279
537.273131	10910.276882
537.633638	10893.197453
537.994089	10882.169929
538.354483	10824.995683
538.714821	10972.583023
539.075103	10979.544857
539.435328	10946.159815
539.795497	10774.261510
540.155609	10935.500296
540.515665	11016.688078
540.875665	10752.637481
541.235609	10817.050824
541.595496	10816.851699
541.955328	10976.716769
542.315102	10856.765034
542.674821	10806.983640
543.034483	10796.314038
543.394090	10813.645525
543.753640	10739.568290
544.113134	10961.237907
544.472571	10813.821965
544.831953	10959.171033
545.191278	10766.046950
545.550548	10796.276229
545.909761	10930.144070
546.268918	10901.898485
546.628019	10985.674900
546.987064	10849.087357
547.346053	10773.737230
547.704986	10879.195648
548.063863	10857.616989
548.422684	10854.196566
548.781449	10762.266085
549.140158	10868.952024
549.498811	10753.738973
549.857408	10604.742630
550.215949	10835.022538
550.574434	10688.781185
550.932864	10784.091760
551.291237	10847.360762
551.649555	10793.690117
552.007817	10802.519698
552.366022	10761.925807
552.724173	10767.622311
553.082267	10745.715977
553.440305	10885.981041
553.798288	10684.286997
554.156215	10836.083701
554.514086	10815.309106
554.871902	10662.438636
555.229661	10697.283091
555.587365	10677.254587
555.945014	10570.049409
556.302606	10692.143635
556.660143	10590.032543
557.017625	10743.255894
557.375050	10638.092383
557.732421	10774.813517
558.089735	10685.156596
558.446994	10690.873264
558.804197	10722.917358
559.161345	10727.335930
559.518437	10574.735162
559.875474	10666.605149
560.232455	10693.731598
560.589381	10638.533484
560.946251	10643.383074
561.303065	10747.036759
561.659825	10681.952942
562.016528	10613.176480
562.373177	10494.734571
562.729770	10605.397980
563.086307	10528.341423
563.442789	10610.955852
563.799216	10494.694242
564.155587	10544.770543
564.511904	10501.716569
564.868164	10490.850362
565.224370	10501.787145
565.580520	10424.125649
565.936615	10431.473131
566.292654	10303.009408
566.648638	10436.536970
567.004567	10389.651719
567.360441	10378.097394
567.716260	10285.569536
568.072023	10379.014884
568.427732	10333.435292
568.783385	10237.592875
569.138982	10308.786570
569.494525	10326.087810
569.850013	10209.551457
570.205445	10284.127766
570.560823	10178.876035
570.916145	10101.179252
571.271412	10161.189147
571.626625	10109.141754
571.981782	10089.330020
572.336884	10062.170803
572.691931	10064.464528
573.046923	10011.592907
573.401860	9964.942069
573.756743	9897.491431
574.111570	9949.190984
574.466342	9932.429147
574.821059	9962.786976
575.175722	9848.156178
575.530330	9864.625628
575.884882	9858.873672
576.239380	9784.151169
576.593823	9758.368187
576.948211	9774.026011
577.302544	9654.044029
577.656823	9669.434672
578.011047	9673.286113
578.365216	9646.409202
578.719330	9567.058919
579.073389	9581.085930
579.427394	9530.215647
579.781344	9501.791101
580.135239	9456.750912
580.489080	9467.576789
580.842866	9365.735399
581.196597	9376.858705
581.550273	9414.319520
581.903895	9375.933654
582.257463	9447.271022
582.610975	9326.611004
582.964434	9347.831742
583.317837	9275.526472
583.671186	9250.164427
584.024481	9247.777441
584.377721	9165.442795
584.730906	9136.471284
585.084037	9172.581069
585.437113	9110.557233
585.790135	9128.695304
586.143103	9032.373978
586.496016	8999.311570
586.848874	9060.483452
587.201679	9053.261999
587.554428	8933.075850
587.907124	8985.972677
588.259765	8948.882388
588.612352	8957.399417
588.964884	8828.038368
589.317362	8844.217952
589.669786	8838.211417
590.022155	8895.879696
590.374470	8910.478878
590.726731	8852.293880
591.078937	8696.749078
591.431090	8814.424732
591.783188	8683.853807
592.135232	8678.658898
592.487222	8684.022685
592.839157	8728.009273
593.191038	8664.107607
593.542866	8607.777754
593.894639	8504.343359
594.246358	8558.772698
594.598022	8578.879340
594.949633	8470.401271
595.301190	8447.895039
595.652692	8477.055594
596.004141	8590.577337
596.355535	8363.067543
596.706876	8344.884102
597.058162	8281.627703
597.409395	8358.782563
597.760573	8418.966378
598.111698	8333.380188
598.462768	8317.442581
598.813785	8275.366590
599.164748	8247.151252
599.515657	8227.485711
599.866511	8147.903536
600.217312	8275.091847
600.568060	8128.109445
600.918753	8234.616423
601.269392	8205.942340
601.619978	8118.465718
601.970510	8181.742281
602.320988	8179.587187
602.671412	8234.654232
603.021783	8172.373296
603.372100	8146.023185
603.722363	8145.758525
604.072572	8117.901108
604.422728	8129.715052
604.772830	8061.185607
605.122878	8067.257677
605.472872	8063.272645
605.822813	8088.864062
606.172701	8037.214921
606.522534	8110.644367
606.872314	8114.004297
607.222041	8078.869975
607.571714	8139.172257
607.921333	8094.719362
608.270899	8096.864373
608.620411	8191.643107
608.969870	8093.547294
609.319276	8090.114268
609.668627	8104.111032
610.017926	8140.339284
610.367171	8186.964916
610.716362	8165.224940
611.065500	8158.316039
611.414585	8182.579112
611.763616	8175.060231
612.112594	8151.767580
612.461518	8164.216709
612.810389	8230.545691
613.159207	8164.844333
613.507971	8118.453115
613.856682	8234.036690
614.205340	8192.731996
614.553945	8274.670911
614.902496	8167.349787
615.250994	8224.597130
615.599439	8202.322791
615.947830	8215.480203
616.296169	8195.048406
616.644454	8206.481743
616.992686	8203.998975
617.340864	8256.182479
617.688990	8161.234867
618.037063	8257.475535
618.385082	8199.774488
618.733048	8289.118858
619.080961	8229.839930
619.428821	8245.573371
619.776628	8251.108558
620.124382	8197.417749
620.472083	8180.726488
620.819731	8208.087351
621.167326	8104.980631
621.514868	8113.316179
621.862357	7999.988520
622.209793	8021.118516
622.557176	7952.997404
622.904506	7921.270903
623.251783	7852.552414
623.599007	7811.346022
623.946179	7815.177299
624.293297	7767.702233
624.640363	7686.128802
624.987376	7668.951070
625.334336	7617.629604
625.681243	7567.689413
626.028097	7557.145840
626.374899	7529.452261
626.721647	7527.793722
627.068343	7453.431661
627.414987	7428.261180
627.761577	7383.311732
628.108115	7418.952689
628.454600	7314.018552
628.801032	7365.990327
629.147412	7325.320818
629.493739	7316.060219
629.840014	7248.546566
630.186236	7311.245917
630.532405	7186.699170
630.878521	7239.651450
631.224585	7196.347938
631.570597	7121.877493
631.916556	7154.100549
632.262462	7154.123234
632.608316	7109.188909
632.954117	7091.121414
633.299866	7074.294042
633.645562	7068.905049
633.991206	6991.170456
634.336797	6933.487053
634.682336	6891.224540
635.027823	6855.273552
635.373257	6846.333065
635.718639	6780.167921
636.063968	6793.040507
636.409245	6687.302305
636.754470	6684.859866
637.099642	6644.729761
637.444762	6587.880669
637.789829	6599.379541
638.134845	6533.577360
638.479808	6524.188211
638.824719	6527.215424
639.169577	6456.278827
639.514383	6477.698690
639.859137	6401.766310
640.203839	6408.556745
640.548489	6395.847996
