Dividing Wavelength (nm)	Counts (n)	Blue Motor Position (mm): 8.600000	Red Motor Position (mm): 0.000000	
326.493990	2140.741104
326.888308	2140.741104
327.282561	2140.741104
327.676750	2108.195415
328.070874	2106.219283
328.464933	2110.436208
328.858929	2114.229676
329.252859	2123.714607
329.646726	2135.052162
330.040528	2146.109933
330.434265	2166.763540
330.827938	2180.782989
331.221547	2200.693026
331.615091	2220.839998
332.008571	2238.400857
332.401986	2258.411717
332.795338	2277.139604
333.188625	2297.946966
333.581847	2316.687456
333.975006	2335.052379
334.368100	2354.491068
334.761129	2370.287524
335.154095	2389.902654
335.546996	2406.677093
335.939833	2421.102355
336.332606	2437.614654
336.725315	2447.134873
337.117960	2458.394290
337.510540	2466.621453
337.903056	2479.181488
338.295508	2486.191213
338.687896	2490.798827
339.080220	2502.219561
339.472480	2509.483864
339.864676	2512.443021
340.256807	2516.236490
340.648875	2519.298991
341.040879	2523.573889
341.432818	2523.576410
341.824694	2527.372398
342.216506	2527.135464
342.608253	2526.293592
342.999937	2528.231915
343.391557	2527.435413
343.783113	2523.805782
344.174605	2524.282171
344.566033	2521.403672
344.957397	2519.833353
345.348697	2521.678415
345.739934	2520.387880
346.131106	2514.633403
346.522215	2515.757580
346.913260	2510.968484
347.304241	2511.931344
347.695159	2509.340191
348.086012	2509.292300
348.476802	2504.125117
348.867528	2502.829541
349.258191	2500.452637
349.648789	2499.414159
350.039324	2499.303254
350.429796	2499.925836
350.820203	2498.136227
351.210548	2497.730414
351.600828	2495.328304
351.991045	2493.029538
352.381198	2495.983654
352.771288	2491.290340
353.161314	2493.039620
353.551276	2492.880824
353.941175	2493.982316
354.331010	2492.711945
354.720782	2490.120792
355.110490	2491.053406
355.500135	2489.283961
355.889717	2494.156236
356.279235	2492.855618
356.668689	2497.032214
357.058080	2490.690443
357.447408	2493.931904
357.836672	2491.991060
358.225873	2490.811430
358.615010	2491.466780
359.004084	2495.469456
359.393095	2495.202275
359.782043	2496.903665
360.170927	2496.283603
360.559748	2499.938439
360.948505	2499.421721
361.337199	2500.044303
361.725830	2497.780825
362.114398	2501.337359
362.502903	2499.822493
362.891344	2501.002123
363.279722	2499.129334
363.668037	2501.385250
364.056289	2501.869201
364.444478	2501.539006
364.832603	2501.841475
365.220665	2504.409943
365.608665	2502.527072
365.996601	2504.316681
366.384474	2504.848523
366.772284	2502.832062
367.160031	2503.986486
367.547715	2504.626712
367.935336	2507.303565
368.322893	2508.188288
368.710388	2506.585201
369.097820	2507.638802
369.485189	2506.842299
369.872495	2506.567557
370.259738	2507.071672
370.646918	2505.176198
371.034035	2503.749552
371.421090	2507.051507
371.808081	2507.197701
372.195010	2509.990500
372.581875	2507.626199
372.968678	2510.126611
373.355418	2508.102588
373.742096	2508.694923
374.128710	2508.558812
374.515262	2509.551920
374.901751	2509.098216
375.288177	2510.159379
375.674540	2510.875222
376.060841	2509.299862
376.447079	2510.474451
376.833254	2510.628206
377.219367	2504.462875
377.605417	2509.221724
377.991404	2507.071672
378.377329	2509.423370
378.763191	2504.977072
379.148991	2512.125429
379.534727	2510.812208
379.920402	2513.413443
380.306013	2513.564678
380.691563	2511.860768
381.077049	2514.724143
381.462474	2512.894205
381.847835	2512.024606
382.233134	2513.912518
382.618371	2512.163237
383.003545	2514.358660
383.388657	2516.785975
383.773706	2512.695079
384.158693	2513.622651
384.543618	2514.411592
384.928480	2514.651047
385.313280	2517.219515
385.698017	2515.865965
386.082692	2517.832015
386.467305	2516.465862
386.851856	2516.110461
387.236344	2516.544000
387.620770	2516.788496
388.005133	2518.315966
388.389435	2516.339833
388.773674	2515.760101
389.157851	2514.366222
389.541965	2517.274967
389.926018	2517.506860
390.310008	2517.211953
390.693936	2517.350585
391.077802	2517.310255
391.461606	2519.578775
391.845348	2517.869823
392.229027	2520.518950
392.612645	2519.614063
392.996200	2520.183713
393.379694	2520.219001
393.763125	2519.798065
394.146494	2520.045081
394.529801	2520.430730
394.913047	2520.367715
395.296230	2518.653723
395.679351	2522.721934
396.062410	2520.859228
396.445408	2521.133971
396.828343	2520.367715
397.211217	2516.024761
397.594028	2519.419978
397.976778	2521.002901
398.359466	2520.433250
398.742092	2518.951151
399.124656	2522.865607
399.507158	2521.615401
399.889598	2525.232429
400.271977	2523.687315
400.654294	2521.436440
401.036549	2523.107582
401.418742	2525.199661
401.800874	2521.365864
402.182944	2521.774197
402.564952	2521.567510
402.946898	2523.914167
403.328783	2521.943076
403.710606	2523.541122
404.092367	2526.250742
404.474067	2526.714528
404.855705	2526.636390
405.237282	2526.374250
405.618797	2525.013138
406.000250	2524.680422
406.381642	2526.384332
406.762972	2527.707635
407.144240	2523.309228
407.525447	2528.519261
407.906593	2526.865762
408.287677	2527.962213
408.668700	2525.497089
409.049661	2526.664116
409.430560	2525.781914
409.811399	2526.893489
410.192176	2528.400794
410.572891	2525.872655
410.953545	2527.652183
411.334138	2529.824920
411.714669	2528.645290
412.095139	2528.685619
412.475547	2527.178314
412.855894	2527.143026
413.236180	2528.214271
413.616405	2529.885414
413.996568	2529.335928
414.376670	2528.718387
414.756711	2528.481452
415.136691	2529.971113
415.516609	2529.429189
415.896466	2526.306194
416.276262	2530.891124
416.655997	2526.706966
417.035670	2526.371729
417.415283	2527.584127
417.794834	2524.274609
418.174324	2529.827440
418.553753	2528.625125
418.933121	2530.775177
419.312428	2530.697039
419.691674	2530.460105
420.070859	2534.127545
420.449983	2530.704601
420.829045	2531.692667
421.208047	2530.507996
421.586988	2530.334076
421.965867	2534.253573
422.344686	2532.181659
422.723444	2530.124868
423.102141	2530.576052
423.480777	2531.591844
423.859352	2533.063861
424.237866	2532.128727
424.616319	2531.856505
424.994712	2531.304498
425.373044	2531.284334
425.751314	2531.400280
426.129524	2530.974303
426.507673	2530.878521
426.885762	2531.745599
427.263789	2533.671320
427.641756	2533.091588
428.019662	2533.951104
428.397508	2535.256763
428.775292	2533.479756
429.153016	2532.723583
429.530679	2538.851106
429.908282	2533.192411
430.285824	2534.853471
430.663305	2535.539068
431.040726	2534.427493
431.418086	2535.042514
431.795385	2535.584438
432.172624	2535.453368
432.549802	2535.745755
432.926920	2532.773995
433.303977	2536.058307
433.680974	2534.830786
434.057910	2539.796322
434.434786	2535.148378
434.811601	2535.425642
435.188355	2536.902700
435.565050	2534.520755
435.941683	2537.142155
436.318257	2534.296423
436.694770	2531.710311
437.071222	2533.169725
437.447614	2532.532019
437.823946	2533.830117
438.200218	2535.634850
438.576429	2536.590148
438.952580	2537.686599
439.328670	2535.781043
439.704700	2536.408667
440.080670	2536.517052
440.456580	2534.921526
440.832429	2538.919161
441.208218	2536.454037
441.583947	2535.624767
441.959616	2535.995292
442.335224	2538.513348
442.710773	2537.507638
443.086261	2538.886394
443.461689	2536.290200
443.837057	2537.361445
444.212365	2538.319264
444.587612	2539.088040
444.962800	2535.420601
445.337927	2539.652649
445.712995	2537.888245
446.088002	2539.292207
446.462949	2538.251208
446.837837	2541.961498
447.212664	2538.599048
447.587431	2536.290200
447.962139	2539.289686
448.336786	2540.933102
448.711374	2537.069058
449.085901	2539.622402
449.460369	2537.638708
449.834776	2537.951260
450.209124	2540.408822
450.583412	2539.942516
450.957640	2538.601569
451.331808	2537.704243
451.705917	2539.430838
452.079965	2538.160468
452.453954	2537.704243
452.827883	2539.945036
453.201752	2536.461599
453.575562	2539.272042
453.949311	2541.855633
454.323001	2538.120138
454.696632	2539.884542
455.070202	2539.723225
455.443713	2540.260108
455.817164	2536.819521
456.190556	2539.950077
456.563888	2541.563247
456.937160	2535.491177
457.310373	2541.008720
457.683526	2540.184491
458.056619	2544.265305
458.429653	2539.254398
458.802628	2541.991745
459.175542	2539.309851
459.548398	2543.022661
459.921194	2540.698689
460.293930	2541.621220
460.666607	2542.485778
461.039224	2541.366642
461.411782	2542.556354
461.784280	2539.783719
462.156719	2544.038453
462.529099	2542.127856
462.901419	2541.757331
463.273680	2542.485778
463.645882	2543.829245
464.018024	2543.020140
464.390106	2542.137938
464.762130	2542.826056
465.134094	2541.182639
465.505999	2543.156251
465.877845	2540.804553
466.249631	2543.839327
466.621358	2543.660367
466.993026	2543.970397
467.364634	2545.187836
467.736184	2543.960315
468.107674	2539.821528
468.479105	2541.787578
468.850477	2541.575849
469.221790	2544.010727
469.593043	2540.597866
469.964238	2543.579708
470.335373	2542.097609
470.706449	2542.344625
471.077467	2543.425953
471.448425	2541.699358
471.819324	2542.447969
472.190164	2543.118442
472.560945	2541.971580
472.931667	2542.823535
473.302330	2543.244471
473.672934	2543.529297
474.043479	2546.947199
474.413965	2543.292362
474.784393	2538.654501
475.154761	2541.911086
475.525070	2541.475026
475.895321	2542.987373
476.265513	2538.619213
476.635645	2542.579039
477.005719	2542.979811
477.375734	2545.354194
477.745691	2545.550799
478.115588	2547.786551
478.485427	2543.209183
478.855207	2544.585418
479.224928	2544.267826
479.594591	2545.560882
479.964194	2545.986859
480.333739	2544.582898
480.703226	2545.576005
481.072653	2543.728422
481.442022	2544.451828
481.811333	2543.781354
482.180584	2543.599873
482.549777	2543.350336
482.918912	2545.258412
483.287988	2543.262115
483.657005	2542.054759
484.025964	2546.702703
484.394864	2544.603062
484.763706	2545.132383
485.132489	2547.594987
485.501213	2547.874771
485.869879	2546.485933
486.238487	2544.328319
486.607036	2545.462579
486.975527	2546.440563
487.343959	2545.802857
487.712333	2545.674308
488.080648	2543.988042
488.448905	2546.748073
488.817104	2547.491643
489.185244	2547.007693
489.553326	2547.577343
489.921350	2547.572302
490.289315	2545.558361
490.657222	2548.739329
491.025070	2546.770758
491.392861	2545.233207
491.760593	2544.376210
492.128267	2548.618341
492.495883	2548.792261
492.863440	2547.786551
493.230939	2546.064997
493.598380	2547.910059
493.965763	2540.421425
494.333088	2544.199770
494.700354	2543.269677
495.067563	2547.083310
495.434713	2541.505273
495.801805	2547.582384
496.168839	2547.852086
496.535815	2547.685728
496.902733	2549.414844
497.269593	2548.368804
497.636395	2545.815460
498.003139	2547.174051
498.369825	2545.276056
498.736453	2548.013403
499.103023	2546.301931
499.469535	2547.665563
499.835989	2546.334699
500.202385	2548.255378
500.568723	2547.461397
500.935003	2548.351160
501.301226	2546.944678
501.667390	2546.392672
502.033497	2547.859648
502.399546	2548.686397
502.765537	2545.744884
503.131470	2546.238917
503.497345	2544.494677
503.863163	2549.757642
504.228923	2549.152704
504.594625	2548.520039
504.960269	2546.415357
505.325856	2549.097251
505.691385	2548.550286
506.056856	2546.243958
506.422270	2546.929555
506.787625	2549.679504
507.152924	2546.231355
507.518164	2549.029195
507.883347	2545.540717
508.248472	2547.983156
508.613540	2545.407126
508.978550	2548.555327
509.343503	2546.281767
509.708398	2549.573640
510.073236	2547.534493
510.438016	2548.719164
510.802738	2551.390976
511.167403	2549.682025
511.532010	2546.541386
511.896561	2545.389482
512.261053	2551.297715
512.625488	2546.617003
512.989866	2542.838658
513.354186	2545.540717
513.718449	2543.549461
514.082655	2546.664894
514.446803	2549.603887
514.810894	2548.741850
515.174927	2548.517518
515.538904	2548.759494
515.902822	2549.220759
516.266684	2548.693959
516.630488	2550.871737
516.994235	2550.218908
517.357925	2550.644885
517.721558	2550.387786
518.085133	2546.445604
518.448651	2548.920811
518.812112	2548.275543
519.175516	2551.484237
519.538863	2551.322920
519.902152	2551.506922
520.265385	2548.804864
520.628560	2546.730429
520.991678	2548.943496
521.354739	2549.256047
521.717743	2545.815460
522.080690	2548.257899
522.443580	2551.665719
522.806413	2549.997097
523.169189	2548.194884
523.531908	2548.386448
523.894569	2550.995245
524.257174	2548.303269
524.619722	2547.935265
524.982213	2551.453990
525.344647	2547.027857
525.707025	2550.410472
526.069345	2546.490974
526.431608	2551.741336
526.793815	2550.319731
527.155964	2550.191181
527.518057	2549.329144
527.880093	2549.356870
528.242072	2548.411654
528.603995	2550.591953
528.965860	2550.806202
529.327669	2553.498178
529.689421	2549.697148
530.051117	2550.465924
530.412755	2548.212528
530.774337	2551.012889
531.135862	2550.080276
531.497331	2549.253527
531.858743	2545.480223
532.220098	2547.499205
532.581396	2545.825542
532.942638	2547.123639
533.303824	2550.884340
533.664953	2550.108002
534.026025	2552.247972
534.387040	2552.280740
534.747999	2551.030533
535.108902	2555.496996
535.469748	2552.631100
535.830537	2553.389793
536.191270	2552.124464
536.551947	2553.180586
536.912567	2552.762170
537.273131	2554.856769
537.633638	2550.080276
537.994089	2552.121943
538.354483	2555.418858
538.714821	2554.186296
539.075103	2557.299208
539.435328	2553.856100
539.795497	2553.745195
540.155609	2556.595967
540.515665	2553.823333
540.875665	2556.727037
541.235609	2553.291491
541.595496	2553.987170
541.955328	2553.246121
542.315102	2554.352654
542.674821	2554.907181
543.034483	2555.474311
543.394090	2556.376677
543.753640	2556.727037
544.113134	2555.128992
544.472571	2556.414486
544.831953	2554.617314
545.191278	2557.952038
545.550548	2555.189485
545.909761	2557.326935
546.268918	2554.864331
546.628019	2555.287788
546.987064	2555.255020
547.346053	2555.658313
547.704986	2558.509085
548.063863	2556.124619
548.422684	2557.163097
548.781449	2556.623694
549.140158	2557.798283
549.498811	2558.357851
549.857408	2557.016904
550.215949	2557.465566
550.574434	2555.106306
550.932864	2554.423230
551.291237	2553.286450
551.649555	2558.395659
552.007817	2558.947666
552.366022	2555.590257
552.724173	2559.124106
553.082267	2555.764177
553.440305	2556.873231
553.798288	2557.838612
554.156215	2554.803837
554.514086	2559.890361
554.871902	2555.703683
555.229661	2559.174518
555.587365	2555.663354
555.945014	2556.618653
556.302606	2560.762481
556.660143	2559.086297
557.017625	2558.390618
557.375050	2555.920453
557.732421	2556.938766
558.089735	2559.383725
558.446994	2559.469425
558.804197	2558.887172
559.161345	2557.568910
559.518437	2555.600339
559.875474	2555.842315
560.232455	2558.219219
560.589381	2558.004970
560.946251	2560.465053
561.303065	2558.821637
561.659825	2556.686708
562.016528	2557.838612
562.373177	2557.536143
562.729770	2556.482541
563.086307	2559.262738
563.442789	2558.554456
563.799216	2559.537481
564.155587	2556.822819
564.511904	2559.464384
564.868164	2556.210319
565.224370	2558.796431
565.580520	2557.594116
565.936615	2559.025803
566.292654	2558.385577
566.648638	2558.650237
567.004567	2555.360885
567.360441	2559.784497
567.716260	2557.977243
568.072023	2555.255020
568.427732	2552.563044
568.783385	2556.520350
569.138982	2553.649413
569.494525	2553.568754
569.850013	2551.020451
570.205445	2555.970864
570.560823	2557.052192
570.916145	2556.633776
571.271412	2555.123950
571.626625	2556.999260
571.981782	2560.054199
572.336884	2558.030176
572.691931	2556.595967
573.046923	2556.008673
573.401860	2556.969013
573.756743	2554.335010
574.111570	2557.773077
574.466342	2556.321224
574.821059	2556.132181
575.175722	2557.979764
575.530330	2555.413817
575.884882	2556.953889
576.239380	2557.631924
576.593823	2556.439692
576.948211	2556.144784
577.302544	2554.405586
577.656823	2557.437840
578.011047	2559.754250
578.365216	2555.401214
578.719330	2552.535318
579.073389	2556.868190
579.427394	2554.758467
579.781344	2556.447253
580.135239	2554.461039
580.489080	2554.070349
580.842866	2557.747871
581.196597	2556.205278
581.550273	2554.082952
581.903895	2554.513971
582.257463	2558.372974
582.610975	2554.279557
582.964434	2556.938766
583.317837	2558.723334
583.671186	2556.943807
584.024481	2553.757798
584.377721	2555.983467
584.730906	2552.903322
585.084037	2554.695452
585.437113	2553.389793
585.790135	2555.698642
586.143103	2555.166800
586.496016	2556.341389
586.848874	2548.638506
587.201679	2553.800647
587.554428	2550.173537
587.907124	2552.328631
588.259765	2548.840152
588.612352	2556.580844
588.964884	2555.491955
589.317362	2555.801986
589.669786	2552.111861
590.022155	2554.529094
590.374470	2550.768393
590.726731	2555.098745
591.078937	2553.135215
591.431090	2555.297870
591.783188	2554.786193
592.135232	2556.860628
592.487222	2553.997252
592.839157	2554.403065
593.191038	2552.605894
593.542866	2554.415668
593.894639	2554.173693
594.246358	2554.834084
594.598022	2554.975236
594.949633	2555.774259
595.301190	2553.140256
595.652692	2554.705535
596.004141	2553.445246
596.355535	2556.248128
596.706876	2552.414330
597.058162	2553.893909
597.409395	2551.234700
597.760573	2555.991029
598.111698	2554.198899
598.462768	2553.422561
598.813785	2556.401883
599.164748	2555.207129
599.515657	2552.169834
599.866511	2554.473642
600.217312	2550.743188
600.568060	2556.096893
600.918753	2555.108827
601.269392	2551.358208
601.619978	2551.900133
601.970510	2555.335679
602.320988	2557.372305
602.671412	2554.738302
603.021783	2552.764690
603.372100	2554.768549
603.722363	2553.152859
604.072572	2553.236038
604.422728	2555.872562
604.772830	2550.208825
605.122878	2552.646223
605.472872	2551.108671
605.822813	2547.272353
606.172701	2552.321069
606.522534	2554.461039
606.872314	2556.893395
607.222041	2553.790565
607.571714	2552.575647
607.921333	2556.321224
608.270899	2554.645041
608.620411	2554.609753
608.969870	2554.100596
609.319276	2557.586554
609.668627	2559.792059
610.017926	2561.127965
610.367171	2562.736093
610.716362	2560.402038
611.065500	2561.669889
611.414585	2560.051678
611.763616	2559.063612
612.112594	2558.824157
612.461518	2556.802655
612.810389	2556.802655
613.159207	2557.135371
613.507971	2556.280895
613.856682	2556.255689
614.205340	2559.177038
614.553945	2556.643858
614.902496	2554.697973
615.250994	2557.826009
615.599439	2556.487583
615.947830	2556.447253
616.296169	2556.936245
616.644454	2557.672254
616.992686	2556.003632
617.340864	2559.257697
617.688990	2553.354505
618.037063	2559.108982
618.385082	2555.723848
618.733048	2558.509085
619.080961	2556.391801
619.428821	2558.010011
619.776628	2555.277706
620.124382	2556.099414
620.472083	2555.746533
620.819731	2556.212840
621.167326	2556.749723
621.514868	2557.682336
621.862357	2558.042778
622.209793	2553.808209
622.557176	2559.449260
622.904506	2556.253169
623.251783	2556.716955
623.599007	2554.312325
623.946179	2553.533466
624.293297	2553.757798
624.640363	2559.056050
624.987376	2558.670402
625.334336	2555.877603
625.681243	2558.173848
626.028097	2558.587223
626.374899	2555.756615
626.721647	2555.476831
627.068343	2556.255689
627.414987	2556.898437
627.761577	2556.071687
628.108115	2557.659651
628.454600	2557.268961
628.801032	2558.577141
629.147412	2556.485062
629.493739	2557.281564
629.840014	2557.702501
630.186236	2558.388097
630.532405	2559.081256
630.878521	2558.844322
631.224585	2559.610577
631.570597	2555.529763
631.916556	2560.079405
632.262462	2555.935576
632.608316	2556.747202
632.954117	2560.616287
633.299866	2559.696277
633.645562	2557.087480
633.991206	2559.398849
634.336797	2557.669733
634.682336	2558.619991
635.027823	2558.967830
635.373257	2557.513457
635.718639	2558.151163
636.063968	2558.141081
636.409245	2558.738458
636.754470	2559.146791
637.099642	2558.761143
637.444762	2558.499003
637.789829	2559.915567
638.134845	2558.511606
638.479808	2557.374826
638.824719	2560.701987
639.169577	2557.203426
639.514383	2558.894733
639.859137	2559.756771
640.203839	2559.587892
640.548489	2560.752399
640.893086	2557.004301
641.237632	2553.967006
641.582125	2560.086966
641.926566	2557.694939
642.270955	2560.240722
642.615292	2560.641493
642.959576	2561.233829
643.303809	2562.937739
643.647990	2563.184755
643.992118	2560.563355
644.336195	2563.424210
