Dividing Wavelength (nm)	Counts (n)	Blue Motor Position (mm): 35.000000	Red Motor Position (mm): 0.000000	
326.493990	2153.419606
326.888308	2153.419606
327.282561	2153.419606
327.676750	2129.043107
328.070874	2130.772223
328.464933	2136.677934
328.858929	2144.915180
329.252859	2158.180976
329.646726	2171.282935
330.040528	2187.374298
330.434265	2205.015816
330.827938	2222.647251
331.221547	2243.099213
331.615091	2263.324322
332.008571	2280.476848
332.401986	2301.889149
332.795338	2321.910091
333.188625	2339.939778
333.581847	2362.206554
333.975006	2383.399565
334.368100	2398.109652
334.761129	2418.309556
335.154095	2433.488470
335.546996	2457.098714
335.939833	2490.849239
336.332606	2502.658142
336.725315	2515.412261
337.117960	2521.504495
337.510540	2531.518748
337.903056	2539.738349
338.295508	2549.722354
338.687896	2551.693445
339.080220	2563.015877
339.472480	2568.125086
339.864676	2568.790518
340.256807	2572.881415
340.648875	2575.699420
341.040879	2576.810994
341.432818	2580.337281
341.824694	2582.081521
342.216506	2580.606983
342.608253	2581.380800
342.999937	2579.054308
343.391557	2577.713361
343.783113	2578.146900
344.174605	2573.209090
344.566033	2573.440983
344.957397	2571.048955
345.348697	2569.876887
345.739934	2568.402350
346.131106	2567.963769
346.522215	2568.319171
346.913260	2563.928326
347.304241	2561.526216
347.695159	2560.717111
348.086012	2561.190979
348.476802	2557.127809
348.867528	2556.227963
349.258191	2556.396842
349.648789	2552.774773
350.039324	2553.167983
350.429796	2555.431461
350.820203	2551.403579
351.210548	2550.168496
351.600828	2547.257230
351.991045	2547.839483
352.381198	2547.665563
352.771288	2549.898794
353.161314	2549.122457
353.551276	2546.337219
353.941175	2550.692776
354.331010	2548.043650
354.720782	2547.723537
355.110490	2549.810574
355.500135	2549.853424
355.889717	2549.437529
356.279235	2549.462735
356.668689	2550.339895
357.058080	2550.670091
357.447408	2548.124308
357.836672	2548.061294
358.225873	2546.284287
358.615010	2546.811088
359.004084	2553.225956
359.393095	2550.037426
359.782043	2552.099258
360.170927	2555.121430
360.559748	2554.362736
360.948505	2553.246121
361.337199	2556.122099
361.725830	2557.394990
362.114398	2556.290977
362.502903	2556.608570
362.891344	2555.461708
363.279722	2560.477656
363.668037	2559.086297
364.056289	2557.427758
364.444478	2560.835578
364.832603	2559.277861
365.220665	2561.609395
365.608665	2559.340876
365.996601	2560.323901
366.384474	2559.958417
366.772284	2561.289282
367.160031	2561.387584
367.547715	2562.562173
367.935336	2561.513613
368.322893	2560.533108
368.710388	2562.060578
369.097820	2564.742472
369.485189	2562.910013
369.872495	2562.526885
370.259738	2561.014539
370.646918	2562.161401
371.034035	2565.143244
371.421090	2566.040569
371.808081	2564.245918
372.195010	2563.141906
372.581875	2565.518810
372.968678	2568.044428
373.355418	2564.389591
373.742096	2567.719273
374.128710	2566.650549
374.515262	2566.181721
374.901751	2567.336146
375.288177	2567.900755
375.674540	2566.592575
376.060841	2564.724828
376.447079	2565.889334
376.833254	2571.439645
377.219367	2563.993861
377.605417	2567.603327
377.991404	2565.662482
378.377329	2565.007133
378.763191	2563.656103
379.148991	2569.836558
379.534727	2569.481157
379.920402	2570.927968
380.306013	2572.523493
380.691563	2569.188770
381.077049	2570.078533
381.462474	2568.989644
381.847835	2571.737073
382.233134	2570.481826
382.618371	2572.654563
383.003545	2571.308575
383.388657	2572.722618
383.773706	2573.080540
384.158693	2574.267732
384.543618	2572.621795
384.928480	2574.290417
385.313280	2570.920406
385.698017	2572.314285
386.082692	2576.100192
386.467305	2575.132290
386.851856	2575.833010
387.236344	2575.747311
387.620770	2575.465006
388.005133	2572.478122
388.389435	2578.058680
388.773674	2575.449883
389.157851	2572.016857
389.541965	2575.775037
389.926018	2578.837538
390.310008	2576.289235
390.693936	2578.731674
391.077802	2575.772517
391.461606	2578.565316
391.845348	2578.179667
392.229027	2578.441807
392.612645	2577.935172
392.996200	2580.092785
393.379694	2578.777044
393.763125	2580.233938
394.146494	2578.862744
394.529801	2580.622107
394.913047	2580.054977
395.296230	2582.250399
395.679351	2578.338464
396.062410	2581.277457
396.445408	2580.569174
396.828343	2583.856007
397.211217	2576.881570
397.594028	2582.459607
397.976778	2579.276118
398.359466	2580.455748
398.742092	2579.979359
399.124656	2584.980184
399.507158	2584.634865
399.889598	2583.936665
400.271977	2584.980184
400.654294	2585.761563
401.036549	2587.412541
401.418742	2587.475555
401.800874	2585.892633
402.182944	2587.956985
402.564952	2585.002869
402.946898	2587.462952
403.328783	2585.081007
403.710606	2587.704928
404.092367	2585.587643
404.474067	2590.480083
404.855705	2588.816502
405.237282	2589.229877
405.618797	2593.386308
406.000250	2592.494024
406.381642	2593.076277
406.762972	2591.465628
407.144240	2595.816144
407.525447	2595.788418
407.906593	2596.678182
408.287677	2597.081474
408.668700	2599.118100
409.049661	2603.042638
409.430560	2605.195211
409.811399	2609.185284
410.192176	2608.403905
410.572891	2612.275512
410.953545	2612.938423
411.334138	2618.156017
411.714669	2621.135339
412.095139	2623.038375
412.475547	2629.763274
412.855894	2632.082205
413.236180	2637.569501
413.616405	2646.835142
413.996568	2648.418064
414.376670	2657.945845
414.756711	2660.075732
415.136691	2674.402692
415.516609	2681.132632
415.896466	2688.326358
416.276262	2699.225333
416.655997	2704.074923
417.035670	2715.858620
417.415283	2736.159347
417.794834	2747.668301
418.174324	2754.899836
418.553753	2768.548760
418.933121	2787.649692
419.312428	2799.143523
419.691674	2807.839513
420.070859	2832.546208
420.449983	2836.291786
420.829045	2862.929242
421.208047	2874.937271
421.586988	2898.933163
421.965867	2925.142122
422.344686	2942.251798
422.723444	2971.750110
423.102141	2957.430713
423.480777	3005.634226
423.859352	3014.874661
424.237866	3062.889130
424.616319	3079.615679
424.994712	3115.135649
425.373044	3131.436220
425.751314	3179.407840
426.129524	3175.193435
426.507673	3237.118969
426.885762	3247.758324
427.263789	3279.804939
427.641756	3302.724545
428.019662	3336.699402
428.397508	3361.648072
428.775292	3402.294895
429.153016	3428.075356
429.530679	3457.460242
429.908282	3486.678770
430.285824	3493.862414
430.663305	3558.318607
431.040726	3556.032444
431.418086	3572.645566
431.795385	3645.081906
432.172624	3687.157896
432.549802	3688.196374
432.926920	3721.241138
433.303977	3737.907192
433.680974	3787.703710
434.057910	3824.599915
434.434786	3850.259388
434.811601	3868.767984
435.188355	3967.178869
435.565050	3963.881954
435.941683	3977.979541
436.318257	4072.874221
436.694770	4094.541100
437.071222	4157.921007
437.447614	4124.137715
437.823946	4145.411384
438.200218	4180.129810
438.576429	4178.052855
438.952580	4217.121797
439.328670	4238.145929
439.704700	4290.889002
440.080670	4271.525930
440.456580	4341.355993
440.832429	4387.238054
441.208218	4310.849450
441.583947	4369.541084
441.959616	4396.934714
442.335224	4433.004170
442.710773	4462.232780
443.086261	4525.093448
443.461689	4490.185978
443.837057	4511.615923
444.212365	4589.411009
444.587612	4604.531950
444.962800	4578.106221
445.337927	4626.057677
445.712995	4524.218807
446.088002	4717.441193
446.462949	4747.171398
446.837837	4770.665695
447.212664	4767.736785
447.587431	4992.453779
447.962139	5290.771620
448.336786	5622.640860
448.711374	5607.963541
449.085901	5257.779789
449.460369	5207.892530
449.834776	5147.875073
450.209124	5387.937340
450.583412	5395.090737
450.957640	5519.549264
451.331808	5382.477770
451.705917	5245.451647
452.079965	5234.925718
452.453954	5276.759733
452.827883	5242.918467
453.201752	5246.961473
453.575562	5280.853150
453.949311	5415.991361
454.323001	5423.220376
454.696632	5417.390281
455.070202	5572.148663
455.443713	5605.485813
455.817164	5696.014854
456.190556	5771.324652
456.563888	5743.966310
456.937160	5816.256456
457.310373	5665.029402
457.683526	5722.841354
458.056619	5717.280962
458.429653	5697.053332
458.802628	5747.570735
459.175542	5778.125168
459.548398	5919.665645
459.921194	6103.816474
460.293930	6165.164796
460.666607	6415.846253
461.039224	6633.682073
461.411782	6756.272852
461.784280	6668.665160
462.156719	6672.325037
462.529099	6637.278936
462.901419	6495.670404
463.273680	6367.373038
463.645882	6354.815524
464.018024	6357.424321
464.390106	6425.212717
464.762130	6683.264341
465.134094	7080.109013
465.505999	7711.228707
465.877845	8417.590143
466.249631	8768.918237
466.621358	8689.414199
466.993026	8495.012184
467.364634	8276.629399
467.736184	7993.626584
468.107674	7840.478851
468.479105	7762.721573
468.850477	7688.646858
469.221790	7516.158738
469.593043	7294.289996
469.964238	7198.999585
470.335373	7168.392220
470.706449	7327.773340
471.077467	7523.213833
471.448425	8182.939555
471.819324	8773.631716
472.190164	8793.060322
472.560945	8308.686096
472.931667	7846.538317
473.302330	7645.615569
473.672934	7526.762806
474.043479	7601.881039
474.413965	7507.455186
474.784393	7458.160263
475.154761	7607.000331
475.525070	7622.506920
475.895321	7579.674756
476.265513	7675.030702
476.635645	7842.757452
477.005719	7835.762851
477.375734	7919.766118
477.745691	8026.492386
478.115588	8230.928819
478.485427	8468.092422
478.855207	8943.848796
479.224928	9376.084888
479.594591	9762.577551
479.964194	9761.236604
480.333739	9847.152989
480.703226	9848.725829
481.072653	9950.693248
481.442022	10065.034179
481.811333	10218.912879
482.180584	10054.162930
482.549777	9989.759669
482.918912	9927.647613
483.287988	9919.516232
483.657005	9829.682870
484.025964	9745.782947
484.394864	9809.172936
484.763706	9763.265668
485.132489	9676.149489
485.501213	9672.313171
485.869879	9726.639165
486.238487	9673.928860
486.607036	9751.734029
486.975527	9694.978198
487.343959	9746.523996
487.712333	9799.456112
488.080648	9834.650927
488.448905	9940.880642
488.817104	9939.895096
489.185244	10108.415828
489.553326	10323.393313
489.921350	10801.458535
490.289315	11422.180850
490.657222	11716.185983
491.025070	11892.780123
491.392861	11805.164869
491.760593	11653.332877
492.128267	11398.391645
492.495883	11159.609831
492.863440	10927.789851
493.230939	10703.745850
493.598380	10522.896977
493.965763	10493.199539
494.333088	10355.691986
494.700354	10295.611514
495.067563	10272.754923
495.434713	10274.519327
495.801805	10308.642897
496.168839	10267.991033
496.535815	10239.203523
496.902733	10290.913159
497.269593	10245.883052
497.636395	10256.852603
498.003139	10361.340599
498.369825	10295.765270
498.736453	10388.383869
499.103023	10322.894239
499.469535	10329.553603
499.835989	10388.088961
500.202385	10356.095278
500.568723	10375.859122
500.935003	10438.525705
501.301226	10406.156457
501.667390	10568.078318
502.033497	10673.773670
502.399546	10588.477347
502.765537	10508.673361
503.131470	10602.358164
503.497345	10692.776300
503.863163	10467.189706
504.228923	10603.507547
504.594625	10721.614220
504.960269	10632.887392
505.325856	10787.502101
505.691385	10663.487196
506.056856	10739.187682
506.422270	10828.121198
506.787625	10769.792528
507.152924	10816.796246
507.518164	10883.878880
507.883347	10747.470298
508.248472	10821.103912
508.613540	10931.764801
508.978550	11007.752633
509.343503	10985.619447
509.708398	11037.641634
510.073236	11164.282981
510.438016	11179.174549
510.802738	11095.776220
511.167403	11223.662732
511.532010	11279.543922
511.896561	11379.895651
512.261053	11570.088303
512.625488	11486.488329
512.989866	11479.443316
513.354186	11443.472163
513.718449	11461.746346
514.082655	11611.398039
514.446803	11561.329299
514.810894	11668.600011
515.174927	11668.536997
515.538904	11651.233236
515.902822	11809.749798
516.266684	11684.076354
516.630488	11792.690534
516.994235	11776.037082
517.357925	11891.242571
517.721558	11943.967999
518.085133	12018.360306
518.448651	12047.046992
518.812112	12008.184737
519.175516	12020.873322
519.538863	12111.563679
519.902152	12115.450409
520.265385	12227.603479
520.628560	12240.672670
520.991678	12192.564939
521.354739	12240.937331
521.717743	12320.232160
522.080690	12291.656380
522.443580	12429.393306
522.806413	12435.810695
523.169189	12428.276690
523.531908	12484.014208
523.894569	12451.521451
524.257174	12468.772279
524.619722	12566.585787
524.982213	12548.195658
525.344647	12543.343547
525.707025	12549.425699
526.069345	12658.549036
526.431608	12630.643729
526.793815	12712.456615
527.155964	12602.604831
527.518057	12638.298721
527.880093	12593.613933
528.242072	12722.372564
528.603995	12636.191519
528.965860	12652.020742
529.327669	12681.491327
529.689421	12624.430507
530.051117	12636.073052
530.412755	12681.115761
530.774337	12696.463554
531.135862	12651.042758
531.497331	12699.271477
531.858743	12660.089109
532.220098	12748.931883
532.581396	12677.501254
532.942638	12607.870317
533.303824	12677.304649
533.664953	12650.241215
534.026025	12601.470572
534.387040	12702.676776
534.747999	12681.108200
535.108902	12726.592010
535.469748	12606.254627
535.830537	12630.230354
536.191270	12673.354905
536.551947	12596.285745
536.912567	12652.308088
537.273131	12692.090353
537.633638	12565.902711
537.994089	12639.193526
538.354483	12548.059547
538.714821	12676.399762
539.075103	12750.285433
539.435328	12687.684385
539.795497	12673.216273
540.155609	12659.446362
540.515665	12759.853543
540.875665	12623.621402
541.235609	12719.806617
541.595496	12682.350844
541.955328	12858.271990
542.315102	12713.855535
542.674821	12650.357161
543.034483	12666.130932
543.394090	12671.923217
543.753640	12642.520688
544.113134	12875.169938
544.472571	12633.406281
544.831953	12919.375816
545.191278	12736.951581
545.550548	12664.638750
545.909761	12777.053960
546.268918	12822.346207
546.628019	12884.977502
546.987064	12773.734360
547.346053	12619.338942
547.704986	12823.533399
548.063863	12703.009492
548.422684	12754.220054
548.781449	12720.494735
549.140158	12812.886482
549.498811	12757.154005
549.857408	12631.891415
550.215949	12828.100684
550.574434	12801.927013
550.932864	12747.568251
551.291237	12940.717540
551.649555	12824.672699
552.007817	12880.997511
552.366022	12807.189978
552.724173	12848.121627
553.082267	12948.470835
553.440305	13028.042928
553.798288	12854.675127
554.156215	12922.738265
554.514086	12975.763642
554.871902	12913.981781
555.229661	12934.063217
555.587365	12894.311199
555.945014	12907.730750
556.302606	12888.818862
556.660143	12950.847739
557.017625	12982.740599
557.375050	12940.601594
557.732421	13040.113971
558.089735	13030.545861
558.446994	13004.233558
558.804197	13121.934418
559.161345	13116.202626
559.518437	12939.260647
559.875474	13029.663659
560.232455	13058.506621
560.589381	13101.134618
560.946251	13042.989949
561.303065	13215.314232
561.659825	13163.854133
562.016528	13087.261362
562.373177	13027.977393
562.729770	13155.397598
563.086307	13035.670194
563.442789	13146.247903
563.799216	13185.707535
564.155587	13129.957415
564.511904	13142.434270
564.868164	13158.003874
565.224370	13220.481414
565.580520	13166.346984
565.936615	13234.057242
566.292654	13169.548116
566.648638	13241.571081
567.004567	13238.798447
567.360441	13243.819436
567.716260	13207.639075
568.072023	13295.342549
568.427732	13272.715330
568.783385	13176.514991
569.138982	13288.801652
569.494525	13280.690435
569.850013	13226.964338
570.205445	13218.981671
570.560823	13235.143610
570.916145	13196.258670
571.271412	13199.454762
571.626625	13153.728976
571.981782	13157.277948
572.336884	13110.652316
572.691931	13191.824975
573.046923	13083.911515
573.401860	13059.892938
573.756743	13052.915981
574.111570	13084.765991
574.466342	13062.466447
574.821059	13107.955299
575.175722	12979.670536
575.530330	13004.256243
575.884882	12939.641254
576.239380	12930.332763
576.593823	12919.514447
576.948211	12915.277357
577.302544	12788.504941
577.656823	12807.295842
578.011047	12868.306407
578.365216	12808.528404
578.719330	12737.720357
579.073389	12707.722971
579.427394	12731.555026
579.781344	12717.386863
580.135239	12652.567707
580.489080	12668.202846
580.842866	12549.148436
581.196597	12648.834733
581.550273	12639.417857
581.903895	12599.806991
582.257463	12705.393958
582.610975	12554.550032
582.964434	12607.908125
583.317837	12532.434490
583.671186	12485.289620
584.024481	12545.526367
584.377721	12435.402361
584.730906	12501.748987
585.084037	12519.831606
585.437113	12441.096344
585.790135	12468.550468
586.143103	12380.962941
586.496016	12388.093653
586.848874	12394.279149
587.201679	12392.124055
587.554428	12276.149791
587.907124	12324.350783
588.259765	12261.906010
588.612352	12329.492760
588.964884	12188.635360
589.317362	12247.064853
589.669786	12233.504150
590.022155	12196.020650
590.374470	12297.572174
590.726731	12178.812672
591.078937	12072.325858
591.431090	12098.617996
591.783188	12023.552695
592.135232	11947.569903
592.487222	12004.580312
592.839157	12022.385668
593.191038	11948.530243
593.542866	11899.646174
593.894639	11740.181875
594.246358	11810.158132
594.598022	11816.767085
594.949633	11718.368803
595.301190	11704.717358
595.652692	11664.501553
596.004141	11755.880028
596.355535	11530.759742
596.706876	11510.464056
597.058162	11475.985085
597.409395	11570.662995
597.760573	11601.550145
598.111698	11489.782723
598.462768	11498.584577
598.813785	11498.730771
599.164748	11373.301822
599.515657	11451.714449
599.866511	11320.326857
600.217312	11454.444234
600.568060	11220.743904
600.918753	11380.593851
601.269392	11386.466795
601.619978	11293.293669
601.970510	11330.404123
602.320988	11369.034485
602.671412	11445.687750
603.021783	11365.977025
603.372100	11292.595469
603.722363	11309.299333
604.072572	11314.327884
604.422728	11320.893987
604.772830	11261.705799
605.122878	11267.737540
605.472872	11243.136709
605.822813	11303.002932
606.172701	11256.740263
606.522534	11298.294494
606.872314	11353.767351
607.222041	11283.990220
607.571714	11361.886129
607.921333	11231.569782
608.270899	11281.119283
608.620411	11347.173522
608.969870	11293.880964
609.319276	11276.625094
609.668627	11291.282249
610.017926	11370.604805
610.367171	11398.270657
610.716362	11401.807026
611.065500	11368.900895
611.414585	11380.586289
611.763616	11445.886876
612.112594	11405.910526
612.461518	11425.024060
612.810389	11481.742082
613.159207	11425.061869
613.507971	11414.558625
613.856682	11515.928667
614.205340	11470.563324
614.553945	11607.599529
614.902496	11485.948925
615.250994	11560.018599
615.599439	11544.201978
615.947830	11580.838564
616.296169	11542.505630
616.644454	11558.496170
616.992686	11576.926629
617.340864	11666.021461
617.688990	11548.474356
618.037063	11696.280987
618.385082	11656.934781
618.733048	11692.568177
619.080961	11684.310767
619.428821	11665.628251
619.776628	11673.293326
620.124382	11620.898093
620.472083	11637.208746
620.819731	11662.507777
621.167326	11580.518451
621.514868	11568.860782
621.862357	11466.956378
622.209793	11457.211828
622.557176	11378.342976
622.904506	11324.962198
623.251783	11245.407749
623.599007	11186.930364
623.946179	11134.174689
624.293297	11110.715680
624.640363	10975.514454
624.987376	10958.039294
625.334336	10900.199616
625.681243	10816.486215
626.028097	10786.796339
626.374899	10744.727911
626.721647	10718.760927
627.068343	10681.652994
627.414987	10625.353387
627.761577	10558.434591
628.108115	10600.515622
628.454600	10482.855092
628.801032	10491.699796
629.147412	10477.040121
629.493739	10450.805956
629.840014	10364.617349
630.186236	10408.997147
630.532405	10311.120624
630.878521	10346.943063
631.224585	10305.403956
631.570597	10222.910514
631.916556	10240.446168
632.262462	10213.503721
632.608316	10194.732985
632.954117	10167.707359
633.299866	10141.057299
633.645562	10129.477769
633.991206	10018.544658
634.336797	9930.127861
634.682336	9911.069778
635.027823	9857.184885
635.373257	9824.878651
635.718639	9765.723231
636.063968	9732.083611
636.409245	9614.791085
636.754470	9602.437737
637.099642	9543.864571
637.444762	9447.152555
637.789829	9443.439745
638.134845	9378.113953
638.479808	9360.253145
