Dividing Wavelength (nm)	Counts (n)	Blue Motor Position (mm): 11.900000	Red Motor Position (mm): 0.000000	
326.493990	2167.383602
326.888308	2167.383602
327.282561	2167.383602
327.676750	2122.174535
328.070874	2118.391149
328.464933	2119.744698
328.858929	2123.119751
329.252859	2130.089146
329.646726	2135.843623
330.040528	2150.427681
330.434265	2160.187355
330.827938	2182.754080
331.221547	2196.622295
331.615091	2214.372197
332.008571	2232.996740
332.401986	2250.960892
332.795338	2271.881680
333.188625	2289.377005
333.581847	2309.065231
333.975006	2322.157108
334.368100	2344.015551
334.761129	2363.451719
335.154095	2376.697351
335.546996	2396.965310
335.939833	2424.613518
336.332606	2436.949222
336.725315	2450.535132
337.117960	2464.123562
337.510540	2478.011941
337.903056	2486.541573
338.295508	2494.788901
338.687896	2505.115704
339.080220	2512.085099
339.472480	2517.116171
339.864676	2525.192099
340.256807	2530.944056
340.648875	2533.585621
341.040879	2534.712318
341.432818	2535.856660
341.824694	2540.555016
342.216506	2541.805222
342.608253	2544.406457
342.999937	2543.325130
343.391557	2544.035932
343.783113	2541.210366
344.174605	2539.176260
344.566033	2540.164326
344.957397	2542.480737
345.348697	2536.675848
345.739934	2536.454037
346.131106	2538.036959
346.522215	2531.922040
346.913260	2533.683923
347.304241	2532.234591
347.695159	2527.851308
348.086012	2528.758716
348.476802	2527.253931
348.867528	2521.943076
349.258191	2515.692045
349.648789	2514.151973
350.039324	2509.125942
350.429796	2517.227076
350.820203	2513.665501
351.210548	2515.021572
351.600828	2513.234482
351.991045	2510.729029
352.381198	2507.716940
352.771288	2511.467558
353.161314	2508.185767
353.551276	2510.807167
353.941175	2508.044615
354.331010	2510.363545
354.720782	2509.322547
355.110490	2508.059738
355.500135	2506.479336
355.889717	2509.884636
356.279235	2507.245592
356.668689	2508.997393
357.058080	2506.930520
357.447408	2508.221055
357.836672	2506.330622
358.225873	2510.106447
358.615010	2508.460510
359.004084	2509.519152
359.393095	2511.147445
359.782043	2513.022754
360.170927	2510.252640
360.559748	2511.833042
360.948505	2512.506036
361.337199	2512.135511
361.725830	2512.468227
362.114398	2515.833197
362.502903	2513.831859
362.891344	2513.993176
363.279722	2512.942096
363.668037	2515.515605
364.056289	2515.049298
364.444478	2519.379649
364.832603	2515.775224
365.220665	2516.914525
365.608665	2517.108609
365.996601	2516.642302
366.384474	2520.692870
366.772284	2519.709845
367.160031	2518.411748
367.547715	2518.346212
367.935336	2517.958044
368.322893	2517.179185
368.710388	2518.961233
369.097820	2518.580626
369.485189	2517.297652
369.872495	2524.829136
370.259738	2520.939886
370.646918	2522.391738
371.034035	2522.626152
371.421090	2522.585823
371.808081	2523.412572
372.195010	2522.099352
372.581875	2522.248066
372.968678	2525.391225
373.355418	2523.957017
373.742096	2524.388035
374.128710	2525.373581
374.515262	2523.062212
374.901751	2524.592202
375.288177	2522.477438
375.674540	2525.834847
376.060841	2524.723272
376.447079	2527.576565
376.833254	2526.684281
377.219367	2527.720238
377.605417	2527.581606
377.991404	2528.589837
378.377329	2527.478263
378.763191	2525.124044
379.148991	2525.640762
379.534727	2528.158818
379.920402	2528.438602
380.306013	2527.884076
380.691563	2528.262162
381.077049	2530.291227
381.462474	2528.851977
381.847835	2528.922553
382.233134	2528.524302
382.618371	2527.505989
383.003545	2530.525640
383.388657	2530.691998
383.773706	2530.288706
384.158693	2531.914478
384.543618	2531.233922
384.928480	2532.698377
385.313280	2530.601258
385.698017	2530.354241
386.082692	2530.573531
386.467305	2531.117976
386.851856	2532.050589
387.236344	2532.063192
387.620770	2528.239477
388.005133	2529.913140
388.389435	2529.088911
388.773674	2526.742254
389.157851	2532.461443
389.541965	2531.296937
389.926018	2534.984541
390.310008	2531.415404
390.693936	2535.949922
391.077802	2533.830117
391.461606	2533.467153
391.845348	2533.462112
392.229027	2533.245343
392.612645	2533.499921
392.996200	2534.533357
393.379694	2535.720549
393.763125	2534.104859
394.146494	2536.726259
394.529801	2533.888090
394.913047	2535.748276
395.296230	2534.064530
395.679351	2536.786753
396.062410	2537.288348
396.445408	2536.930426
396.828343	2537.051414
397.211217	2535.397915
397.594028	2535.728111
397.976778	2538.341949
398.359466	2537.575694
398.742092	2536.524613
399.124656	2538.321785
399.507158	2538.029398
399.889598	2538.578883
400.271977	2537.104346
400.654294	2538.528472
401.036549	2538.868750
401.418742	2538.929244
401.800874	2538.518390
402.182944	2540.867567
402.564952	2539.758513
402.946898	2540.905376
403.328783	2539.214069
403.710606	2539.824048
404.092367	2540.751621
404.474067	2542.347146
404.855705	2542.447969
405.237282	2537.432021
405.618797	2542.027033
406.000250	2539.438400
406.381642	2542.697506
406.762972	2538.427649
407.144240	2537.459747
407.525447	2537.822710
407.906593	2537.565612
408.287677	2540.093750
408.668700	2543.486447
409.049661	2539.546785
409.430560	2540.381096
409.811399	2542.274049
410.192176	2544.320758
410.572891	2542.432846
410.953545	2544.172044
411.334138	2544.474513
411.714669	2543.282280
412.095139	2544.386293
412.475547	2541.041487
412.855894	2544.655994
413.236180	2542.417722
413.616405	2541.283462
413.996568	2545.447456
414.376670	2543.730943
414.756711	2543.360418
415.136691	2543.579708
415.516609	2545.573484
415.896466	2546.080120
416.276262	2543.569626
416.655997	2545.139945
417.035670	2546.233876
417.415283	2546.080120
417.794834	2545.999462
418.174324	2546.596839
418.553753	2547.652960
418.933121	2548.600697
419.312428	2546.027188
419.691674	2546.551468
420.070859	2545.371838
420.449983	2545.921324
420.829045	2547.728578
421.208047	2548.401572
421.586988	2546.465769
421.965867	2545.732281
422.344686	2547.441232
422.723444	2547.715975
423.102141	2549.729916
423.480777	2545.437373
423.859352	2547.030378
424.237866	2547.695810
424.616319	2545.984338
424.994712	2547.360573
425.373044	2546.445604
425.751314	2543.564585
426.129524	2544.565254
426.507673	2545.908721
426.885762	2544.779503
427.263789	2548.146993
427.641756	2547.950388
428.019662	2548.714123
428.397508	2550.065153
428.775292	2549.387117
429.153016	2552.439536
429.530679	2550.581871
429.908282	2548.731767
430.285824	2548.615821
430.663305	2550.725544
431.040726	2548.298228
431.418086	2548.802343
431.795385	2548.719164
432.172624	2551.035575
432.549802	2552.494989
432.926920	2549.676984
433.303977	2551.879968
433.680974	2549.785368
434.057910	2552.321069
434.434786	2548.819988
434.811601	2550.836449
435.188355	2549.855945
435.565050	2549.107333
435.941683	2552.033723
436.318257	2548.119267
436.694770	2550.962478
437.071222	2553.394835
437.447614	2549.205636
437.823946	2551.123795
438.200218	2553.309135
438.576429	2552.076573
438.952580	2548.502395
439.328670	2551.549772
439.704700	2550.440718
440.080670	2552.104299
440.456580	2548.494833
440.832429	2551.113713
441.208218	2551.675801
441.583947	2553.099927
441.959616	2553.346944
442.335224	2552.731923
442.710773	2553.011707
443.086261	2553.609084
443.461689	2549.498023
443.837057	2553.697304
444.212365	2554.743343
444.587612	2548.860317
444.962800	2549.820657
445.337927	2552.648744
445.712995	2551.012889
446.088002	2551.428785
446.462949	2553.319217
446.837837	2554.259392
447.212664	2553.485575
447.587431	2553.828374
447.962139	2553.009186
448.336786	2553.069680
448.711374	2554.433312
449.085901	2558.347768
449.460369	2553.470452
449.834776	2554.067829
450.209124	2554.070349
450.583412	2552.933569
450.957640	2556.936245
451.331808	2554.624876
451.705917	2554.672767
452.079965	2552.910884
452.453954	2554.892057
452.827883	2555.706204
453.201752	2553.082283
453.575562	2554.743343
453.949311	2555.169321
454.323001	2553.762839
454.696632	2554.100596
455.070202	2554.947510
455.443713	2557.427758
455.817164	2554.710576
456.190556	2556.202757
456.563888	2554.778631
456.937160	2554.685370
457.310373	2555.794424
457.683526	2554.692932
458.056619	2554.627397
458.429653	2556.391801
458.802628	2555.756615
459.175542	2556.142263
459.548398	2556.666543
459.921194	2556.570762
460.293930	2556.341389
460.666607	2556.888354
461.039224	2556.328786
461.411782	2557.941955
461.784280	2552.913404
462.156719	2557.657130
462.529099	2555.789383
462.901419	2557.450443
463.273680	2557.654610
463.645882	2554.271995
464.018024	2555.552448
464.390106	2552.114382
464.762130	2558.297357
465.134094	2557.286605
465.505999	2559.373643
465.877845	2560.845660
466.249631	2560.167625
466.621358	2559.386246
466.993026	2561.995043
467.364634	2563.071329
467.736184	2559.159394
468.107674	2558.710731
468.479105	2560.449929
468.850477	2562.105948
469.221790	2561.717780
469.593043	2560.313818
469.964238	2561.649724
470.335373	2560.424724
470.706449	2559.121585
471.077467	2560.018911
471.448425	2563.600651
471.819324	2561.324570
472.190164	2562.229457
472.560945	2562.715928
472.931667	2560.092007
473.302330	2560.926318
473.672934	2562.327759
474.043479	2561.836247
474.413965	2561.029662
474.784393	2561.770712
475.154761	2563.310784
475.525070	2562.443706
475.895321	2561.637121
476.265513	2561.125444
476.635645	2562.645352
477.005719	2564.291289
477.375734	2562.441185
477.745691	2563.522513
478.115588	2565.652400
478.485427	2563.741803
478.855207	2563.711556
479.224928	2565.163408
479.594591	2566.451423
479.964194	2562.700805
480.333739	2566.383367
480.703226	2566.826989
481.072653	2568.777916
481.442022	2566.363203
481.811333	2565.987637
482.180584	2560.885989
482.549777	2567.462174
482.918912	2559.885320
483.287988	2567.240364
483.657005	2565.707853
484.025964	2567.134499
484.394864	2565.233984
484.763706	2569.334963
485.132489	2565.980075
485.501213	2567.908317
485.869879	2566.552246
486.238487	2569.939902
486.607036	2570.136507
486.975527	2568.878739
487.343959	2568.861095
487.712333	2566.721125
488.080648	2567.381516
488.448905	2568.417473
488.817104	2566.610219
489.185244	2568.989644
489.553326	2569.279510
489.921350	2569.559294
490.289315	2571.142217
490.657222	2571.255643
491.025070	2572.271435
491.392861	2572.478122
491.760593	2573.685479
492.128267	2570.348235
492.495883	2570.328070
492.863440	2570.925447
493.230939	2569.602144
493.598380	2568.888821
493.965763	2568.099880
494.333088	2567.416804
494.700354	2569.082905
495.067563	2568.601475
495.434713	2568.563667
495.801805	2571.389233
496.168839	2567.066444
496.535815	2569.395457
496.902733	2571.437124
497.269593	2569.813873
497.636395	2569.153482
498.003139	2569.738255
498.369825	2570.600293
498.736453	2571.018708
499.103023	2571.437124
499.469535	2567.963769
499.835989	2570.025601
500.202385	2566.998388
500.568723	2566.156516
500.935003	2565.894376
501.301226	2566.511917
501.667390	2572.387382
502.033497	2570.920406
502.399546	2571.081723
502.765537	2569.801270
503.131470	2571.873184
503.497345	2571.485015
503.863163	2569.428224
504.228923	2570.960735
504.594625	2572.183215
504.960269	2571.469892
505.325856	2571.154820
505.691385	2569.400498
506.056856	2572.631878
506.422270	2574.068607
506.787625	2572.520972
507.152924	2571.416960
507.518164	2574.149265
507.883347	2572.883935
508.248472	2573.768658
508.613540	2576.773186
508.978550	2573.687999
509.343503	2575.291086
509.708398	2574.229923
510.073236	2576.800912
510.438016	2575.573391
510.802738	2575.288566
511.167403	2576.619430
511.532010	2575.359142
511.896561	2577.632702
512.261053	2577.909966
512.625488	2577.363001
512.989866	2578.792168
513.354186	2579.102199
513.718449	2578.766962
514.082655	2577.332754
514.446803	2578.726633
514.810894	2582.275605
515.174927	2582.169741
515.538904	2580.531366
515.902822	2580.516242
516.266684	2582.026068
516.630488	2582.479772
516.994235	2580.952302
517.357925	2583.505647
517.721558	2584.097982
518.085133	2584.939855
518.448651	2581.862230
518.812112	2580.042374
519.175516	2583.833322
519.538863	2581.950451
519.902152	2586.575709
520.265385	2587.972109
520.628560	2590.066708
520.991678	2589.751636
521.354739	2590.933787
521.717743	2591.987388
522.080690	2591.458067
522.443580	2590.515371
522.806413	2592.967892
523.169189	2595.138109
523.531908	2598.276227
523.894569	2591.445464
524.257174	2594.341607
524.619722	2595.309508
524.982213	2599.554160
525.344647	2600.305292
525.707025	2598.422421
526.069345	2597.484766
526.431608	2599.879314
526.793815	2599.604571
527.155964	2602.331836
527.518057	2600.103646
527.880093	2604.970880
528.242072	2604.673452
528.603995	2604.668410
528.965860	2604.330653
529.327669	2604.696137
529.689421	2606.755448
530.051117	2607.796446
530.412755	2608.908021
530.774337	2610.977414
531.135862	2604.799480
531.497331	2612.560337
531.858743	2612.890532
532.220098	2612.744339
532.581396	2613.578650
532.942638	2613.775255
533.303824	2614.856582
533.664953	2615.242231
534.026025	2614.445728
534.387040	2618.080400
534.747999	2618.534104
535.108902	2620.101903
535.469748	2617.036881
535.830537	2618.352622
536.191270	2622.612397
536.551947	2617.243569
536.912567	2616.671398
537.273131	2621.669702
537.633638	2620.331275
537.994089	2624.770011
538.354483	2623.449229
538.714821	2628.056844
539.075103	2626.030300
539.435328	2627.784621
539.795497	2624.477624
540.155609	2626.894858
540.515665	2627.182203
540.875665	2628.470218
541.235609	2628.921402
541.595496	2630.716052
541.955328	2629.551546
542.315102	2632.614047
542.674821	2629.329735
543.034483	2632.440127
543.394090	2632.646814
543.753640	2634.844757
544.113134	2636.049593
544.472571	2636.412556
544.831953	2637.892135
545.191278	2638.176960
545.550548	2636.939357
545.909761	2637.695530
546.268918	2638.050931
546.628019	2641.012609
546.987064	2639.351549
547.346053	2638.953298
547.704986	2641.262146
548.063863	2642.439256
548.422684	2643.160141
548.781449	2639.225520
549.140158	2641.781385
549.498811	2642.945892
549.857408	2641.884729
550.215949	2643.608803
550.574434	2643.868423
550.932864	2646.489823
551.291237	2645.917652
551.649555	2647.462765
552.007817	2648.682725
552.366022	2647.029226
552.724173	2645.494195
553.082267	2648.405461
553.440305	2650.595842
553.798288	2649.660708
554.156215	2652.272026
554.514086	2651.188178
554.871902	2646.260450
555.229661	2652.322438
555.587365	2649.179278
555.945014	2652.017448
556.302606	2653.786893
556.660143	2654.288488
557.017625	2657.729075
557.375050	2654.669095
557.732421	2655.682367
558.089735	2658.923829
558.446994	2659.526247
558.804197	2661.383912
559.161345	2661.749395
559.518437	2656.062974
559.875474	2659.596823
560.232455	2660.738644
560.589381	2663.894406
560.946251	2661.073881
561.303065	2662.276196
561.659825	2668.063441
562.016528	2663.881803
562.373177	2667.796259
562.729770	2665.366423
563.086307	2669.371620
563.442789	2670.150478
563.799216	2670.263904
564.155587	2668.653256
564.511904	2673.165088
564.868164	2672.668535
565.224370	2675.577280
565.580520	2671.456137
565.936615	2676.499812
566.292654	2673.139882
566.648638	2678.773372
567.004567	2676.956036
567.360441	2678.546520
567.716260	2677.298834
568.072023	2683.091120
568.427732	2685.525997
568.783385	2681.460307
569.138982	2683.849814
569.494525	2686.385514
569.850013	2689.430371
570.205445	2688.417099
570.560823	2685.195802
570.916145	2689.385001
571.271412	2690.075639
571.626625	2692.971782
571.981782	2696.495548
572.336884	2694.295085
572.691931	2695.041175
573.046923	2694.610157
573.401860	2694.718542
573.756743	2704.987372
574.111570	2703.855633
574.466342	2705.816642
574.821059	2709.002651
575.175722	2705.337732
575.530330	2711.346787
575.884882	2715.987170
576.239380	2718.318703
576.593823	2720.955227
576.948211	2721.287943
577.302544	2719.831049
577.656823	2721.890361
578.011047	2725.812378
578.365216	2728.711042
578.719330	2729.850343
579.073389	2729.890672
579.427394	2741.170254
579.781344	2736.769326
580.135239	2740.159502
580.489080	2744.976325
580.842866	2745.069586
581.196597	2756.220618
581.550273	2755.948396
581.903895	2762.456526
582.257463	2767.606064
582.610975	2767.958945
582.964434	2776.032353
583.317837	2777.968156
583.671186	2787.281688
584.024481	2790.308901
584.377721	2791.402831
584.730906	2795.987761
585.084037	2801.959007
585.437113	2805.132414
585.790135	2810.828917
586.143103	2815.098775
586.496016	2818.922490
586.848874	2829.448419
587.201679	2831.054027
587.554428	2833.917402
587.907124	2846.976511
588.259765	2850.112109
588.612352	2864.839840
588.964884	2862.251207
589.317362	2872.865357
589.669786	2880.812736
590.022155	2886.254661
590.374470	2897.667834
590.726731	2905.761406
591.078937	2902.542629
591.431090	2916.060483
591.783188	2922.417378
592.135232	2928.441557
592.487222	2941.372117
592.839157	2950.783951
593.191038	2957.360136
593.542866	2960.689818
593.894639	2969.917651
594.246358	2987.768376
594.598022	2990.732575
594.949633	2998.251456
595.301190	2998.581651
595.652692	3015.179650
596.004141	3031.424769
596.355535	3025.100641
596.706876	3037.038093
597.058162	3047.904301
597.409395	3056.393604
597.760573	3073.851119
598.111698	3074.372879
598.462768	3089.859303
598.813785	3100.712908
599.164748	3104.198866
599.515657	3121.724437
599.866511	3123.274592
600.217312	3144.485247
600.568060	3145.059938
600.918753	3174.124711
601.269392	3187.148532
601.619978	3187.458562
601.970510	3214.703478
602.320988	3227.359295
602.671412	3249.515166
603.021783	3259.998246
603.372100	3265.505706
603.722363	3285.362811
604.072572	3302.437199
604.422728	3322.105261
604.772830	3332.933660
605.122878	3336.943898
605.472872	3365.718804
605.822813	3382.818398
606.172701	3397.467991
606.522534	3426.888164
606.872314	3442.198149
607.222041	3448.678552
607.571714	3482.482009
607.921333	3498.351561
608.270899	3523.958102
608.620411	3561.338258
608.969870	3557.643092
609.319276	3586.561671
609.668627	3616.823718
610.017926	3649.742453
610.367171	3679.553316
610.716362	3718.919686
611.065500	3722.438412
611.414585	3753.844800
611.763616	3776.502266
612.112594	3805.599806
612.461518	3818.308555
612.810389	3864.316645
613.159207	3873.423490
613.507971	3892.867220
613.856682	3960.058239
614.205340	3983.348370
614.553945	4040.328532
614.902496	4028.867469
615.250994	4097.076801
615.599439	4115.330819
615.947830	4145.607989
616.296169	4172.994057
616.644454	4217.235223
616.992686	4231.602512
617.340864	4295.236997
617.688990	4317.155934
618.037063	4384.329309
618.385082	4400.219026
618.733048	4463.878716
619.080961	4485.795133
619.428821	4540.136251
619.776628	4570.373091
620.124382	4588.203652
620.472083	4627.398624
620.819731	4672.398483
621.167326	4658.313500
621.514868	4684.598076
621.862357	4695.781876
622.209793	4718.305751
622.557176	4722.994024
622.904506	4716.160740
623.251783	4737.777208
623.599007	4750.891769
623.946179	4771.731899
624.293297	4793.439108
624.640363	4794.618738
624.987376	4815.355524
625.334336	4812.991223
625.681243	4826.224252
626.028097	4848.153271
626.374899	4902.259975
626.721647	4891.615579
627.068343	4901.322321
627.414987	4929.411630
627.761577	4978.328466
628.108115	5028.732443
628.454600	4996.436291
628.801032	5045.254825
629.147412	5070.329524
629.493739	5111.782932
629.840014	5126.614007
630.186236	5173.279968
630.532405	5166.867620
630.878521	5244.430813
631.224585	5258.054532
631.570597	5283.041011
631.916556	5300.448115
632.262462	5331.262168
632.608316	5376.236822
632.954117	5392.338267
633.299866	5432.561634
633.645562	5458.057269
633.991206	5426.303041
634.336797	5416.868522
634.682336	5461.036591
635.027823	5455.869408
635.373257	5477.828675
635.718639	5468.563034
636.063968	5491.896014
636.409245	5470.398014
636.754470	5507.453015
637.099642	5506.291029
637.444762	5474.859435
637.789829	5530.659967
638.134845	5517.699160
638.479808	5555.094440
638.824719	5576.395835
639.169577	5566.779834
639.514383	5611.817503
639.859137	5595.625317
640.203839	5651.834182
640.548489	5629.632940
640.893086	5682.794428
641.237632	5650.485673
641.582125	5754.716570
641.926566	5731.983487
642.270955	5761.141521
642.615292	5782.163132
642.959576	5812.402494
643.303809	5871.628490
643.647990	5869.977512
643.992118	5938.575013
644.336195	5883.069388
