Dividing Wavelength (nm)	Counts (n)	Blue Motor Position (mm): 1.600000	Red Motor Position (mm): 0.000000	
326.493990	2064.276883
326.888308	2064.276883
327.282561	2064.276883
327.676750	2037.140352
328.070874	2038.703109
328.464933	2044.727288
328.858929	2055.341438
329.252859	2065.005329
329.646726	2077.255333
330.040528	2097.031780
330.434265	2112.588781
330.827938	2133.814559
331.221547	2154.831129
331.615091	2175.177226
332.008571	2195.510720
332.401986	2216.484441
332.795338	2236.288614
333.188625	2255.508013
333.581847	2273.842689
333.975006	2289.971861
334.368100	2309.922227
334.761129	2323.588795
335.154095	2342.425067
335.546996	2356.792355
335.939833	2368.583614
336.332606	2382.903012
336.725315	2392.839126
337.117960	2405.643657
337.510540	2415.970460
337.903056	2423.940524
338.295508	2430.040321
338.687896	2439.379058
339.080220	2442.781837
339.472480	2447.936417
339.864676	2451.923969
340.256807	2454.641151
340.648875	2457.534774
341.040879	2458.893365
341.432818	2458.951338
341.824694	2460.262038
342.216506	2458.742130
342.608253	2458.051492
342.999937	2457.602829
343.391557	2456.690380
343.783113	2456.100565
344.174605	2453.189299
344.566033	2453.224587
344.957397	2451.843311
345.348697	2450.638475
345.739934	2446.343412
346.131106	2446.696293
346.522215	2442.703699
346.913260	2440.324274
347.304241	2439.618513
347.695159	2437.934767
348.086012	2436.177925
348.476802	2435.141968
348.867528	2433.806062
349.258191	2430.123500
349.648789	2429.178283
350.039324	2424.734506
350.429796	2429.468150
350.820203	2428.359096
351.210548	2430.438572
351.600828	2427.373550
351.991045	2428.989240
352.381198	2427.290371
352.771288	2426.425813
353.161314	2429.193407
353.551276	2426.995464
353.941175	2424.442119
354.331010	2426.267017
354.720782	2426.801379
355.110490	2426.176276
355.500135	2426.382963
355.889717	2429.936977
356.279235	2426.519075
356.668689	2429.939497
357.058080	2428.787594
357.447408	2428.822882
357.836672	2429.321956
358.225873	2427.038313
358.615010	2429.203489
359.004084	2433.657348
359.393095	2433.216247
359.782043	2431.562749
360.170927	2434.204314
360.559748	2431.807245
360.948505	2432.828079
361.337199	2433.042328
361.725830	2433.367482
362.114398	2435.797318
362.502903	2434.416042
362.891344	2437.234047
363.279722	2436.069541
363.668037	2437.559202
364.056289	2436.626588
364.444478	2436.918975
364.832603	2436.445107
365.220665	2436.871084
365.608665	2438.002823
365.996601	2437.246650
366.384474	2441.105653
366.772284	2437.589448
367.160031	2440.031888
367.547715	2436.288831
367.935336	2437.627257
368.322893	2438.466609
368.710388	2432.853284
369.097820	2439.956270
369.485189	2437.654983
369.872495	2441.312341
370.259738	2440.460386
370.646918	2443.361570
371.034035	2443.222938
371.421090	2441.047680
371.808081	2442.282763
372.195010	2444.095058
372.581875	2442.345777
372.968678	2440.737649
373.355418	2440.977104
373.742096	2442.940633
374.128710	2441.839141
374.515262	2444.006837
374.901751	2445.609924
375.288177	2445.826694
375.674540	2443.187650
376.060841	2442.698658
376.447079	2446.172013
376.833254	2446.207301
377.219367	2443.727053
377.605417	2445.771241
377.991404	2445.861982
378.377329	2445.534307
378.763191	2447.303752
379.148991	2448.921962
379.534727	2446.386262
379.920402	2447.633947
380.306013	2443.785027
380.691563	2446.734102
381.077049	2448.949689
381.462474	2446.474482
381.847835	2448.541355
382.233134	2449.713423
382.618371	2450.799792
383.003545	2449.320213
383.388657	2447.013886
383.773706	2448.256530
384.158693	2448.203598
384.543618	2450.315841
384.928480	2448.662343
385.313280	2450.635955
385.698017	2450.746860
386.082692	2448.566561
386.467305	2448.601849
386.851856	2451.208126
387.236344	2450.086469
387.620770	2450.338527
388.005133	2447.994390
388.389435	2452.181068
388.773674	2445.509101
389.157851	2451.548403
389.541965	2451.976902
389.926018	2453.537139
390.310008	2453.471604
390.693936	2454.000925
391.077802	2452.702828
391.461606	2452.725513
391.845348	2452.675101
392.229027	2455.256172
392.612645	2451.495471
392.996200	2453.675770
393.379694	2451.692076
393.763125	2452.014710
394.146494	2455.165431
394.529801	2453.262396
394.913047	2454.933538
395.296230	2454.313476
395.679351	2458.366564
396.062410	2454.086624
396.445408	2452.720472
396.828343	2457.060905
397.211217	2458.328755
397.594028	2456.836574
397.976778	2455.200719
398.359466	2458.139712
398.742092	2455.951851
399.124656	2458.401852
399.507158	2454.943621
399.889598	2457.779270
400.271977	2454.961265
400.654294	2458.749692
401.036549	2458.106945
401.418742	2456.612243
401.800874	2457.486883
402.182944	2456.095524
402.564952	2458.391770
402.946898	2459.016873
403.328783	2457.401183
403.710606	2457.154167
404.092367	2456.486214
404.474067	2458.505196
404.855705	2458.787500
405.237282	2458.167438
405.618797	2460.009980
406.000250	2459.420165
406.381642	2461.192131
406.762972	2459.697429
407.144240	2455.639300
407.525447	2456.967644
407.906593	2454.310956
408.287677	2460.105762
408.668700	2460.771194
409.049661	2461.570217
409.430560	2462.195320
409.811399	2461.764302
410.192176	2462.102059
410.572891	2460.214147
410.953545	2459.387398
411.334138	2462.979220
411.714669	2463.914354
412.095139	2461.441668
412.475547	2462.654065
412.855894	2461.933180
413.236180	2460.849332
413.616405	2465.409056
413.996568	2465.267904
414.376670	2462.822944
414.756711	2462.976699
415.136691	2463.405197
415.516609	2464.967955
415.896466	2464.040383
416.276262	2464.567183
416.655997	2463.188428
417.035670	2465.247739
417.415283	2464.373099
417.794834	2462.893520
418.174324	2464.574745
418.553753	2464.037862
418.933121	2463.969807
419.312428	2463.422841
419.691674	2464.055506
420.070859	2464.484004
420.449983	2468.741259
420.829045	2466.921402
421.208047	2463.662296
421.586988	2465.756896
421.965867	2464.481484
422.344686	2467.884263
422.723444	2466.840744
423.102141	2464.904941
423.480777	2466.780250
423.859352	2463.584158
424.237866	2463.813531
424.616319	2464.587348
424.994712	2468.476598
425.373044	2464.970476
425.751314	2466.502986
426.129524	2463.785804
426.507673	2464.708336
426.885762	2463.463171
427.263789	2466.906279
427.641756	2469.845271
428.019662	2467.975003
428.397508	2467.972483
428.775292	2468.456433
429.153016	2467.445682
429.530679	2468.022894
429.908282	2466.490383
430.285824	2469.026084
430.663305	2469.265539
431.040726	2469.051290
431.418086	2465.835033
431.795385	2470.987093
432.172624	2466.001392
432.549802	2468.474078
432.926920	2469.368882
433.303977	2469.356279
433.680974	2466.276134
434.057910	2471.551702
434.434786	2470.072123
434.811601	2469.610858
435.188355	2472.580097
435.565050	2470.513224
435.941683	2470.417442
436.318257	2468.703450
436.694770	2468.216979
437.071222	2471.730663
437.447614	2469.726804
437.823946	2470.069603
438.200218	2469.056331
438.576429	2469.200004
438.952580	2471.150930
439.328670	2472.030612
439.704700	2473.099336
440.080670	2468.907617
440.456580	2474.178143
440.832429	2471.150930
441.208218	2470.987093
441.583947	2470.793008
441.959616	2471.173615
442.335224	2473.149748
442.710773	2471.299644
443.086261	2471.982721
443.461689	2473.205200
443.837057	2473.802577
444.212365	2471.274438
444.587612	2472.353245
444.962800	2466.750003
445.337927	2471.125724
445.712995	2465.925774
446.088002	2471.256794
446.462949	2470.717391
446.837837	2474.629326
447.212664	2472.073461
447.587431	2472.368369
447.962139	2472.138996
448.336786	2473.729480
448.711374	2474.198308
449.085901	2476.620582
449.460369	2474.034470
449.834776	2475.496405
450.209124	2471.211424
450.583412	2474.778040
450.957640	2474.543627
451.331808	2475.279635
451.705917	2476.013123
452.079965	2472.834676
452.453954	2476.348360
452.827883	2470.881228
453.201752	2474.294090
453.575562	2476.403813
453.949311	2474.495736
454.323001	2474.430201
454.696632	2474.384830
455.070202	2475.153606
455.443713	2475.645119
455.817164	2472.940540
456.190556	2474.485653
456.563888	2476.504636
456.937160	2476.376086
457.310373	2476.224852
457.683526	2475.319964
458.056619	2472.380972
458.429653	2475.443473
458.802628	2474.357104
459.175542	2474.833493
459.548398	2477.757362
459.921194	2473.250571
460.293930	2476.865078
460.666607	2474.284007
461.039224	2475.246868
461.411782	2476.282825
461.784280	2475.388020
462.156719	2477.636375
462.529099	2478.261478
462.901419	2476.660911
463.273680	2473.555561
463.645882	2468.930302
464.018024	2475.985397
464.390106	2474.180664
464.762130	2476.605459
465.134094	2477.235603
465.505999	2477.066724
465.877845	2476.522280
466.249631	2477.684266
466.621358	2476.885243
466.993026	2477.943885
467.364634	2483.063177
467.736184	2475.156127
468.107674	2477.477578
468.479105	2476.083699
468.850477	2478.291725
469.221790	2478.871457
469.593043	2478.994966
469.964238	2475.398102
470.335373	2475.846765
470.706449	2477.386838
471.077467	2476.630664
471.448425	2476.822228
471.819324	2476.250057
472.190164	2477.238123
472.560945	2479.304997
472.931667	2479.448669
473.302330	2480.227528
473.672934	2478.188381
474.043479	2477.966570
474.413965	2477.298617
474.784393	2477.132259
475.154761	2478.271560
475.525070	2476.557568
475.895321	2478.745428
476.265513	2477.769965
476.635645	2477.447331
477.005719	2477.918679
477.375734	2479.393217
477.745691	2480.431694
478.115588	2478.841210
478.485427	2477.671663
478.855207	2480.051087
479.224928	2481.142497
479.594591	2479.302476
479.964194	2476.161837
480.333739	2478.405151
480.703226	2479.494040
481.072653	2481.576036
481.442022	2479.068062
481.811333	2477.190233
482.180584	2474.410036
482.549777	2476.678555
482.918912	2473.868112
483.287988	2480.512353
483.657005	2479.143680
484.025964	2480.333392
484.394864	2481.858341
484.763706	2478.072434
485.132489	2478.952116
485.501213	2478.195943
485.869879	2477.626292
486.238487	2480.066211
486.607036	2480.315748
486.975527	2481.167703
487.343959	2478.158134
487.712333	2477.795171
488.080648	2477.830459
488.448905	2481.185347
488.817104	2478.261478
489.185244	2482.848928
489.553326	2479.564616
489.921350	2479.390696
490.289315	2479.957826
490.657222	2479.683083
491.025070	2480.368680
491.392861	2481.379431
491.760593	2478.977322
492.128267	2481.586119
492.495883	2481.875985
492.863440	2482.710296
493.230939	2481.397075
493.598380	2478.117805
493.965763	2481.586119
494.333088	2481.558392
494.700354	2483.753815
495.067563	2483.985708
495.434713	2484.091572
495.801805	2480.620738
496.168839	2483.368167
496.535815	2480.910604
496.902733	2481.233238
497.269593	2481.036633
497.636395	2478.289204
498.003139	2481.795327
498.369825	2480.940851
498.736453	2482.866572
499.103023	2479.466313
499.469535	2483.821870
499.835989	2480.696355
500.202385	2477.482619
500.568723	2477.432208
500.935003	2478.450521
501.301226	2477.059163
501.667390	2482.801037
502.033497	2482.813640
502.399546	2483.700883
502.765537	2481.790285
503.131470	2481.583598
503.497345	2482.201139
503.863163	2481.535707
504.228923	2482.347333
504.594625	2479.809112
504.960269	2480.219966
505.325856	2480.638382
505.691385	2482.969915
506.056856	2480.663588
506.422270	2481.996973
506.787625	2484.129381
507.152924	2481.850779
507.518164	2482.387662
507.883347	2483.446304
508.248472	2483.073259
508.613540	2481.727271
508.978550	2480.275419
509.343503	2482.077631
509.708398	2481.649133
510.073236	2481.182826
510.438016	2478.218628
510.802738	2483.315234
511.167403	2480.751808
511.532010	2482.422950
511.896561	2484.262971
512.261053	2481.944041
512.625488	2485.568630
512.989866	2483.050574
513.354186	2482.148207
513.718449	2482.329689
514.082655	2485.293887
514.446803	2483.234576
514.810894	2483.055615
515.174927	2485.669453
515.538904	2483.738691
515.902822	2483.138794
516.266684	2481.792806
516.630488	2484.643578
516.994235	2483.584936
517.357925	2481.792806
517.721558	2482.821201
518.085133	2480.686273
518.448651	2481.061839
518.812112	2481.016468
519.175516	2479.483958
519.538863	2479.612507
519.902152	2481.306335
520.265385	2483.647951
520.628560	2481.442446
520.991678	2484.509988
521.354739	2482.952271
521.717743	2483.370687
522.080690	2485.903867
522.443580	2482.377580
522.806413	2486.120637
523.169189	2482.992601
523.531908	2484.704072
523.894569	2481.444966
524.257174	2483.085862
524.619722	2480.890439
524.982213	2486.279433
525.344647	2483.010245
525.707025	2485.009062
526.069345	2481.548310
526.431608	2484.421768
526.793815	2484.250368
527.155964	2483.990749
527.518057	2480.658546
527.880093	2483.663074
528.242072	2482.178454
528.603995	2485.359422
528.965860	2483.491675
529.327669	2482.682570
529.689421	2486.481079
530.051117	2481.525625
530.412755	2482.128043
530.774337	2484.046202
531.135862	2481.051756
531.497331	2484.036119
531.858743	2481.787765
532.220098	2483.380769
532.581396	2484.147025
532.942638	2487.607777
533.303824	2483.902529
533.664953	2482.420430
534.026025	2485.130050
534.387040	2484.507467
534.747999	2483.789103
535.108902	2483.411016
535.469748	2483.370687
535.830537	2483.637868
536.191270	2482.372539
536.551947	2482.806078
536.912567	2479.733495
537.273131	2479.758700
537.633638	2477.023874
537.994089	2485.697180
538.354483	2485.182982
538.714821	2484.462097
539.075103	2483.973105
539.435328	2484.489823
539.795497	2483.630307
540.155609	2483.978146
540.515665	2483.201808
540.875665	2486.849083
541.235609	2485.800523
541.595496	2485.891264
541.955328	2486.440750
542.315102	2482.072590
542.674821	2484.217601
543.034483	2485.117447
543.394090	2484.111737
543.753640	2485.283805
544.113134	2484.663743
544.472571	2484.073928
544.831953	2485.079638
545.191278	2483.416058
545.550548	2485.021665
545.909761	2483.428660
546.268918	2484.784731
546.628019	2486.244145
546.987064	2483.378249
547.346053	2480.285501
547.704986	2485.893785
548.063863	2484.920842
548.422684	2482.942189
548.781449	2482.468321
549.140158	2486.108034
549.498811	2483.476551
549.857408	2484.809937
550.215949	2481.530666
550.574434	2484.184833
550.932864	2485.039309
551.291237	2484.474700
551.649555	2486.637355
552.007817	2483.705924
552.366022	2483.658033
552.724173	2484.086531
553.082267	2481.767600
553.440305	2486.770945
553.798288	2486.425626
554.156215	2484.948568
554.514086	2481.712148
554.871902	2481.931438
555.229661	2483.390852
555.587365	2480.411530
555.945014	2483.650471
556.302606	2485.253558
556.660143	2484.540235
557.017625	2484.509988
557.375050	2484.900677
557.732421	2483.204329
558.089735	2485.238435
558.446994	2486.995277
558.804197	2486.450832
559.161345	2485.309011
559.518437	2485.009062
559.875474	2482.503609
560.232455	2485.984525
560.589381	2484.991418
560.946251	2484.499906
561.303065	2488.023672
561.659825	2485.913949
562.016528	2484.517550
562.373177	2484.227683
562.729770	2485.487972
563.086307	2485.041830
563.442789	2485.893785
563.799216	2482.395224
564.155587	2485.397231
564.511904	2485.782879
564.868164	2485.987046
565.224370	2483.201808
565.580520	2485.510657
565.936615	2485.392190
566.292654	2486.395379
566.648638	2486.155925
567.004567	2484.063846
567.360441	2482.677528
567.716260	2484.562920
568.072023	2484.310862
568.427732	2481.944041
568.783385	2486.508805
569.138982	2483.204329
569.494525	2484.129381
569.850013	2484.560399
570.205445	2484.749443
570.560823	2482.977477
570.916145	2485.757673
571.271412	2484.661223
571.626625	2485.714824
571.981782	2483.794144
572.336884	2483.630307
572.691931	2481.268526
573.046923	2482.382621
573.401860	2480.333392
573.756743	2483.529483
574.111570	2484.600729
574.466342	2485.989567
574.821059	2484.877992
575.175722	2482.125522
575.530330	2485.283805
575.884882	2482.380100
576.239380	2481.626448
576.593823	2484.966212
576.948211	2486.728096
577.302544	2482.922024
577.656823	2483.496716
578.011047	2482.629638
578.365216	2489.031903
578.719330	2484.469659
579.073389	2485.533342
579.427394	2483.287508
579.781344	2484.333547
580.135239	2484.288177
580.489080	2485.757673
580.842866	2481.800368
581.196597	2487.138950
581.550273	2483.587457
581.903895	2484.835142
582.257463	2484.189875
582.610975	2484.424288
582.964434	2486.831439
583.317837	2487.143991
583.671186	2485.790441
584.024481	2481.150059
584.377721	2484.724237
584.730906	2483.441263
585.084037	2486.009731
585.437113	2486.859166
585.790135	2485.102323
586.143103	2485.167858
586.496016	2487.602736
586.848874	2486.186172
587.201679	2485.861017
587.554428	2486.619711
587.907124	2483.675677
588.259765	2484.104175
588.612352	2484.197436
588.964884	2485.361943
589.317362	2483.496716
589.669786	2485.424957
590.022155	2483.489154
590.374470	2480.736684
590.726731	2480.585450
591.078937	2480.913125
591.431090	2484.401603
591.783188	2483.973105
592.135232	2485.429998
592.487222	2486.634834
592.839157	2484.809937
593.191038	2484.419247
593.542866	2484.938486
593.894639	2485.107365
594.246358	2486.476038
594.598022	2484.578043
594.949633	2485.150214
595.301190	2484.184833
595.652692	2485.334217
596.004141	2484.525111
596.355535	2486.944865
596.706876	2485.472848
597.058162	2485.785400
597.409395	2486.924701
597.760573	2482.967395
598.111698	2485.427478
598.462768	2486.216418
598.813785	2485.823208
599.164748	2483.655512
599.515657	2485.601398
599.866511	2485.288846
600.217312	2484.043681
600.568060	2484.830101
600.918753	2484.918321
601.269392	2484.020996
601.619978	2483.070738
601.970510	2485.858497
602.320988	2486.833960
602.671412	2484.908239
603.021783	2480.436736
603.372100	2485.818167
603.722363	2484.391521
604.072572	2482.927066
604.422728	2484.157107
604.772830	2484.194916
605.122878	2484.986377
605.472872	2484.053763
605.822813	2483.786582
606.172701	2484.116778
606.522534	2485.750112
606.872314	2486.828919
607.222041	2485.339258
607.571714	2481.734833
607.921333	2479.920017
608.270899	2481.659215
608.620411	2479.110912
608.969870	2481.480254
609.319276	2484.305821
609.668627	2484.746922
610.017926	2482.692652
610.367171	2483.380769
610.716362	2485.261120
611.065500	2483.506798
611.414585	2485.795482
611.763616	2485.369505
612.112594	2485.487972
612.461518	2484.255410
612.810389	2485.397231
613.159207	2487.106182
613.507971	2485.495533
613.856682	2482.997642
614.205340	2483.935296
614.553945	2485.377066
614.902496	2485.180461
615.250994	2485.014103
615.599439	2485.765235
615.947830	2485.954278
616.296169	2484.071408
616.644454	2481.268526
616.992686	2486.160966
617.340864	2485.490492
617.688990	2483.164000
618.037063	2484.061325
618.385082	2482.864051
618.733048	2489.339413
619.080961	2484.875472
619.428821	2485.165338
619.776628	2486.150883
620.124382	2487.171717
620.472083	2486.133239
620.819731	2483.872282
621.167326	2481.538228
621.514868	2485.782879
621.862357	2485.359422
622.209793	2484.782210
622.557176	2485.208188
622.904506	2484.225163
623.251783	2485.283805
623.599007	2483.799185
623.946179	2487.451501
624.293297	2483.973105
624.640363	2483.393372
624.987376	2484.414206
625.334336	2480.580408
625.681243	2480.880357
626.028097	2482.087713
626.374899	2485.152735
626.721647	2487.378404
627.068343	2485.639206
627.414987	2482.755666
627.761577	2485.805564
628.108115	2481.684421
628.454600	2482.758187
628.801032	2483.189206
629.147412	2485.099803
629.493739	2484.315903
629.840014	2483.491675
630.186236	2484.270533
630.532405	2485.036788
630.878521	2482.014617
631.224585	2485.346819
631.570597	2483.292549
631.916556	2483.615183
632.262462	2482.932107
632.608316	2485.881182
632.954117	2484.996459
633.299866	2484.656181
633.645562	2487.403610
633.991206	2484.336068
634.336797	2484.598208
634.682336	2485.014103
635.027823	2483.274905
635.373257	2483.151397
635.718639	2483.103506
636.063968	2486.309680
636.409245	2485.490492
636.754470	2486.314721
637.099642	2485.142653
637.444762	2483.131232
637.789829	2483.627786
638.134845	2482.964874
638.479808	2484.179792
638.824719	2484.358753
639.169577	2485.571151
639.514383	2484.066366
639.859137	2485.777838
640.203839	2485.946717
640.548489	2485.309011
640.893086	2483.408496
641.237632	2483.529483
641.582125	2485.243476
641.926566	2485.689618
642.270955	2480.887919
642.615292	2482.548979
642.959576	2481.457569
643.303809	2479.451190
643.647990	2484.583085
643.992118	2485.314052
644.336195	2486.039978
