Dividing Wavelength (nm)	Counts (n)	Blue Motor Position (mm): 12.800000	Red Motor Position (mm): 0.000000	
326.493990	2062.081460
326.888308	2062.081460
327.282561	2062.081460
327.676750	2036.875691
328.070874	2036.926102
328.464933	2044.654191
328.858929	2052.226004
329.252859	2064.786039
329.646726	2074.303738
330.040528	2093.046748
330.434265	2111.787237
330.827938	2136.231792
331.221547	2152.716365
331.615091	2174.589932
332.008571	2193.819413
332.401986	2213.840356
332.795338	2232.900958
333.188625	2254.494741
333.581847	2271.657349
333.975006	2288.930863
334.368100	2306.085909
334.761129	2325.380926
335.154095	2342.019254
335.546996	2378.474358
335.939833	2452.914556
336.332606	2464.100877
336.725315	2475.934985
337.117960	2488.048878
337.510540	2495.865187
337.903056	2507.669049
338.295508	2512.110305
338.687896	2518.673887
339.080220	2523.810823
339.472480	2528.912471
339.864676	2532.209386
340.256807	2534.974458
340.648875	2535.662576
341.040879	2538.054603
341.432818	2537.605941
341.824694	2540.408822
342.216506	2541.094419
342.608253	2538.667104
342.999937	2539.481250
343.391557	2537.328677
343.783113	2536.753986
344.174605	2531.937163
344.566033	2530.177801
344.957397	2528.536905
345.348697	2526.359127
345.739934	2527.758047
346.131106	2526.379291
346.522215	2523.581451
346.913260	2522.391738
347.304241	2524.884589
347.695159	2516.347395
348.086012	2519.099865
348.476802	2515.833197
348.867528	2511.928824
349.258191	2507.767351
349.648789	2510.411436
350.039324	2504.762823
350.429796	2510.971004
350.820203	2507.575787
351.210548	2507.467402
351.600828	2506.996055
351.991045	2504.102432
352.381198	2506.378513
352.771288	2505.491270
353.161314	2503.132010
353.551276	2506.592762
353.941175	2505.627381
354.331010	2504.122597
354.720782	2508.261384
355.110490	2508.881446
355.500135	2507.427073
355.889717	2506.413801
356.279235	2507.258195
356.668689	2509.723319
357.058080	2507.734584
357.447408	2508.309275
357.836672	2509.168792
358.225873	2507.850530
358.615010	2508.657115
359.004084	2508.823473
359.393095	2511.097033
359.782043	2508.999913
360.170927	2511.964112
360.559748	2510.792043
360.948505	2510.030829
361.337199	2515.810512
361.725830	2512.876561
362.114398	2512.296828
362.502903	2511.699451
362.891344	2515.724813
363.279722	2516.271778
363.668037	2513.763804
364.056289	2516.496109
364.444478	2513.421005
364.832603	2516.392765
365.220665	2516.894360
365.608665	2516.423012
365.996601	2516.733043
366.384474	2515.157683
366.772284	2518.464680
367.160031	2518.101717
367.547715	2517.504340
367.935336	2516.085255
368.322893	2515.147600
368.710388	2514.093999
369.097820	2516.501150
369.485189	2516.163393
369.872495	2519.326717
370.259738	2521.033147
370.646918	2521.713703
371.034035	2520.029958
371.421090	2522.558097
371.808081	2522.021214
372.195010	2518.840246
372.581875	2520.970133
372.968678	2518.779752
373.355418	2519.344361
373.742096	2521.585154
374.128710	2522.525329
374.515262	2520.125740
374.901751	2524.264527
375.288177	2522.845442
375.674540	2524.007428
376.060841	2521.864938
376.447079	2520.939886
376.833254	2524.730834
377.219367	2524.914836
377.605417	2522.116996
377.991404	2522.253107
378.377329	2522.689167
378.763191	2527.165711
379.148991	2523.652027
379.534727	2529.209899
379.920402	2526.306194
380.306013	2521.267561
380.691563	2528.552028
381.077049	2524.009949
381.462474	2523.183200
381.847835	2525.981040
382.233134	2528.945238
382.618371	2526.858201
383.003545	2528.476411
383.388657	2524.214116
383.773706	2527.299302
384.158693	2528.264683
384.543618	2525.880217
384.928480	2526.333921
385.313280	2525.131606
385.698017	2528.299971
386.082692	2532.274921
386.467305	2528.020187
386.851856	2530.213089
387.236344	2528.060516
387.620770	2528.070598
388.005133	2526.396935
388.389435	2529.320804
388.773674	2527.810979
389.157851	2530.177801
389.541965	2531.901875
389.926018	2530.427338
390.310008	2531.390198
390.693936	2531.990095
391.077802	2532.267359
391.461606	2532.171577
391.845348	2531.584283
392.229027	2533.182328
392.612645	2531.647297
392.996200	2529.209899
393.379694	2531.433048
393.763125	2534.387164
394.146494	2531.339787
394.529801	2531.685106
394.913047	2531.123017
395.296230	2533.973789
395.679351	2533.371372
396.062410	2535.781043
396.445408	2532.474046
396.828343	2536.547298
397.211217	2533.313398
397.594028	2533.593182
397.976778	2533.230219
398.359466	2533.502442
398.742092	2532.017822
399.124656	2532.521937
399.507158	2533.552853
399.889598	2535.574356
400.271977	2536.045704
400.654294	2535.702905
401.036549	2535.765920
401.418742	2535.816331
401.800874	2535.871784
402.182944	2533.958666
402.564952	2535.249201
402.946898	2535.649973
403.328783	2537.230375
403.710606	2538.480581
404.092367	2536.998482
404.474067	2537.893287
404.855705	2537.658873
405.237282	2536.239788
405.618797	2538.198276
406.000250	2537.202648
406.381642	2538.780530
406.762972	2538.223482
407.144240	2537.275745
407.525447	2538.631816
407.906593	2532.448840
408.287677	2538.999820
408.668700	2538.563760
409.049661	2541.056611
409.430560	2538.261291
409.811399	2540.113915
410.192176	2540.360931
410.572891	2540.048380
410.953545	2539.720705
411.334138	2542.526107
411.714669	2543.337733
412.095139	2541.855633
412.475547	2544.918134
412.855894	2539.060314
413.236180	2541.119625
413.616405	2542.513504
413.996568	2542.296734
414.376670	2540.986034
414.756711	2539.415715
415.136691	2541.094419
415.516609	2542.074924
415.896466	2540.849923
416.276262	2539.695499
416.655997	2541.512835
417.035670	2539.710623
417.415283	2542.442928
417.794834	2541.464944
418.174324	2541.555685
418.553753	2542.768082
418.933121	2541.706919
419.312428	2540.862526
419.691674	2542.226158
420.070859	2541.590973
420.449983	2542.463092
420.829045	2540.320602
421.208047	2540.623071
421.586988	2542.546272
421.965867	2544.174564
422.344686	2543.544420
422.723444	2545.316386
423.102141	2542.594162
423.480777	2544.958464
423.859352	2543.574667
424.237866	2544.388813
424.616319	2542.624409
424.994712	2546.591798
425.373044	2546.044832
425.751314	2542.813453
426.129524	2540.723894
426.507673	2544.280428
426.885762	2539.564429
427.263789	2544.759338
427.641756	2541.343956
428.019662	2543.657846
428.397508	2544.643392
428.775292	2544.217414
429.153016	2543.181457
429.530679	2545.404606
429.908282	2544.948381
430.285824	2543.320089
430.663305	2545.250851
431.040726	2544.802188
431.418086	2544.550130
431.795385	2546.148176
432.172624	2542.609286
432.549802	2542.208514
432.926920	2541.931251
433.303977	2543.244471
433.680974	2542.246323
434.057910	2541.434697
434.434786	2542.188350
434.811601	2543.892260
435.188355	2542.599204
435.565050	2543.793957
435.941683	2541.666590
436.318257	2546.342260
436.694770	2544.406457
437.071222	2543.236910
437.447614	2546.112888
437.823946	2542.672300
438.200218	2542.813453
438.576429	2544.978628
438.952580	2543.960315
439.328670	2544.875285
439.704700	2543.917465
440.080670	2543.146169
440.456580	2544.971067
440.832429	2545.785213
441.208218	2544.429142
441.583947	2541.815304
441.959616	2544.943340
442.335224	2542.412681
442.710773	2544.393854
443.086261	2545.880995
443.461689	2543.483926
443.837057	2545.523073
444.212365	2544.066179
444.587612	2542.342105
444.962800	2541.641384
445.337927	2541.207845
445.712995	2538.546116
446.088002	2544.219935
446.462949	2545.394523
446.837837	2544.431663
447.212664	2545.155069
447.587431	2547.728578
447.962139	2543.788916
448.336786	2543.950233
448.711374	2543.972918
449.085901	2544.822353
449.460369	2544.691282
449.834776	2544.769420
450.209124	2544.224976
450.583412	2545.959133
450.957640	2547.842004
451.331808	2546.594318
451.705917	2548.396531
452.079965	2545.555840
452.453954	2547.027857
452.827883	2547.635316
453.201752	2546.236396
453.575562	2545.455017
453.949311	2543.841848
454.323001	2546.072559
454.696632	2547.927703
455.070202	2546.128011
455.443713	2546.057435
455.817164	2547.410985
456.190556	2547.317724
456.563888	2548.923331
456.937160	2546.518701
457.310373	2547.688248
457.683526	2546.750594
458.056619	2546.523742
458.429653	2544.746735
458.802628	2547.322765
459.175542	2545.220604
459.548398	2546.548948
459.921194	2543.839328
460.293930	2545.023999
460.666607	2546.937117
461.039224	2548.046170
461.411782	2546.095244
461.784280	2547.451314
462.156719	2545.437373
462.529099	2547.715975
462.901419	2545.392003
463.273680	2544.131714
463.645882	2544.240099
464.018024	2546.843855
464.390106	2543.655325
464.762130	2546.571633
465.134094	2549.099772
465.505999	2549.137580
465.877845	2549.225800
466.249631	2550.496171
466.621358	2549.001469
466.993026	2548.699000
467.364634	2551.431305
467.736184	2549.626572
468.107674	2546.528783
468.479105	2547.859648
468.850477	2550.203784
469.221790	2548.431819
469.593043	2548.744370
469.964238	2548.898125
470.335373	2545.356715
470.706449	2548.477189
471.077467	2548.683876
471.448425	2551.398538
471.819324	2548.416695
472.190164	2548.822508
472.560945	2549.813095
472.931667	2547.746222
473.302330	2547.423588
473.672934	2549.419885
474.043479	2552.157231
474.413965	2548.348640
474.784393	2549.281253
475.154761	2549.883671
475.525070	2548.915769
475.895321	2553.505740
476.265513	2547.988197
476.635645	2553.009186
477.005719	2548.673794
477.375734	2552.827705
477.745691	2547.373176
478.115588	2551.605225
478.485427	2552.316028
478.855207	2552.109340
479.224928	2551.421223
479.594591	2557.203426
479.964194	2553.677139
480.333739	2554.239228
480.703226	2553.306614
481.072653	2553.798127
481.442022	2553.508261
481.811333	2553.248641
482.180584	2547.627755
482.549777	2554.450956
482.918912	2546.904349
483.287988	2554.337530
483.657005	2552.565565
484.025964	2554.448436
484.394864	2555.895247
484.763706	2554.463559
485.132489	2552.061449
485.501213	2552.971378
485.869879	2553.026830
486.238487	2557.032027
486.607036	2555.000442
486.975527	2554.703014
487.343959	2554.753426
487.712333	2554.133364
488.080648	2554.468600
488.448905	2555.123950
488.817104	2553.294012
489.185244	2557.069836
489.553326	2554.327448
489.921350	2557.294167
490.289315	2558.546894
490.657222	2560.991853
491.025070	2557.747871
491.392861	2560.845660
491.760593	2558.768705
492.128267	2558.740978
492.495883	2556.868190
492.863440	2557.702501
493.230939	2556.583364
493.598380	2559.570248
493.965763	2558.884651
494.333088	2556.903478
494.700354	2557.248797
495.067563	2558.236863
495.434713	2556.379198
495.801805	2554.629917
496.168839	2556.684188
496.535815	2558.519168
496.902733	2558.584703
497.269593	2559.177038
497.636395	2559.827347
498.003139	2562.128634
498.369825	2557.518498
498.736453	2556.807696
499.103023	2559.086297
499.469535	2561.022100
499.835989	2558.410783
500.202385	2558.854404
500.568723	2555.975905
500.935003	2558.362892
501.301226	2558.788869
501.667390	2561.022100
502.033497	2566.211968
502.399546	2560.520506
502.765537	2564.064437
503.131470	2562.804148
503.497345	2565.917061
503.863163	2563.172153
504.228923	2563.865311
504.594625	2566.242215
504.960269	2567.406722
505.325856	2564.679457
505.691385	2567.159705
506.056856	2565.796073
506.422270	2567.641135
506.787625	2566.965621
507.152924	2568.253636
507.518164	2569.148440
507.883347	2571.452248
508.248472	2570.509552
508.613540	2571.366548
508.978550	2572.200859
509.343503	2572.793195
509.708398	2572.203380
510.073236	2573.050293
510.438016	2575.568350
510.802738	2576.677404
511.167403	2576.074986
511.532010	2580.523804
511.896561	2576.952147
512.261053	2579.475244
512.625488	2582.096644
512.989866	2580.491037
513.354186	2583.921542
513.718449	2582.915832
514.082655	2587.883889
514.446803	2586.547983
514.810894	2591.695001
515.174927	2590.923704
515.538904	2590.321287
515.902822	2591.410176
516.266684	2589.996132
516.630488	2595.463263
516.994235	2591.654672
517.357925	2594.369333
517.721558	2599.349993
518.085133	2600.577514
518.448651	2599.191197
518.812112	2599.186156
519.175516	2599.849067
519.538863	2599.344952
519.902152	2602.825869
520.265385	2605.946343
520.628560	2609.820470
520.991678	2607.940119
521.354739	2608.449276
521.717743	2611.642847
522.080690	2612.797271
522.443580	2614.559154
522.806413	2618.776079
523.169189	2618.859258
523.531908	2619.123919
523.894569	2621.624331
524.257174	2622.957717
524.619722	2625.548870
524.982213	2629.105404
525.344647	2630.572379
525.707025	2630.912657
526.069345	2630.736217
526.431608	2635.008595
526.793815	2636.682258
527.155964	2635.931126
527.518057	2637.529172
527.880093	2642.063690
528.242072	2641.703247
528.603995	2642.900521
528.965860	2644.163330
529.327669	2644.485964
529.689421	2648.397899
530.051117	2650.716830
530.412755	2652.332520
530.774337	2650.396717
531.135862	2652.950061
531.497331	2653.625576
531.858743	2657.575320
532.220098	2658.759991
532.581396	2659.680002
532.942638	2660.836947
533.303824	2662.059426
533.664953	2666.140240
534.026025	2665.079077
534.387040	2668.030673
534.747999	2667.796259
535.108902	2673.820438
535.469748	2670.919254
535.830537	2673.366734
536.191270	2674.201045
536.551947	2674.581652
536.912567	2673.936385
537.273131	2677.765141
537.633638	2677.687003
537.994089	2682.665143
538.354483	2684.674042
538.714821	2687.068591
539.075103	2690.478931
539.435328	2688.948941
539.795497	2692.097142
540.155609	2690.582275
540.515665	2697.239118
540.875665	2695.202492
541.235609	2698.859849
541.595496	2698.804397
541.955328	2702.439069
542.315102	2704.818493
542.674821	2702.313040
543.034483	2702.043338
543.394090	2704.195911
543.753640	2705.647763
544.113134	2709.678166
544.472571	2710.051211
544.831953	2715.891388
545.191278	2715.362067
545.550548	2712.871737
545.909761	2716.292159
546.268918	2717.199567
546.628019	2720.241903
546.987064	2722.777604
547.346053	2719.349619
547.704986	2724.398335
548.063863	2723.969837
548.422684	2723.455639
548.781449	2724.421020
549.140158	2729.557956
549.498811	2726.792883
549.857408	2727.564179
550.215949	2729.754561
550.574434	2731.791187
550.932864	2734.979717
551.291237	2737.591034
551.649555	2737.777557
552.007817	2738.977352
552.366022	2740.479616
552.724173	2739.846951
553.082267	2744.441962
553.440305	2746.624782
553.798288	2745.939185
554.156215	2750.798857
554.514086	2750.272057
554.871902	2746.372724
555.229661	2753.531163
555.587365	2752.533014
555.945014	2758.194230
556.302606	2760.286309
556.660143	2763.114396
557.017625	2765.418204
557.375050	2770.134203
557.732421	2771.170160
558.089735	2774.635953
558.446994	2775.863474
558.804197	2786.114661
559.161345	2786.510391
559.518437	2785.819753
559.875474	2790.187913
560.232455	2795.667647
560.589381	2798.473049
560.946251	2800.391208
561.303065	2806.990079
561.659825	2811.529638
562.016528	2815.449135
562.373177	2817.957109
562.729770	2825.491113
563.086307	2825.632266
563.442789	2835.495283
563.799216	2841.567353
564.155587	2844.400482
564.511904	2849.073631
564.868164	2855.531349
565.224370	2866.543750
565.580520	2868.774460
565.936615	2875.471633
566.292654	2880.664022
566.648638	2891.215157
567.004567	2900.369892
567.360441	2909.562436
567.716260	2917.235072
568.072023	2928.403749
568.427732	2935.650407
568.783385	2943.544854
569.138982	2960.316773
569.494525	2969.315233
569.850013	2974.225317
570.205445	2986.074549
570.560823	2994.034531
570.916145	3007.068434
571.271412	3021.496216
571.626625	3028.342103
571.981782	3042.674103
572.336884	3052.017882
572.691931	3065.298802
573.046923	3077.848754
573.401860	3084.470310
573.756743	3107.021912
574.111570	3120.811988
574.466342	3137.843526
574.821059	3154.491937
575.175722	3164.874193
575.530330	3184.121319
575.884882	3197.608926
576.239380	3211.008313
576.593823	3234.308526
576.948211	3249.000969
577.302544	3260.799789
577.656823	3278.176647
578.011047	3304.191521
578.365216	3320.000579
578.719330	3337.783250
579.073389	3358.187320
579.427394	3383.020044
579.781344	3406.549629
580.135239	3423.813061
580.489080	3451.506639
580.842866	3464.762353
581.196597	3501.603106
581.550273	3528.427085
581.903895	3554.192423
582.257463	3597.692539
582.610975	3613.491515
582.964434	3649.888646
583.317837	3668.467818
583.671186	3697.318342
584.024481	3738.396184
584.377721	3753.801950
584.730906	3789.589101
585.084037	3826.276098
585.437113	3851.093699
585.790135	3888.463772
586.143103	3908.343562
586.496016	3943.916465
586.848874	3987.845079
587.201679	4026.833363
587.554428	4044.628636
587.907124	4094.611677
588.259765	4124.800626
588.612352	4165.639014
588.964884	4190.030637
589.317362	4237.420003
589.669786	4276.677989
590.022155	4312.540757
590.374470	4371.612998
590.726731	4401.749016
591.078937	4407.140530
591.431090	4465.300322
591.783188	4485.190194
592.135232	4516.820914
592.487222	4576.835851
592.839157	4627.358294
593.191038	4656.546575
593.542866	4691.789282
593.894639	4702.330334
594.246358	4764.737298
594.598022	4807.788752
594.949633	4832.578626
595.301190	4878.652252
595.652692	4917.973252
596.004141	4989.565198
596.355535	4976.775791
596.706876	5020.333881
597.058162	5049.547367
597.409395	5130.041991
597.760573	5193.684038
598.111698	5218.549529
598.462768	5265.596098
598.813785	5313.489580
599.164748	5337.228373
599.515657	5410.362913
599.866511	5427.306231
600.217312	5528.376324
600.568060	5505.476883
600.918753	5621.234378
601.269392	5672.109703
601.619978	5705.119178
601.970510	5776.973264
602.320988	5844.912895
602.671412	5925.276449
603.021783	5973.111958
603.372100	5994.804043
603.722363	6059.451800
604.072572	6122.257015
604.422728	6186.559453
604.772830	6224.395833
605.122878	6297.661442
605.472872	6352.055492
605.822813	6433.452483
606.172701	6482.215564
606.522534	6572.885757
606.872314	6660.543861
607.222041	6703.504574
607.571714	6808.121119
607.921333	6816.433982
608.270899	6908.107364
608.620411	7019.963007
608.969870	7062.843061
609.319276	7141.069166
609.668627	7214.831329
610.017926	7332.980852
610.367171	7420.286075
610.716362	7508.730598
611.065500	7573.237203
611.414585	7673.009199
611.763616	7777.393851
612.112594	7845.290632
612.461518	7940.182791
612.810389	8079.459790
613.159207	8129.218499
613.507971	8208.818318
613.856682	8359.752985
614.205340	8424.204137
614.553945	8609.970656
614.902496	8600.679809
615.250994	8744.839165
615.599439	8845.911779
615.947830	8955.985374
616.296169	9042.209269
616.644454	9146.757759
616.992686	9268.610009
617.340864	9436.256101
617.688990	9465.146953
618.037063	9676.890538
618.385082	9748.190098
618.733048	9912.032639
619.080961	9988.627930
619.428821	10087.726933
619.776628	10188.018168
620.124382	10243.823741
620.472083	10361.345640
620.819731	10469.695160
621.167326	10478.015584
621.514868	10565.865252
621.862357	10550.431759
622.209793	10657.823459
622.557176	10662.922587
622.904506	10699.418020
623.251783	10709.845647
623.599007	10729.314583
623.946179	10811.114866
624.293297	10837.149905
624.640363	10816.493777
624.987376	10870.260203
625.334336	10917.147975
625.681243	10921.576629
626.028097	10987.706485
626.374899	11057.773482
626.721647	11143.941925
627.068343	11190.020592
627.414987	11211.604292
627.761577	11252.462844
628.108115	11430.004720
628.454600	11350.689726
628.801032	11499.607932
629.147412	11563.348281
629.493739	11650.517392
629.840014	11639.671350
630.186236	11842.734068
630.532405	11797.822428
630.878521	11957.921913
631.224585	12001.555620
631.570597	12016.300995
631.916556	12152.926347
632.262462	12225.955022
632.608316	12302.026033
632.954117	12360.460568
633.299866	12459.010085
633.645562	12534.902135
633.991206	12465.394706
634.336797	12440.866972
634.682336	12512.045544
635.027823	12531.854758
635.373257	12584.706215
635.718639	12575.380080
636.063968	12633.625572
636.409245	12524.774457
636.754470	12603.424019
637.099642	12629.406126
637.444762	12539.260213
637.789829	12672.341633
638.134845	12644.809371
638.479808	12704.254658
638.824719	12777.122016
639.169577	12708.350595
639.514383	12836.589987
639.859137	12797.727732
640.203839	12944.914301
640.548489	12933.528855
640.893086	13019.719983
641.237632	13021.824665
641.582125	13148.652534
641.926566	13162.936643
642.270955	13263.215275
642.615292	13334.782016
642.959576	13375.083520
643.303809	13471.558602
