Dividing Wavelength (nm)	Counts (n)	Blue Motor Position (mm): 39.500000	Red Motor Position (mm): 0.000000	
326.493990	2097.014136
326.888308	2097.014136
327.282561	2097.014136
327.676750	2072.378017
328.070874	2074.976732
328.464933	2082.404872
328.858929	2091.587334
329.252859	2106.299941
329.646726	2120.059771
330.040528	2132.934878
330.434265	2154.432878
330.827938	2173.085147
331.221547	2193.007787
331.615091	2211.972608
332.008571	2235.688716
332.401986	2256.196130
332.795338	2276.038112
333.188625	2292.958745
333.581847	2313.171251
333.975006	2332.831751
334.368100	2349.364215
334.761129	2368.387009
335.154095	2385.627755
335.546996	2430.592327
335.939833	2511.911180
336.332606	2526.338962
336.725315	2537.754655
337.117960	2547.169010
337.510540	2555.050854
337.903056	2563.197358
338.295508	2569.776064
338.687896	2574.517269
339.080220	2585.169227
339.472480	2587.339444
339.864676	2592.587285
340.256807	2596.194231
340.648875	2595.490990
341.040879	2597.300764
341.432818	2600.204469
341.824694	2599.881835
342.216506	2599.859150
342.608253	2599.854108
342.999937	2598.997112
343.391557	2597.681371
343.783113	2598.558532
344.174605	2596.441247
344.566033	2593.867738
344.957397	2593.615681
345.348697	2588.957654
345.739934	2589.297932
346.131106	2589.557552
346.522215	2588.995463
346.913260	2585.166707
347.304241	2584.097982
347.695159	2581.043043
348.086012	2580.138156
348.476802	2576.924420
348.867528	2575.928792
349.258191	2576.584142
349.648789	2575.893504
350.039324	2575.275963
350.429796	2574.229923
350.820203	2572.992320
351.210548	2574.902917
351.600828	2569.967628
351.991045	2572.037022
352.381198	2570.368400
352.771288	2572.354614
353.161314	2568.818245
353.551276	2569.564336
353.941175	2567.386557
354.331010	2570.159192
354.720782	2573.589697
355.110490	2575.538103
355.500135	2570.985941
355.889717	2573.166240
356.279235	2572.352094
356.668689	2573.607341
357.058080	2573.488874
357.447408	2569.776064
357.836672	2568.296485
358.225873	2571.716908
358.615010	2570.522155
359.004084	2574.849985
359.393095	2574.867629
359.782043	2577.733525
360.170927	2575.452403
360.559748	2578.562795
360.948505	2579.848289
361.337199	2578.971129
361.725830	2578.724112
362.114398	2581.617734
362.502903	2581.400965
362.891344	2581.882395
363.279722	2579.439956
363.668037	2579.013978
364.056289	2583.430029
364.444478	2583.278795
364.832603	2588.324990
365.220665	2582.154617
365.608665	2587.064701
365.996601	2587.291553
366.384474	2585.126378
366.772284	2588.357757
367.160031	2587.876327
367.547715	2588.798858
367.935336	2587.180648
368.322893	2590.051585
368.710388	2589.880186
369.097820	2591.324476
369.485189	2592.113417
369.872495	2591.889085
370.259738	2592.055443
370.646918	2593.845053
371.034035	2591.485793
371.421090	2593.177100
371.808081	2596.441247
372.195010	2594.578541
372.581875	2595.130547
372.968678	2598.455188
373.355418	2596.915116
373.742096	2598.981989
374.128710	2598.593820
374.515262	2599.465940
374.901751	2600.723707
375.288177	2602.800663
375.674540	2603.171188
376.060841	2601.953749
376.447079	2606.258894
376.833254	2606.571446
377.219367	2601.182452
377.605417	2603.614809
377.991404	2604.612958
378.377329	2603.032556
378.763191	2602.021805
379.148991	2610.881633
379.534727	2610.369955
379.920402	2613.397168
380.306013	2612.537652
380.691563	2612.898094
381.077049	2613.785337
381.462474	2613.049329
381.847835	2616.598301
382.233134	2617.251130
382.618371	2616.971346
383.003545	2618.556789
383.388657	2619.905298
383.773706	2621.442850
384.158693	2621.848663
384.543618	2621.657099
384.928480	2621.188272
385.313280	2625.400156
385.698017	2625.906792
386.082692	2629.594396
386.467305	2630.537091
386.851856	2630.216978
387.236344	2631.068933
387.620770	2634.035652
388.005133	2633.909623
388.389435	2637.292237
388.773674	2635.558081
389.157851	2635.114459
389.541965	2640.309368
389.926018	2644.112919
390.310008	2641.988072
390.693936	2646.033598
391.077802	2649.519556
391.461606	2654.084321
391.845348	2658.011380
392.229027	2661.935918
392.612645	2665.308450
392.996200	2669.933709
393.379694	2679.012827
393.763125	2689.634538
394.146494	2697.561752
394.529801	2708.533824
394.913047	2721.880278
395.296230	2734.462998
395.679351	2747.118815
396.062410	2771.656632
396.445408	2785.129115
396.828343	2810.158444
397.211217	2835.265911
397.594028	2856.317769
397.976778	2893.463511
398.359466	2933.981785
398.742092	2964.558904
399.124656	3018.509333
399.507158	3073.261304
399.889598	3121.726957
400.271977	3190.828574
400.654294	3248.222110
401.036549	3325.248421
401.418742	3387.851990
401.800874	3490.119357
402.182944	3568.610122
402.564952	3697.845143
402.946898	3749.816918
403.328783	3836.023169
403.710606	3950.696817
404.092367	4086.520625
404.474067	4256.412550
404.855705	4311.111590
405.237282	4402.379160
405.618797	4606.606385
406.000250	4781.597437
406.381642	4989.219879
406.762972	5096.480510
407.144240	5152.575949
407.525447	5353.226475
407.906593	5457.464934
408.287677	5670.456204
408.668700	5854.571746
409.049661	5979.103369
409.430560	6176.487227
409.811399	6306.473379
410.192176	6501.119891
410.572891	6675.707652
410.953545	7027.507093
411.334138	6936.751201
411.714669	7357.039758
412.095139	7181.761360
412.475547	7568.979948
412.855894	7633.731049
413.236180	7957.322714
413.616405	7933.823376
413.996568	8231.584169
414.376670	8358.575875
414.756711	8428.335362
415.136691	8734.126713
415.516609	8983.668870
415.896466	9172.903703
416.276262	9498.221964
416.655997	9933.429816
417.035670	10100.589437
417.415283	10672.238639
417.794834	10875.064423
418.174324	10840.943373
418.553753	10906.778322
418.933121	11399.263764
419.312428	11410.810527
419.691674	11475.077677
420.070859	11959.381327
420.449983	11813.757516
420.829045	12376.887168
421.208047	12311.700008
421.586988	12803.935913
421.965867	13143.331596
422.344686	13254.889810
422.723444	13850.688659
423.102141	12832.302486
423.480777	13970.640395
423.859352	13636.053973
424.237866	14698.109142
424.616319	14551.701431
424.994712	15220.133225
425.373044	15125.672084
425.751314	15832.300701
426.129524	15119.355519
426.507673	16190.366297
426.885762	16016.512025
427.263789	16253.652943
427.641756	16488.318654
428.019662	16609.639063
428.397508	16720.932616
428.775292	17052.814459
429.153016	17089.221672
429.530679	17215.537864
429.908282	17284.205941
430.285824	17078.186586
430.663305	17800.299107
431.040726	17459.065924
431.418086	17333.266450
431.795385	17995.550557
432.172624	18457.153892
432.549802	18052.674392
432.926920	18293.160116
433.303977	18186.091049
433.680974	18478.593919
434.057910	18786.953738
434.434786	18842.582871
434.811601	18790.449778
435.188355	19846.672332
435.565050	19528.620895
435.941683	19519.907260
436.318257	20412.337685
436.694770	20220.078159
437.071222	20815.612348
437.447614	19906.702392
437.823946	19945.786458
438.200218	20114.907087
438.576429	19906.473020
438.952580	20216.022551
439.328670	20183.769249
439.704700	20617.701689
440.080670	20192.540856
440.456580	20805.220010
440.832429	20981.448666
441.208218	19993.644652
441.583947	20439.322981
441.959616	20556.890251
442.335224	20815.430867
442.710773	20957.006631
443.086261	21515.614368
443.461689	20854.232628
443.837057	21012.666011
444.212365	21671.267555
444.587612	21680.956653
444.962800	21271.831730
445.337927	21709.116538
445.712995	20420.315311
446.088002	22319.055824
446.462949	22526.068287
446.837837	22732.853897
447.212664	22742.570721
447.587431	25743.257054
447.962139	28707.332007
448.336786	30981.767032
448.711374	29274.426527
449.085901	25563.139147
449.460369	25578.892753
449.834776	25605.588183
450.209124	28169.461056
450.583412	27634.645045
450.957640	28096.016486
451.331808	26758.598371
451.705917	25388.274123
452.079965	25437.904283
452.453954	25839.590983
452.827883	25741.210345
453.201752	25531.503387
453.575562	25707.550561
453.949311	26848.736722
454.323001	26918.486127
454.696632	26701.340945
455.070202	28316.932450
455.443713	28490.204470
455.817164	29079.638863
456.190556	29625.706730
456.563888	29044.139057
456.937160	29455.172057
457.310373	27752.413960
457.683526	28213.102325
458.056619	28211.479074
458.429653	28191.100209
458.802628	28806.221802
459.175542	28952.251426
459.548398	30318.114252
459.921194	31952.468931
460.293930	32728.645307
460.666607	34817.893545
461.039224	36601.973015
461.411782	36930.162212
461.784280	35638.570706
462.156719	35089.853713
462.529099	34490.752907
462.901419	33170.694005
463.273680	32127.797742
463.645882	32279.221400
464.018024	32277.517490
464.390106	33235.354365
464.762130	36180.227563
465.134094	40539.923274
465.505999	46022.462907
465.877845	50516.664163
466.249631	51475.821820
466.621358	49600.305902
466.993026	47376.237046
467.364634	45238.346714
467.736184	43286.699290
468.107674	42016.588141
468.479105	41216.448640
468.850477	40496.163538
469.221790	39040.734531
469.593043	37271.203832
469.964238	36359.057455
470.335373	36329.871695
470.706449	38231.258814
471.077467	41056.326471
471.448425	45691.289346
471.819324	48370.962564
472.190164	46322.829976
472.560945	42700.080382
472.931667	39559.043285
473.302330	38479.419695
473.672934	37640.410378
474.043479	38188.303142
474.413965	37393.890393
474.784393	37028.641153
475.154761	37944.170144
475.525070	37993.548246
475.895321	37506.361056
476.265513	38147.333685
476.635645	39140.244388
477.005719	38996.894137
477.375734	39500.560859
477.745691	40241.038303
478.115588	41616.587706
478.485427	43764.608237
478.855207	47259.403264
479.224928	49887.825591
479.594591	51406.284144
479.964194	50310.828811
480.333739	50427.473549
480.703226	50540.471012
481.072653	51190.585774
481.442022	51646.495125
481.811333	51857.865665
482.180584	50566.080074
482.549777	50041.520290
482.918912	49517.131905
483.287988	49197.724397
483.657005	48375.242503
484.025964	47692.163637
484.394864	47694.487608
484.763706	47261.870909
485.132489	46379.018677
485.501213	46220.650829
485.869879	46365.727675
486.238487	45962.949565
486.607036	46152.824624
486.975527	45590.410816
487.343959	45818.402040
487.712333	45885.719088
488.080648	45783.557585
488.448905	46227.978146
488.817104	46051.752010
489.185244	47081.952128
489.553326	48881.150018
489.921350	51643.722490
490.289315	54438.228152
490.657222	54940.125429
491.025070	55147.384907
491.392861	54219.127003
491.760593	52969.339265
492.128267	51264.133688
492.495883	49725.452547
492.863440	48311.754212
493.230939	46942.871735
493.598380	45843.078488
493.965763	45505.681623
494.333088	44695.648858
494.700354	44195.037076
495.067563	43888.449222
495.434713	43746.097120
495.801805	43820.502030
496.168839	43431.077937
496.535815	43099.352369
496.902733	43114.027168
497.269593	42674.430991
497.636395	42626.850061
498.003139	43010.716282
498.369825	42453.202475
498.736453	42766.474899
499.103023	42271.536935
499.469535	42155.779439
499.835989	42246.444591
500.202385	41899.817373
500.568723	41922.926023
500.935003	42115.293933
501.301226	41920.970055
501.667390	42515.175900
502.033497	42776.378245
502.399546	42197.560522
502.765537	41484.156595
503.131470	41858.137113
503.497345	42242.484765
503.863163	40868.228418
504.228923	41517.423169
504.594625	41922.305961
504.960269	41173.903823
505.325856	41890.385375
505.691385	41245.682292
506.056856	41365.134953
506.422270	41819.352996
506.787625	41386.038097
507.152924	41591.263470
507.518164	41684.398787
507.883347	40873.972813
508.248472	41129.231638
508.613540	41626.891825
508.978550	41923.218410
509.343503	41672.814216
509.708398	41875.508930
510.073236	42408.739498
510.438016	42412.253183
510.802738	41853.113604
511.167403	42501.811801
511.532010	42724.426634
511.896561	43017.662992
512.261053	43884.234818
512.625488	43432.756641
512.989866	43304.494563
513.354186	43135.522648
513.718449	43133.917041
514.082655	43803.588959
514.446803	43455.207419
514.810894	44003.264022
515.174927	43913.070217
515.538904	43814.102285
515.902822	44486.201519
516.266684	43930.822641
516.630488	44356.626221
516.994235	44207.455958
517.357925	44778.326302
517.721558	44962.013345
518.085133	45268.938956
518.448651	45383.831893
518.812112	45149.514021
519.175516	45262.501402
519.538863	45577.712150
519.902152	45560.952834
520.265385	46028.928186
520.628560	46044.752368
520.991678	45826.150293
521.354739	46070.454691
521.717743	46382.063534
522.080690	46262.124402
522.443580	46810.990109
522.806413	46848.970162
523.169189	46809.213102
523.531908	47000.255189
523.894569	46838.227463
524.257174	47010.632404
524.619722	47306.530491
524.982213	47274.322559
525.344647	47184.045576
525.707025	47252.564939
526.069345	47658.657607
526.431608	47557.032987
526.793815	47888.466167
527.155964	47404.449863
527.518057	47565.527331
527.880093	47344.364350
528.242072	47861.722846
528.603995	47572.892457
528.965860	47571.228876
529.327669	47651.070671
529.689421	47569.555213
530.051117	47521.918830
530.412755	47668.651695
530.774337	47730.945233
531.135862	47536.308804
531.497331	47718.947287
531.858743	47615.951473
532.220098	47953.149212
532.581396	47668.525666
532.942638	47318.009198
533.303824	47648.388777
533.664953	47620.750651
534.026025	47317.719332
534.387040	47800.717323
534.747999	47759.558822
535.108902	47920.469932
535.469748	47410.509330
535.830537	47514.543622
536.191270	47713.210454
536.551947	47361.922689
536.912567	47662.907300
537.273131	47804.044484
537.633638	47286.562480
537.994089	47626.343811
538.354483	47204.368987
538.714821	47787.333059
539.075103	48127.505080
539.435328	47897.918331
539.795497	47730.481447
540.155609	47758.139738
540.515665	48224.050738
540.875665	47658.372782
541.235609	47982.556783
541.595496	47958.069378
541.955328	48640.089603
542.315102	47980.270620
542.674821	47749.592461
543.034483	47783.947925
543.394090	47772.260009
543.753640	47720.590703
544.113134	48729.776771
544.472571	47714.067450
544.831953	48958.791349
545.191278	48162.747786
545.550548	47861.017085
545.909761	48338.394189
546.268918	48524.392602
546.628019	48826.143468
546.987064	48393.665400
547.346053	47638.825708
547.704986	48529.637922
548.063863	48072.548941
548.422684	48242.723172
548.781449	48073.602542
549.140158	48477.731682
549.498811	48324.717539
549.857408	47738.302797
550.215949	48594.885576
550.574434	48514.169142
550.932864	48247.227443
551.291237	48981.889916
551.649555	48580.984595
552.007817	48808.459100
552.366022	48437.278942
552.724173	48612.413668
553.082267	49007.778762
553.440305	49277.203229
553.798288	48570.693079
554.156215	48892.273324
554.514086	49090.975444
554.871902	48800.486515
555.229661	48828.709415
555.587365	48643.883071
555.945014	48752.656048
556.302606	48655.500410
556.660143	48893.745341
557.017625	48959.892841
557.375050	48754.339793
557.732421	49080.106716
558.089735	49054.532943
558.446994	48964.021546
558.804197	49422.398542
559.161345	49342.733188
559.518437	48562.972552
559.875474	48882.712776
560.232455	49057.519827
560.589381	49227.444520
560.946251	48894.940094
561.303065	49571.775492
561.659825	49346.922387
562.016528	49027.829951
562.373177	48740.393441
562.729770	49230.817052
563.086307	48724.465915
563.442789	49163.013532
563.799216	49203.824193
564.155587	48982.930914
564.511904	49009.742291
564.868164	49088.563252
565.224370	49313.476851
565.580520	49044.402744
565.936615	49272.008320
566.292654	48949.785328
566.648638	49202.949553
567.004567	49163.139561
567.360441	49196.237257
567.716260	49065.192463
568.072023	49336.759420
568.427732	49292.142688
568.783385	48829.631946
569.138982	49218.360361
569.494525	49166.602834
569.850013	48898.627698
570.205445	48893.359693
570.560823	48817.477724
570.916145	48706.385817
571.271412	48724.097911
571.626625	48473.424016
571.981782	48495.325308
572.336884	48168.235082
572.691931	48485.202672
573.046923	48082.467411
573.401860	47920.439686
573.756743	47874.141729
574.111570	47970.760483
574.466342	47823.841096
574.821059	47923.229964
575.175722	47438.714586
575.530330	47454.929457
575.884882	47144.938825
576.239380	47100.072556
576.593823	47056.264929
576.948211	46972.450705
577.302544	46485.140007
577.656823	46493.949423
578.011047	46727.440546
578.365216	46445.037628
578.719330	46221.812815
579.073389	46056.047073
579.427394	46128.317055
579.781344	46090.818432
580.135239	45729.032465
580.489080	45784.366690
580.842866	45257.319096
581.196597	45709.742489
581.550273	45653.352143
581.903895	45525.052257
582.257463	45913.543737
582.610975	45291.004086
582.964434	45567.057671
583.317837	45198.682915
583.671186	45043.750614
584.024481	45243.259318
584.377721	44741.041928
584.730906	45012.336663
585.084037	45063.254838
585.437113	44764.483293
585.790135	44778.280932
586.143103	44353.472979
586.496016	44463.470956
586.848874	44480.704141
587.201679	44497.866749
587.554428	43973.380062
587.907124	44157.543494
588.259765	43898.435748
588.612352	44151.252134
588.964884	43518.841904
589.317362	43789.251917
589.669786	43730.504831
590.022155	43500.124100
590.374470	43893.765119
590.726731	43423.604426
591.078937	42918.221191
591.431090	43025.880073
591.783188	42663.249712
592.135232	42338.695186
592.487222	42589.671551
592.839157	42666.884384
593.191038	42328.512055
593.542866	42068.892632
593.894639	41476.393218
594.246358	41752.555187
594.598022	41714.436503
594.949633	41319.313385
595.301190	41270.908225
595.652692	41093.038674
596.004141	41407.969637
596.355535	40417.818966
596.706876	40356.652126
597.058162	40207.988499
597.409395	40656.686479
597.760573	40727.935627
598.111698	40310.785187
598.462768	40316.758955
598.813785	40352.130211
599.164748	39810.657355
599.515657	40164.316983
599.866511	39663.168317
600.217312	40263.955389
600.568060	39247.711705
600.918753	39992.370787
601.269392	39927.297053
601.619978	39595.014438
601.970510	39804.532353
602.320988	39972.637190
602.671412	40267.267427
603.021783	40021.609479
603.372100	39666.581178
603.722363	39743.819217
604.072572	39825.543883
604.422728	39848.017347
604.772830	39652.738170
605.122878	39771.142271
605.472872	39699.991426
605.822813	39960.114964
606.172701	39788.720774
606.522534	40046.142254
606.872314	40299.361933
607.222041	40061.159852
607.571714	40428.992683
607.921333	39876.300740
608.270899	40153.770889
608.620411	40507.662410
608.969870	40294.542590
609.319276	40302.298405
609.668627	40352.898987
610.017926	40825.708806
610.367171	40986.970276
610.716362	41056.523076
611.065500	41008.967351
611.414585	41186.786491
611.763616	41500.084120
612.112594	41432.376383
612.461518	41634.382979
612.810389	41937.981429
613.159207	41809.033754
613.507971	41879.020093
613.856682	42349.679860
614.205340	42242.893098
614.553945	42949.554483
614.902496	42385.467012
615.250994	42861.407387
615.599439	42916.277826
615.947830	43117.997077
616.296169	43183.514433
616.644454	43309.230728
616.992686	43486.283612
617.340864	43988.175848
617.688990	43697.291189
618.037063	44321.998535
618.385082	44281.041681
618.733048	44562.693467
619.080961	44578.923462
619.428821	44597.177480
619.776628	44698.769333
620.124382	44531.115679
620.472083	44653.731664
620.819731	44786.172858
621.167326	44434.857367
621.514868	44420.169965
621.862357	43973.992562
622.209793	44016.028223
622.557176	43665.965459
622.904506	43420.113427
623.251783	43055.133888
623.599007	42833.202132
623.946179	42628.211172
624.293297	42553.362640
624.640363	41975.590957
624.987376	41951.552215
625.334336	41719.835578
625.681243	41374.864379
626.028097	41318.007726
626.374899	41188.417304
626.721647	41164.628099
627.068343	41049.077292
627.414987	40823.561274
627.761577	40599.983581
628.108115	40936.651999
628.454600	40373.708870
628.801032	40572.322769
629.147412	40524.948526
629.493739	40525.351818
629.840014	40170.182365
630.186236	40523.408454
630.532405	40114.081885
630.878521	40333.409886
631.224585	40202.808713
631.570597	39899.293443
631.916556	40064.686139
632.262462	40018.181495
632.608316	40037.282427
632.954117	39926.621538
633.299866	39896.213298
633.645562	39829.609573
633.991206	39336.068009
634.336797	38901.132378
634.682336	38877.907783
635.027823	38636.489446
635.373257	38451.012793
