Dividing Wavelength (nm)	Counts (n)	Blue Motor Position (mm): 22.000000	Red Motor Position (mm): 0.000000	
326.493990	2102.662749
326.888308	2102.662749
327.282561	2102.662749
327.676750	2078.303893
328.070874	2079.571743
328.464933	2087.647672
328.858929	2097.251070
329.252859	2110.479058
329.646726	2124.238887
330.040528	2141.860240
330.434265	2159.668116
330.827938	2177.594459
331.221547	2197.660772
331.615091	2219.501571
332.008571	2241.037381
332.401986	2260.108066
332.795338	2279.932403
333.188625	2300.424693
333.581847	2318.988743
333.975006	2336.723522
334.368100	2353.903774
334.761129	2372.087216
335.154095	2391.659496
335.546996	2429.311874
335.939833	2497.677482
336.332606	2508.049656
336.725315	2520.604649
337.117960	2529.517409
337.510540	2540.265149
337.903056	2547.814277
338.295508	2552.767211
338.687896	2562.075702
339.080220	2568.384706
339.472480	2570.126424
339.864676	2575.298648
340.256807	2576.584142
340.648875	2580.178485
341.040879	2580.014648
341.432818	2581.365677
341.824694	2582.631006
342.216506	2583.087231
342.608253	2581.819381
342.999937	2584.365163
343.391557	2579.830645
343.783113	2579.591191
344.174605	2576.984914
344.566033	2574.194635
344.957397	2572.193297
345.348697	2573.390571
345.739934	2570.131465
346.131106	2568.712381
346.522215	2569.796229
346.913260	2568.104922
347.304241	2566.731207
347.695159	2561.846329
348.086012	2565.163408
348.476802	2560.936401
348.867528	2559.718962
349.258191	2559.151832
349.648789	2561.644683
350.039324	2556.149825
350.429796	2557.984805
350.820203	2554.874413
351.210548	2554.085473
351.600828	2552.321069
351.991045	2553.440205
352.381198	2550.203784
352.771288	2550.042467
353.161314	2549.412323
353.551276	2549.268650
353.941175	2550.657488
354.331010	2549.946685
354.720782	2552.938610
355.110490	2554.458518
355.500135	2552.406768
355.889717	2549.750080
356.279235	2553.404917
356.668689	2552.898281
357.058080	2552.681511
357.447408	2550.838970
357.836672	2552.787376
358.225873	2554.667726
358.615010	2548.177240
359.004084	2556.457336
359.393095	2554.720658
359.782043	2556.895916
360.170927	2560.102090
360.559748	2555.499516
360.948505	2559.010680
361.337199	2560.039075
361.725830	2561.531257
362.114398	2561.614436
362.502903	2565.715415
362.891344	2564.021587
363.279722	2559.605536
363.668037	2560.235680
364.056289	2561.647203
364.444478	2562.889848
364.832603	2561.470763
365.220665	2566.181721
365.608665	2564.820610
365.996601	2566.189283
366.384474	2565.302040
366.772284	2564.888665
367.160031	2565.443192
367.547715	2568.740107
367.935336	2563.519992
368.322893	2565.576783
368.710388	2569.067782
369.097820	2567.905796
369.485189	2565.279355
369.872495	2569.977710
370.259738	2565.405384
370.646918	2567.028635
371.034035	2570.544840
371.421090	2570.605334
371.808081	2569.488718
372.195010	2569.410580
372.581875	2568.760272
372.968678	2572.442834
373.355418	2570.993503
373.742096	2569.438307
374.128710	2571.774882
374.515262	2573.725808
374.901751	2573.088102
375.288177	2573.632547
375.674540	2572.273956
376.060841	2574.134142
376.447079	2574.686148
376.833254	2574.474419
377.219367	2570.509552
377.605417	2570.817062
377.991404	2574.688668
378.377329	2572.175653
378.763191	2569.778585
379.148991	2575.288566
379.534727	2575.230592
379.920402	2574.383679
380.306013	2577.254616
380.691563	2576.977352
381.077049	2578.968608
381.462474	2577.920048
381.847835	2578.640933
382.233134	2575.906107
382.618371	2578.547672
383.003545	2575.706982
383.388657	2580.541448
383.773706	2579.878536
384.158693	2580.692683
384.543618	2581.098496
384.928480	2580.551530
385.313280	2580.175964
385.698017	2580.501119
386.082692	2582.837694
386.467305	2580.962384
386.851856	2580.619586
387.236344	2581.095975
387.620770	2583.616552
388.005133	2582.028588
388.389435	2583.200657
388.773674	2582.633527
389.157851	2582.731829
389.541965	2581.597570
389.926018	2583.001531
390.310008	2582.663774
390.693936	2588.095617
391.077802	2585.958168
391.461606	2586.429516
391.845348	2589.280288
392.229027	2585.355750
392.612645	2583.949268
392.996200	2586.144691
393.379694	2587.344485
393.763125	2585.252406
394.146494	2589.920515
394.529801	2587.863724
394.913047	2589.363467
395.296230	2591.745412
395.679351	2590.293560
396.062410	2589.280288
396.445408	2589.623087
396.828343	2590.616194
397.211217	2589.681060
397.594028	2590.495206
397.976778	2582.673856
398.359466	2587.407500
398.742092	2588.166193
399.124656	2592.488983
399.507158	2593.177100
399.889598	2593.250197
400.271977	2593.477049
400.654294	2593.509816
401.036549	2594.954107
401.418742	2593.093921
401.800874	2592.461256
402.182944	2593.776998
402.564952	2595.725403
402.946898	2595.397728
403.328783	2594.654158
403.710606	2595.579210
404.092367	2594.535691
404.474067	2597.235229
404.855705	2594.137440
405.237282	2598.099787
405.618797	2594.417224
406.000250	2598.240939
406.381642	2596.700867
406.762972	2596.345465
407.144240	2598.543408
407.525447	2600.459047
407.906593	2598.692122
408.287677	2597.643563
408.668700	2599.723038
409.049661	2602.309150
409.430560	2600.695981
409.811399	2598.941660
410.192176	2603.987855
410.572891	2597.900661
410.953545	2600.660693
411.334138	2601.111876
411.714669	2598.866042
412.095139	2602.077257
412.475547	2600.837133
412.855894	2601.119438
413.236180	2600.454006
413.616405	2603.730756
413.996568	2603.841661
414.376670	2602.283945
414.756711	2602.225971
415.136691	2606.647063
415.516609	2605.233020
415.896466	2603.985334
416.276262	2607.383072
416.655997	2604.514655
417.035670	2602.651949
417.415283	2604.731425
417.794834	2602.357041
418.174324	2607.647732
418.553753	2606.705037
418.933121	2607.831734
419.312428	2607.355345
419.691674	2608.834924
420.070859	2609.560850
420.449983	2606.810901
420.829045	2609.470109
421.208047	2609.991869
421.586988	2609.613782
421.965867	2609.003803
422.344686	2609.538165
422.723444	2612.562857
423.102141	2610.211159
423.480777	2611.804164
423.859352	2607.995572
424.237866	2612.421705
424.616319	2614.468413
424.994712	2613.538321
425.373044	2611.738629
425.751314	2615.244751
426.129524	2616.898250
426.507673	2614.377673
426.885762	2615.358177
427.263789	2614.866665
427.641756	2618.672736
428.019662	2614.118053
428.397508	2618.551748
428.775292	2618.581995
429.153016	2618.602160
429.530679	2616.255502
429.908282	2617.689711
430.285824	2618.120729
430.663305	2619.060905
431.040726	2618.793723
431.418086	2616.794906
431.795385	2622.067953
432.172624	2620.265740
432.549802	2620.364043
432.926920	2620.772376
433.303977	2620.026286
433.680974	2621.513426
434.057910	2620.295987
434.434786	2621.508385
434.811601	2620.212808
435.188355	2619.844804
435.565050	2622.060391
435.941683	2623.557614
436.318257	2622.872017
436.694770	2621.722634
437.071222	2623.255145
437.447614	2620.636265
437.823946	2618.811367
438.200218	2624.979219
438.576429	2626.302522
438.952580	2625.359826
439.328670	2625.029631
439.704700	2628.936525
440.080670	2624.472583
440.456580	2628.739920
440.832429	2628.180352
441.208218	2627.590537
441.583947	2624.815382
441.959616	2627.474590
442.335224	2629.624642
442.710773	2630.141361
443.086261	2630.922740
443.461689	2629.654889
443.837057	2632.548512
444.212365	2631.822586
444.587612	2631.525157
444.962800	2633.584469
445.337927	2635.031280
445.712995	2635.069089
446.088002	2637.846764
446.462949	2638.746610
446.837837	2639.477578
447.212664	2638.328195
447.587431	2645.259781
447.962139	2647.248516
448.336786	2654.530463
448.711374	2653.986018
449.085901	2646.651140
449.460369	2646.371356
449.834776	2650.782365
450.209124	2652.781183
450.583412	2654.704383
450.957640	2656.408293
451.331808	2655.442912
451.705917	2652.524084
452.079965	2657.502223
452.453954	2656.499034
452.827883	2659.284271
453.201752	2659.962306
453.575562	2662.971875
453.949311	2666.241063
454.323001	2668.754079
454.696632	2667.072854
455.070202	2673.336488
455.443713	2673.538134
455.817164	2674.614420
456.190556	2676.477126
456.563888	2679.509380
456.937160	2677.094668
457.310373	2679.874864
457.683526	2684.890812
458.056619	2686.892150
458.429653	2686.390555
458.802628	2691.517409
459.175542	2691.613191
459.548398	2701.055272
459.921194	2704.944522
460.293930	2710.320913
460.666607	2717.118909
461.039224	2726.225753
461.411782	2734.105077
461.784280	2731.226578
462.156719	2731.110631
462.529099	2733.137175
462.901419	2730.891341
463.273680	2732.358317
463.645882	2732.713718
464.018024	2736.973493
464.390106	2744.530183
464.762130	2759.313366
465.134094	2779.278856
465.505999	2808.421767
465.877845	2834.784481
466.249631	2843.787981
466.621358	2840.848989
466.993026	2840.753207
467.364634	2839.508042
467.736184	2833.204079
468.107674	2834.648369
468.479105	2836.097701
468.850477	2840.148268
469.221790	2839.160202
469.593043	2834.928153
469.964238	2838.207424
470.335373	2844.345029
470.706449	2869.727238
471.077467	2904.261663
471.448425	2945.987293
471.819324	2979.810915
472.190164	2978.250678
472.560945	2963.480097
472.931667	2950.070628
473.302330	2957.110599
473.672934	2966.371199
474.043479	2987.009683
474.413965	2996.192144
474.784393	3006.869308
475.154761	3040.319885
475.525070	3057.545507
475.895321	3075.247519
476.265513	3103.359513
476.635645	3150.829539
477.005719	3172.864422
477.375734	3210.720967
477.745691	3254.266454
478.115588	3315.738284
478.485427	3393.132598
478.855207	3516.098943
479.224928	3621.832104
479.594591	3705.275803
479.964194	3722.982856
480.333739	3775.960342
480.703226	3842.569108
481.072653	3934.860032
481.442022	4029.613559
481.811333	4104.993933
482.180584	4137.055671
482.549777	4195.921225
482.918912	4262.540073
483.287988	4334.348789
483.657005	4388.654619
484.025964	4450.930513
484.394864	4540.042989
484.763706	4610.596458
485.132489	4669.852701
485.501213	4760.507770
485.869879	4876.129154
486.238487	4964.031754
486.607036	5085.266463
486.975527	5168.669833
487.343959	5305.380884
487.712333	5436.385349
488.080648	5560.982507
488.448905	5726.786057
488.817104	5857.349421
489.185244	6090.321305
489.553326	6421.020997
489.921350	6864.793771
490.289315	7343.353026
490.657222	7605.019157
491.025070	7835.031884
491.392861	7912.274964
491.760593	7950.388607
492.128267	7939.356042
492.495883	7949.017413
492.863440	7984.895305
493.230939	8016.468052
493.598380	8079.174965
493.965763	8233.454437
494.333088	8335.520158
494.700354	8474.247671
495.067563	8643.751428
495.434713	8830.127927
495.801805	9067.888907
496.168839	9226.244152
496.535815	9390.747084
496.902733	9622.133525
497.269593	9775.475343
497.636395	9991.856789
498.003139	10304.748606
498.369825	10437.459501
498.736453	10737.176262
499.103023	10882.059024
499.469535	11103.542118
499.835989	11378.196782
500.202385	11553.041642
500.568723	11818.589462
500.935003	12124.796708
501.301226	12339.955675
501.667390	12779.975309
502.033497	13127.784677
502.399546	13249.369746
502.765537	13333.647756
503.131470	13716.956930
503.497345	14112.221200
503.863163	14005.968801
504.228923	14466.682371
504.594625	14890.845056
504.960269	14956.639675
505.325856	15486.427136
505.691385	15562.084773
506.056856	15913.896818
506.422270	16361.422730
506.787625	16522.422060
507.152924	16899.104637
507.518164	17254.216117
507.883347	17244.574910
508.248472	17667.182399
508.613540	18191.875773
508.978550	18646.638262
509.343503	18856.279686
509.708398	19271.532131
510.073236	19818.237704
510.438016	20151.770525
510.802738	20220.342820
511.167403	20842.516986
511.532010	21271.388109
511.896561	21743.658524
512.261053	22512.789887
512.625488	22604.581737
512.989866	22880.748748
513.354186	23130.331233
513.718449	23447.066930
514.082655	24153.672861
514.446803	24296.221569
514.810894	24927.101808
515.174927	25203.409971
515.538904	25465.494518
515.902822	26179.531111
516.266684	26182.691914
516.630488	26758.081652
516.994235	26982.657494
517.357925	27659.818047
517.721558	28088.661443
518.085133	28599.116078
518.448651	29001.879065
518.812112	29161.814712
519.175516	29542.898216
519.538863	30079.816389
519.902152	30346.495948
520.265385	30989.149802
520.628560	31289.237087
520.991678	31444.733998
521.354739	31906.969997
521.717743	32422.611980
522.080690	32616.645992
522.443580	33303.951866
522.806413	33638.548370
523.169189	33884.526431
523.531908	34299.851973
523.894569	34436.263075
524.257174	34845.183831
524.619722	35343.322928
524.982213	35589.124548
525.344647	35781.648734
525.707025	36073.990287
526.069345	36642.597153
526.431608	36818.581313
526.793815	37311.986766
527.155964	37180.523556
527.518057	37539.040336
527.880093	37610.758311
528.242072	38277.884446
528.603995	38257.359388
528.965860	38462.983013
529.327669	38750.747198
529.689421	38880.778720
530.051117	39052.366994
530.412755	39385.408302
530.774337	39644.697530
531.135862	39662.694449
531.497331	40027.240448
531.858743	40139.983333
532.220098	40603.293098
532.581396	40533.016893
532.942638	40398.294577
533.303824	40851.544719
533.664953	41003.422082
534.026025	40904.378532
534.387040	41492.565239
534.747999	41607.848866
535.108902	41927.130345
535.469748	41614.621656
535.830537	41869.830070
536.191270	42191.309492
536.551947	42014.377595
536.912567	42436.107922
537.273131	42701.242368
537.633638	42340.459590
537.994089	42790.390133
538.354483	42531.912531
538.714821	43215.485431
539.075103	43648.780165
539.435328	43537.630285
539.795497	43542.363928
540.155609	43657.203933
540.515665	44217.399634
540.875665	43798.262980
541.235609	44207.955032
541.595496	44295.519875
541.955328	45049.401747
542.315102	44537.714549
542.674821	44435.031287
543.034483	44560.374536
543.394090	44635.349097
543.753640	44673.971897
544.113134	45744.269352
544.472571	44859.229259
544.831953	46173.279106
545.191278	45488.982801
545.550548	45285.874712
545.909761	45821.961095
546.268918	46080.055569
546.628019	46473.941083
546.987064	46114.098481
547.346053	45478.993754
547.704986	46407.062616
548.063863	46032.807354
548.422684	46283.801363
548.781449	46193.559668
549.140158	46649.274935
549.498811	46555.063331
549.857408	46068.972592
550.215949	46938.906867
550.574434	46940.520036
550.932864	46756.006244
551.291237	47521.760034
551.649555	47184.816872
552.007817	47473.453177
552.366022	47181.406532
552.724173	47398.392917
553.082267	47831.896859
553.440305	48151.984923
553.798288	47507.460801
554.156215	47864.986993
554.514086	48121.007032
554.871902	47901.021161
555.229661	47954.359089
555.587365	47821.043255
555.945014	47966.374679
556.302606	47921.205941
556.660143	48195.734577
557.017625	48281.570303
557.375050	48123.784708
557.732421	48477.267895
558.089735	48505.899129
558.446994	48453.297209
558.804197	48935.483574
559.161345	48897.740455
559.518437	48176.489972
559.875474	48507.983646
560.232455	48710.194409
560.589381	48900.818080
560.946251	48619.602354
561.303065	49302.323298
561.659825	49141.326489
562.016528	48831.303089
562.373177	48567.479343
562.729770	49055.526050
563.086307	48594.371379
563.442789	49083.149053
563.799216	49109.821798
564.155587	48927.526113
564.511904	48969.564295
564.868164	49081.629145
565.224370	49318.213015
565.580520	49056.879600
565.936615	49273.465213
566.292654	49008.890336
566.648638	49295.477412
567.004567	49252.730947
567.360441	49294.476742
567.716260	49182.127067
568.072023	49449.877872
568.427732	49442.835380
568.783385	48990.308643
569.138982	49397.046579
569.494525	49350.637717
569.850013	49106.482033
570.205445	49101.937433
570.560823	49049.040606
570.916145	48937.396692
571.271412	48961.193459
571.626625	48716.291684
571.981782	48759.577552
572.336884	48435.771637
572.691931	48765.059807
573.046923	48361.742293
573.401860	48213.975992
573.756743	48174.939817
574.111570	48303.159044
574.466342	48147.465528
574.821059	48273.499416
575.175722	47772.801933
575.530330	47785.626629
575.884882	47506.651696
576.239380	47461.608986
576.593823	47421.168850
576.948211	47355.107049
577.302544	46881.067188
577.656823	46880.704225
578.011047	47112.758619
578.365216	46834.018100
578.719330	46616.925850
579.073389	46465.565206
579.427394	46540.312915
579.781344	46504.782862
580.135239	46155.355284
580.489080	46212.842082
580.842866	45684.521597
581.196597	46136.327448
581.550273	46084.300220
581.903895	45947.455578
582.257463	46354.919441
582.610975	45710.833899
582.964434	46009.872625
583.317837	45619.069776
583.671186	45464.656713
584.024481	45687.561412
584.377721	45181.288414
584.730906	45484.846534
585.084037	45515.108581
585.437113	45224.208798
585.790135	45258.647440
586.143103	44834.237739
586.496016	44942.037773
586.848874	44954.922962
587.201679	44986.266336
587.554428	44456.355367
587.907124	44639.697092
588.259765	44387.261313
588.612352	44630.045803
588.964884	43991.818082
589.317362	44284.477227
589.669786	44226.377929
590.022155	43977.198736
590.374470	44399.707922
590.726731	43920.450467
591.078937	43417.786934
591.431090	43522.148901
591.783188	43175.743494
592.135232	42853.021428
592.487222	43099.465795
592.839157	43178.087631
593.191038	42827.939167
593.542866	42570.641195
593.894639	41964.518062
594.246358	42262.248609
594.598022	42233.718198
594.949633	41819.549601
595.301190	41772.616459
595.652692	41614.339352
596.004141	41948.459467
596.355535	40934.771649
596.706876	40868.987112
597.058162	40722.022353
597.409395	41189.097860
597.760573	41267.913780
598.111698	40850.843999
598.462768	40843.816630
598.813785	40892.085678
599.164748	40318.881280
599.515657	40713.429707
599.866511	40196.497188
600.217312	40819.440131
600.568060	39770.801993
600.918753	40518.831086
601.269392	40476.681999
601.619978	40110.764806
601.970510	40312.758799
602.320988	40501.509681
602.671412	40814.356127
603.021783	40560.735677
603.372100	40201.263599
603.722363	40318.561167
604.072572	40374.475125
604.422728	40401.619218
604.772830	40195.110871
605.122878	40313.456999
605.472872	40239.972099
605.822813	40498.008600
606.172701	40323.652732
606.522534	40580.713770
606.872314	40840.116423
607.222041	40580.348286
607.571714	40991.114105
607.921333	40413.627246
608.270899	40706.835878
608.620411	41058.123642
608.969870	40839.551814
609.319276	40837.936124
609.668627	40884.710470
610.017926	41376.979143
610.367171	41515.638601
610.716362	41605.350974
611.065500	41540.836808
611.414585	41727.866136
611.763616	42024.641384
612.112594	41943.710700
612.461518	42177.300125
612.810389	42479.842453
613.159207	42349.001825
613.507971	42420.392125
613.856682	42876.982032
614.205340	42768.428346
614.553945	43470.524965
614.902496	42917.323866
615.250994	43393.667534
615.599439	43457.874190
615.947830	43657.108152
616.296169	43710.874578
616.644454	43827.007639
616.992686	44003.178322
617.340864	44517.040777
617.688990	44209.926123
618.037063	44832.488459
618.385082	44786.001459
618.733048	45076.838227
619.080961	45082.025574
619.428821	45115.128311
619.776628	45220.238889
620.124382	45047.871757
620.472083	45190.838880
620.819731	45310.730121
621.167326	44989.684239
621.514868	44979.324668
621.862357	44522.258372
622.209793	44565.488787
622.557176	44220.872989
622.904506	43948.890136
623.251783	43625.764777
623.599007	43387.512285
623.946179	43184.048795
624.293297	43130.050476
624.640363	42526.589072
624.987376	42527.733414
625.334336	42273.833180
625.681243	41920.329828
626.028097	41876.658313
626.374899	41724.793553
626.721647	41712.412479
627.068343	41612.416152
627.414987	41368.121836
627.761577	41122.017747
628.108115	41457.529220
628.454600	40908.648389
628.801032	41102.505961
629.147412	41050.234236
629.493739	41032.723788
629.840014	40688.838958
630.186236	41027.349918
630.532405	40602.806627
630.878521	40819.399802
631.224585	40682.461899
631.570597	40408.712121
631.916556	40569.716493
632.262462	40509.472184
632.608316	40526.750739
632.954117	40429.128794
633.299866	40397.750132
633.645562	40348.014108
633.991206	39844.848981
634.336797	39404.930170
634.682336	39393.557327
635.027823	39159.788941
635.373257	38984.966767
635.718639	38740.150692
636.063968	38607.195301
636.409245	38011.552727
636.754470	38071.242509
637.099642	37827.202772
637.444762	37348.330965
637.789829	37488.981678
638.134845	37139.770869
638.479808	37073.300735
