Dividing Wavelength (nm)	Counts (n)	Blue Motor Position (mm): 25.000000	Red Motor Position (mm): 0.000000	
326.493990	2131.745165
326.888308	2131.745165
327.282561	2131.745165
327.676750	2098.609661
328.070874	2097.349373
328.464933	2103.650815
328.858929	2108.412185
329.252859	2116.304111
329.646726	2131.097377
330.040528	2141.386372
330.434265	2159.655513
330.827938	2175.467093
331.221547	2194.363858
331.615091	2213.469831
332.008571	2233.601679
332.401986	2252.057343
332.795338	2275.720519
333.188625	2289.936573
333.581847	2309.909624
333.975006	2327.541060
334.368100	2345.437156
334.761129	2362.037676
335.154095	2380.014430
335.546996	2401.666186
335.939833	2426.012439
336.332606	2438.532144
336.725315	2451.233331
337.117960	2461.061061
337.510540	2472.098667
337.903056	2477.066724
338.295508	2487.569968
338.687896	2492.921153
339.080220	2504.039418
339.472480	2513.163906
339.864676	2514.779596
340.256807	2519.951820
340.648875	2522.522808
341.040879	2523.684794
341.432818	2524.370391
341.824694	2529.096473
342.216506	2529.091432
342.608253	2525.484486
342.999937	2526.160001
343.391557	2527.168232
343.783113	2526.827954
344.174605	2524.342665
344.566033	2521.859897
344.957397	2521.615401
345.348697	2520.534073
345.739934	2519.515760
346.131106	2516.753208
346.522215	2517.685821
346.913260	2512.024606
347.304241	2510.880264
347.695159	2509.302383
348.086012	2510.852537
348.476802	2507.061590
348.867528	2507.568226
349.258191	2504.094871
349.648789	2503.817607
350.039324	2503.338698
350.429796	2498.894920
350.820203	2500.707215
351.210548	2499.792246
351.600828	2499.830054
351.991045	2494.637666
352.381198	2498.080774
352.771288	2493.841164
353.161314	2495.109014
353.551276	2496.974241
353.941175	2494.763695
354.331010	2494.846874
354.720782	2494.683036
355.110490	2495.356030
355.500135	2493.657162
355.889717	2499.136896
356.279235	2495.895434
356.668689	2494.531802
357.058080	2496.926350
357.447408	2493.521050
357.836672	2494.864518
358.225873	2495.514827
358.615010	2493.137923
359.004084	2497.153202
359.393095	2496.954076
359.782043	2498.731083
360.170927	2499.693943
360.559748	2500.321567
360.948505	2502.290138
361.337199	2500.094715
361.725830	2502.320384
362.114398	2501.977586
362.502903	2501.904489
362.891344	2502.373317
363.279722	2504.588904
363.668037	2504.135200
364.056289	2506.396157
364.444478	2503.273163
364.832603	2505.287103
365.220665	2508.717609
365.608665	2506.444048
365.996601	2506.754079
366.384474	2506.653256
366.772284	2506.638133
367.160031	2506.471775
367.547715	2509.486385
367.935336	2510.865140
368.322893	2508.702485
368.710388	2507.293483
369.097820	2514.996366
369.485189	2506.335663
369.872495	2508.299193
370.259738	2511.011334
370.646918	2506.461692
371.034035	2509.057887
371.421090	2511.102074
371.808081	2512.072497
372.195010	2511.918741
372.581875	2508.750376
372.968678	2508.785664
373.355418	2512.337157
373.742096	2515.114833
374.128710	2510.388751
374.515262	2514.280522
374.901751	2510.401354
375.288177	2510.920593
375.674540	2511.830521
376.060841	2513.116015
376.447079	2515.014010
376.833254	2513.531911
377.219367	2508.755417
377.605417	2510.547547
377.991404	2509.009996
378.377329	2512.518639
378.763191	2509.962774
379.148991	2514.507374
379.534727	2515.447549
379.920402	2516.302025
380.306013	2513.630213
380.691563	2516.677591
381.077049	2516.349916
381.462474	2517.501819
381.847835	2514.557785
382.233134	2514.504853
382.618371	2515.248423
383.003545	2517.383352
383.388657	2516.019720
383.773706	2520.211439
384.158693	2520.047602
384.543618	2516.339833
384.928480	2517.496778
385.313280	2519.868641
385.698017	2517.411078
386.082692	2519.331758
386.467305	2517.532066
386.851856	2519.364526
387.236344	2518.565503
387.620770	2521.375946
388.005133	2517.511902
388.389435	2519.329238
388.773674	2519.256141
389.157851	2521.852335
389.541965	2520.458456
389.926018	2520.516429
390.310008	2521.416275
390.693936	2521.469207
391.077802	2520.173631
391.461606	2517.595081
391.845348	2520.256810
392.229027	2521.058353
392.612645	2522.046419
392.996200	2522.505164
393.379694	2521.033148
393.763125	2523.553724
394.146494	2520.897036
394.529801	2521.938035
394.913047	2520.503826
395.296230	2523.669671
395.679351	2522.225380
396.062410	2523.931811
396.445408	2525.701256
396.828343	2525.958355
397.211217	2521.280164
397.594028	2524.050278
397.976778	2523.389887
398.359466	2524.130937
398.742092	2519.525843
399.124656	2526.013808
399.507158	2525.330731
399.889598	2525.688653
400.271977	2526.482635
400.654294	2528.599919
401.036549	2526.827954
401.418742	2529.439272
401.800874	2524.781245
402.182944	2526.137316
402.564952	2528.194107
402.946898	2527.505989
403.328783	2526.318797
403.710606	2529.953469
404.092367	2526.409538
404.474067	2531.884231
404.855705	2526.948942
405.237282	2530.253418
405.618797	2528.310053
406.000250	2529.396422
406.381642	2528.347862
406.762972	2532.436238
407.144240	2529.598068
407.525447	2533.091588
407.906593	2529.600588
408.287677	2532.773995
408.668700	2530.891124
409.049661	2531.150743
409.430560	2533.421783
409.811399	2532.375744
410.192176	2530.460105
410.572891	2532.216947
410.953545	2530.442461
411.334138	2530.228212
411.714669	2534.026722
412.095139	2530.734848
412.475547	2533.167205
412.855894	2532.640404
413.236180	2535.473533
413.616405	2534.840868
413.996568	2532.554705
414.376670	2531.579241
414.756711	2535.518903
415.136691	2534.951773
415.516609	2534.656866
415.896466	2535.347504
416.276262	2534.926568
416.655997	2531.591844
417.035670	2530.016484
417.415283	2530.510517
417.794834	2530.868439
418.174324	2534.089736
418.553753	2534.369520
418.933121	2533.129396
419.312428	2535.632329
419.691674	2535.690302
420.070859	2534.949253
420.449983	2534.445137
420.829045	2534.813142
421.208047	2533.628470
421.586988	2536.270035
421.965867	2537.762217
422.344686	2537.827752
422.723444	2537.346321
423.102141	2539.801363
423.480777	2538.329346
423.859352	2538.233564
424.237866	2537.328677
424.616319	2537.994110
424.994712	2536.849768
425.373044	2539.685417
425.751314	2541.971580
426.129524	2539.282124
426.507673	2538.810777
426.885762	2537.220293
427.263789	2538.490663
427.641756	2539.335057
428.019662	2540.676003
428.397508	2539.622402
428.775292	2538.868750
429.153016	2538.503266
429.530679	2539.491332
429.908282	2540.817156
430.285824	2542.112732
430.663305	2539.612320
431.040726	2539.902186
431.418086	2540.305479
431.795385	2543.390665
432.172624	2543.015099
432.549802	2540.875129
432.926920	2541.832948
433.303977	2544.197249
433.680974	2542.407640
434.057910	2541.180119
434.434786	2542.342105
434.811601	2542.044677
435.188355	2542.579039
435.565050	2542.576518
435.941683	2543.488967
436.318257	2542.972249
436.694770	2540.043339
437.071222	2543.047866
437.447614	2541.059131
437.823946	2543.796478
438.200218	2546.848896
438.576429	2543.403268
438.952580	2544.986190
439.328670	2545.719678
439.704700	2543.718340
440.080670	2545.432332
440.456580	2546.475851
440.832429	2546.039791
441.208218	2546.034750
441.583947	2548.724206
441.959616	2547.053063
442.335224	2548.845193
442.710773	2546.372507
443.086261	2549.795451
443.461689	2548.204967
443.837057	2549.671942
444.212365	2548.048691
444.587612	2549.281253
444.962800	2548.840152
445.337927	2549.334185
445.712995	2551.375853
446.088002	2552.812581
446.462949	2550.188661
446.837837	2555.285267
447.212664	2553.646892
447.587431	2557.745350
447.962139	2555.675957
448.336786	2563.081412
448.711374	2561.107800
449.085901	2560.500341
449.460369	2563.126782
449.834776	2564.939077
450.209124	2565.508727
450.583412	2571.616085
450.957640	2572.649522
451.331808	2575.177660
451.705917	2572.258832
452.079965	2578.875347
452.453954	2584.914649
452.827883	2587.485638
453.201752	2590.059147
453.575562	2594.288675
453.949311	2599.861670
454.323001	2603.009871
454.696632	2610.584204
455.070202	2619.638117
455.443713	2626.947790
455.817164	2632.172946
456.190556	2643.003865
456.563888	2655.339568
456.937160	2659.642193
457.310373	2664.148985
457.683526	2671.972855
458.056619	2678.022240
458.429653	2689.458097
458.802628	2696.992102
459.175542	2711.518187
459.548398	2737.270921
459.921194	2754.126019
460.293930	2771.812907
460.666607	2817.911739
461.039224	2854.999507
461.411782	2877.881305
461.784280	2895.666496
462.156719	2901.360479
462.529099	2911.009247
462.901419	2906.333577
463.273680	2915.697520
463.645882	2933.213009
464.018024	2951.391410
464.390106	2983.990032
464.762130	3043.379865
465.134094	3123.710652
465.505999	3282.554889
465.877845	3461.203299
466.249631	3558.807599
466.621358	3539.976369
466.993026	3505.583097
467.364634	3505.288189
467.736184	3504.103518
468.107674	3504.113600
468.479105	3558.810119
468.850477	3559.384811
469.221790	3566.434865
469.593043	3559.672157
469.964238	3586.513780
470.335373	3631.251500
470.706449	3683.251002
471.077467	3736.997264
471.448425	4051.247671
471.819324	4336.024973
472.190164	4387.205287
472.560945	4180.840613
472.931667	4070.260383
473.302330	4088.055656
473.672934	4062.486924
474.043479	4199.712173
474.413965	4240.875714
474.784393	4276.546919
475.154761	4376.999471
475.525070	4462.401658
475.895321	4472.168894
476.265513	4587.649126
476.635645	4703.008370
477.005719	4780.546357
477.375734	4882.249115
477.745691	5031.374008
478.115588	5159.290766
478.485427	5318.500487
478.855207	5595.826963
479.224928	6005.672770
479.594591	6335.598646
479.964194	6357.872984
480.333739	6408.092958
480.703226	6492.224775
481.072653	6618.793025
481.442022	6831.522155
481.811333	6996.937536
482.180584	7010.606625
482.549777	6980.992367
482.918912	6978.103786
483.287988	7089.848522
483.657005	7180.853952
484.025964	7107.018692
484.394864	7270.004237
484.763706	7356.175201
485.132489	7301.415667
485.501213	7371.709516
485.869879	7487.232598
486.238487	7502.439238
486.607036	7635.533262
486.975527	7605.220803
487.343959	7795.174001
487.712333	7915.826457
488.080648	7949.274512
488.448905	8067.071154
488.817104	8102.896114
489.185244	8357.436575
489.553326	8549.582674
489.921350	8986.060897
490.289315	9773.365620
490.657222	10081.516231
491.025070	10131.408531
491.392861	10123.060380
491.760593	9960.760432
492.128267	9807.768974
492.495883	9650.316096
492.863440	9483.806784
493.230939	9306.201893
493.598380	9318.230086
493.965763	9290.586919
494.333088	9258.782279
494.700354	9272.290051
495.067563	9371.666317
495.434713	9300.873393
495.801805	9458.253175
496.168839	9451.911404
496.535815	9456.758473
496.902733	9503.031224
497.269593	9512.057410
497.636395	9638.698757
498.003139	9686.057877
498.369825	9610.243964
498.736453	9796.562489
499.103023	9773.640363
499.469535	9848.579635
499.835989	9881.745387
500.202385	9885.816118
500.568723	9788.852045
500.935003	10022.096151
501.301226	9892.314166
501.667390	10148.593824
502.033497	10276.208113
502.399546	10175.082567
502.765537	10131.302667
503.131470	10228.584333
503.497345	10414.839844
503.863163	10087.212735
504.228923	10403.293081
504.594625	10486.388941
504.960269	10276.243401
505.325856	10514.616882
505.691385	10339.023411
506.056856	10507.869297
506.422270	10553.055680
506.787625	10460.500095
507.152924	10601.145767
507.518164	10591.257543
507.883347	10541.791221
508.248472	10471.212547
508.613540	10723.597914
508.978550	10621.348191
509.343503	10609.768660
509.708398	10741.690615
510.073236	10865.433298
510.438016	10888.640250
510.802738	10843.723569
511.167403	10904.257745
511.532010	10812.080247
511.896561	11044.331245
512.261053	11126.433997
512.625488	11005.529484
512.989866	10991.532721
513.354186	10995.472382
513.718449	10905.394525
514.082655	11094.299162
514.446803	11012.037614
514.810894	11131.533125
515.174927	11007.082160
515.538904	11027.060252
515.902822	11189.292145
516.266684	11078.462377
516.630488	11026.697289
516.994235	11090.304048
517.357925	11150.966773
517.721558	11237.820812
518.085133	11258.366035
518.448651	11272.609815
518.812112	11162.193422
519.175516	11172.671461
519.538863	11295.713423
519.902152	11216.486649
520.265385	11379.802390
520.628560	11287.113215
520.991678	11266.935996
521.354739	11335.258754
521.717743	11278.152564
522.080690	11256.601631
522.443580	11392.901828
522.806413	11344.337873
523.169189	11375.479600
523.531908	11439.764394
523.894569	11254.070972
524.257174	11265.574885
524.619722	11379.734334
524.982213	11326.146869
525.344647	11385.206507
525.707025	11340.231853
526.069345	11437.022007
526.431608	11351.760972
526.793815	11459.681993
527.155964	11254.829665
527.518057	11309.138016
527.880093	11249.763306
528.242072	11324.755510
528.603995	11228.434184
528.965860	11158.485654
529.327669	11208.259486
529.689421	11152.920220
530.051117	11129.315017
530.412755	11226.677342
530.774337	11121.360076
531.135862	11104.872982
531.497331	11122.963163
531.858743	10976.275668
532.220098	11141.517130
532.581396	11010.358910
532.942638	10997.229224
533.303824	10963.153545
533.664953	10981.684827
534.026025	10893.439428
534.387040	10990.388379
534.747999	10982.506535
535.108902	11052.114787
535.469748	10808.133023
535.830537	10915.912892
536.191270	10889.608152
536.551947	10909.041800
536.912567	10919.151834
537.273131	10839.146202
537.633638	10819.437811
537.994089	10810.278034
538.354483	10758.596125
538.714821	10906.614484
539.075103	10913.546071
539.435328	10879.437624
539.795497	10708.539988
540.155609	10863.817608
540.515665	10947.354569
540.875665	10691.321927
541.235609	10755.223593
541.595496	10748.602037
541.955328	10903.292364
542.315102	10785.016812
542.674821	10736.987219
543.034483	10739.885882
543.394090	10746.280586
543.753640	10673.917343
544.113134	10893.832638
544.472571	10746.973745
544.831953	10884.821576
545.191278	10694.737308
545.550548	10726.922555
545.909761	10859.835097
546.268918	10833.084214
546.628019	10919.507235
546.987064	10787.519745
547.346053	10707.078053
547.704986	10803.361571
548.063863	10794.000148
548.422684	10785.772985
548.781449	10703.108144
549.140158	10806.991202
549.498811	10688.718171
549.857408	10542.721314
550.215949	10768.277661
550.574434	10616.957346
550.932864	10722.239323
551.291237	10776.892993
551.649555	10720.593387
552.007817	10732.671991
552.366022	10694.845693
552.724173	10690.459889
553.082267	10676.770636
553.440305	10817.990999
553.798288	10615.825607
554.156215	10771.148598
554.514086	10746.129351
554.871902	10592.487585
555.229661	10633.842691
555.587365	10611.081881
555.945014	10501.905612
556.302606	10633.227670
556.660143	10526.902173
557.017625	10677.436068
557.375050	10571.619729
557.732421	10707.549401
558.089735	10624.158634
558.446994	10618.802408
558.804197	10658.040229
559.161345	10659.484520
559.518437	10509.263176
559.875474	10597.707700
560.232455	10631.498554
560.589381	10577.961500
560.946251	10578.110214
561.303065	10676.926912
561.659825	10613.917530
562.016528	10548.420339
562.373177	10424.082800
562.729770	10542.305419
563.086307	10457.566143
563.442789	10548.896728
563.799216	10429.176886
564.155587	10476.914092
564.511904	10435.231311
564.868164	10414.411346
565.224370	10438.228277
565.580520	10360.430671
565.936615	10372.766374
566.292654	10236.120858
566.648638	10367.964675
567.004567	10324.189816
567.360441	10309.477208
567.716260	10223.525535
568.072023	10318.059773
568.427732	10258.221276
568.783385	10173.640797
569.138982	10247.498742
569.494525	10254.027036
569.850013	10138.937494
570.205445	10218.121418
570.560823	10116.932858
570.916145	10037.978306
571.271412	10102.497513
571.626625	10045.542557
571.981782	10024.127736
572.336884	10000.618315
572.691931	10003.222071
573.046923	9951.504873
573.401860	9903.422348
573.756743	9844.884470
574.111570	9880.336384
574.466342	9866.700063
574.821059	9896.450432
575.175722	9783.667218
575.530330	9798.546183
575.884882	9792.532087
576.239380	9721.545079
576.593823	9698.587664
576.948211	9716.708092
577.302544	9592.751160
577.656823	9614.337381
578.011047	9608.960990
578.365216	9586.182537
578.719330	9508.810907
579.073389	9522.245582
579.427394	9467.178538
579.781344	9442.769271
580.135239	9393.628104
580.489080	9405.164784
580.842866	9301.745513
581.196597	9310.267584
581.550273	9346.969704
581.903895	9316.039705
582.257463	9381.811639
582.610975	9263.669678
582.964434	9287.272360
583.317837	9209.721770
583.671186	9192.871713
584.024481	9192.312145
584.377721	9108.016491
584.730906	9088.166948
585.084037	9118.981001
585.437113	9052.977174
585.790135	9069.865039
586.143103	8967.990882
586.496016	8949.247872
586.848874	9000.796190
587.201679	8993.299994
587.554428	8875.216007
587.907124	8928.813554
588.259765	8897.306343
588.612352	8900.900686
588.964884	8771.960573
589.317362	8791.187534
589.669786	8785.564127
590.022155	8842.693003
590.374470	8854.675825
590.726731	8789.748284
591.078937	8644.227817
591.431090	8753.146987
591.783188	8625.731823
592.135232	8626.084704
592.487222	8623.095300
592.839157	8671.281169
593.191038	8606.343546
593.542866	8547.692241
593.894639	8450.634906
594.246358	8503.763627
594.598022	8522.252058
594.949633	8416.788599
595.301190	8390.554435
595.652692	8422.401924
596.004141	8537.143627
596.355535	8313.492837
596.706876	8293.683623
597.058162	8228.930001
597.409395	8304.368348
597.760573	8362.366823
598.111698	8270.910210
598.462768	8255.726255
598.813785	8219.949186
599.164748	8192.938683
599.515657	8179.330089
599.866511	8095.150381
600.217312	8221.990853
600.568060	8075.956188
600.918753	8183.471397
601.269392	8154.063826
601.619978	8063.870022
601.970510	8125.304043
602.320988	8128.122048
602.671412	8180.996190
603.021783	8121.576110
603.372100	8091.626615
603.722363	8089.915143
604.072572	8064.684168
604.422728	8081.219152
604.772830	8011.207608
605.122878	8015.248093
605.472872	8014.212136
605.822813	8042.266157
606.172701	7984.547466
606.522534	8063.617964
606.872314	8059.942963
607.222041	8030.232922
607.571714	8085.451201
607.921333	8040.942854
608.270899	8049.124647
608.620411	8135.736711
608.969870	8041.545272
609.319276	8038.611320
609.668627	8055.156387
610.017926	8096.773633
610.367171	8132.817883
610.716362	8108.703523
611.065500	8099.195907
611.414585	8129.079867
611.763616	8114.732743
612.112594	8101.252698
612.461518	8113.127136
612.810389	8178.583998
613.159207	8116.071170
613.507971	8061.233498
613.856682	8183.945265
614.205340	8133.203531
614.553945	8210.333185
614.902496	8114.576467
615.250994	8162.570773
615.599439	8147.598546
615.947830	8164.725866
616.296169	8138.947926
616.644454	8150.267837
616.992686	8143.290880
617.340864	8200.185342
617.688990	8106.828214
618.037063	8198.093263
618.385082	8143.293400
618.733048	8231.889159
619.080961	8171.254160
619.428821	8186.007097
619.776628	8190.791152
620.124382	8142.277608
620.472083	8123.985781
620.819731	8150.771952
621.167326	8052.915594
621.514868	8057.752581
621.862357	7946.398534
622.209793	7965.227244
622.557176	7896.672593
622.904506	7864.429372
623.251783	7803.491905
623.599007	7757.463650
623.946179	7764.128055
624.293297	7719.400418
624.640363	7641.996021
624.987376	7621.077753
625.334336	7568.385092
625.681243	7516.456167
626.028097	7504.233889
626.374899	7483.406362
626.721647	7470.208621
627.068343	7405.802840
627.414987	7382.429530
627.761577	7331.269380
628.108115	7368.442848
628.454600	7266.387209
628.801032	7316.546690
629.147412	7274.014475
629.493739	7265.784792
629.840014	7203.831531
630.186236	7256.020077
630.532405	7141.706872
630.878521	7193.746703
631.224585	7150.077708
631.570597	7076.466779
631.916556	7110.325689
632.262462	7101.105419
632.608316	7062.795170
632.954117	7043.054012
633.299866	7031.320726
633.645562	7019.811772
633.991206	6941.663805
634.336797	6884.229939
634.682336	6844.306521
635.027823	6807.380069
635.373257	6799.810777
635.718639	6733.993472
636.063968	6750.316728
636.409245	6642.967878
636.754470	6638.960161
637.099642	6599.825683
637.444762	6543.231170
637.789829	6549.998919
638.134845	6496.605538
638.479808	6479.231201
638.824719	6484.121120
639.169577	6410.404327
639.514383	6433.722185
639.859137	6357.189907
640.203839	6366.125353
640.548489	6360.582604
640.893086	6331.744683
641.237632	6305.376928
641.582125	6327.134548
