Dividing Wavelength (nm)	Counts (n)	Blue Motor Position (mm): 42.300000	Red Motor Position (mm): 0.000000	
326.493990	2131.094856
326.888308	2131.094856
327.282561	2131.094856
327.676750	2099.620412
328.070874	2095.741244
328.464933	2101.437748
328.858929	2104.230548
329.252859	2114.443925
329.646726	2129.063271
330.040528	2138.137348
330.434265	2155.000008
330.827938	2174.000117
331.221547	2191.346727
331.615091	2213.212732
332.008571	2230.551781
332.401986	2249.824112
332.795338	2269.872781
333.188625	2288.202416
333.581847	2304.689510
333.975006	2326.500062
334.368100	2343.077896
334.761129	2364.674199
335.154095	2380.117774
335.546996	2401.956052
335.939833	2426.211564
336.332606	2441.932403
336.725315	2454.608384
337.117960	2463.160701
337.510540	2469.971300
337.903056	2483.836994
338.295508	2487.325472
338.687896	2497.236381
339.080220	2506.895232
339.472480	2513.584843
339.864676	2513.655419
340.256807	2522.303518
340.648875	2524.347706
341.040879	2528.536905
341.432818	2527.732841
341.824694	2530.507996
342.216506	2531.357431
342.608253	2529.484642
342.999937	2532.340456
343.391557	2530.855836
343.783113	2528.567152
344.174605	2528.841895
344.566033	2529.328366
344.957397	2524.388035
345.348697	2522.958868
345.739934	2523.841070
346.131106	2519.301511
346.522215	2520.067767
346.913260	2514.640964
347.304241	2510.799605
347.695159	2513.292456
348.086012	2511.825480
348.476802	2512.148114
348.867528	2505.773575
349.258191	2507.858092
349.648789	2507.288442
350.039324	2502.927843
350.429796	2504.344408
350.820203	2501.418018
351.210548	2501.574294
351.600828	2501.171001
351.991045	2498.161433
352.381198	2498.733603
352.771288	2497.261587
353.161314	2496.162615
353.551276	2498.219406
353.941175	2499.121772
354.331010	2498.166474
354.720782	2494.720845
355.110490	2499.966166
355.500135	2496.969200
355.889717	2498.680671
356.279235	2496.409632
356.668689	2499.552791
357.058080	2499.910713
357.447408	2496.371823
357.836672	2494.882162
358.225873	2496.621360
358.615010	2495.655979
359.004084	2500.760147
359.393095	2500.959273
359.782043	2501.740652
360.170927	2503.721825
360.559748	2503.845333
360.948505	2507.159892
361.337199	2505.208966
361.725830	2506.625530
362.114398	2508.221055
362.502903	2507.197701
362.891344	2504.286434
363.279722	2509.128463
363.668037	2508.596621
364.056289	2508.309275
364.444478	2508.677279
364.832603	2510.643329
365.220665	2510.285408
365.608665	2510.403875
365.996601	2513.012672
366.384474	2512.639626
366.772284	2513.436129
367.160031	2513.478978
367.547715	2513.055522
367.935336	2511.414626
368.322893	2516.508712
368.710388	2514.288084
369.097820	2520.014834
369.485189	2517.093486
369.872495	2518.298322
370.259738	2514.015861
370.646918	2512.039729
371.034035	2515.034174
371.421090	2515.364370
371.808081	2514.406551
372.195010	2515.634072
372.581875	2514.240193
372.968678	2516.546521
373.355418	2520.193795
373.742096	2520.213960
374.128710	2521.254958
374.515262	2519.467869
374.901751	2521.277643
375.288177	2522.434588
375.674540	2520.660102
376.060841	2521.204547
376.447079	2520.360153
376.833254	2522.522808
377.219367	2518.396624
377.605417	2522.795031
377.991404	2521.227232
378.377329	2519.455266
378.763191	2517.164062
379.148991	2525.313087
379.534727	2526.160001
379.920402	2528.554549
380.306013	2528.115969
380.691563	2531.823737
381.077049	2532.942873
381.462474	2534.992102
381.847835	2540.436549
382.233134	2545.308824
382.618371	2548.323434
383.003545	2559.580330
383.388657	2565.952349
383.773706	2576.952147
384.158693	2586.613518
384.543618	2596.665579
384.928480	2610.100254
385.313280	2626.907461
385.698017	2639.875829
386.082692	2662.314005
386.467305	2674.090140
386.851856	2695.358768
387.236344	2712.770913
387.620770	2736.058524
388.005133	2764.528440
388.389435	2787.412758
388.773674	2810.070224
389.157851	2840.843947
389.541965	2866.301774
389.926018	2877.888867
390.310008	2928.232349
390.693936	2957.927266
391.077802	2998.884121
391.461606	3018.751308
391.845348	3075.345822
392.229027	3103.818258
392.612645	3134.637352
392.996200	3201.276365
393.379694	3251.203953
393.763125	3314.654436
394.146494	3330.345027
394.529801	3396.091756
394.913047	3460.154739
395.296230	3469.266624
395.679351	3532.790204
396.062410	3582.397678
396.445408	3600.694546
396.828343	3655.932989
397.211217	3703.501317
397.594028	3671.363961
397.976778	3751.107453
398.359466	3798.302736
398.742092	3848.689068
399.124656	3809.627688
399.507158	3900.807037
399.889598	3945.509469
400.271977	4020.884802
400.654294	4014.550592
401.036549	4043.055796
401.418742	4036.035989
401.800874	4142.253101
402.182944	4179.940767
402.564952	4257.098147
402.946898	4258.040843
403.328783	4267.016618
403.710606	4201.169066
404.092367	4393.413468
404.474067	4371.587792
404.855705	4388.485740
405.237282	4331.296370
405.618797	4443.525058
406.000250	4482.067199
406.381642	4570.055499
406.762972	4539.853946
407.144240	4554.271646
407.525447	4557.281215
407.906593	4623.758911
408.287677	4667.715252
408.668700	4600.201599
409.049661	4656.735618
409.430560	4697.710117
409.811399	4624.958705
410.192176	4789.202018
410.572891	4726.588367
410.953545	4832.487886
411.334138	4716.495977
411.714669	4785.849651
412.095139	4679.327549
412.475547	4824.613603
412.855894	4805.069050
413.236180	4813.724711
413.616405	4766.158904
413.996568	4854.646277
414.376670	4795.319458
414.756711	4754.050052
415.136691	4786.008447
415.516609	4863.624572
415.896466	4900.631683
416.276262	4933.182413
416.655997	4916.760854
417.035670	5098.708700
417.415283	5186.402091
417.794834	5132.953258
418.174324	5086.448613
418.553753	4992.904963
418.933121	5178.341286
419.312428	5243.404938
419.691674	5185.792112
420.070859	5311.825999
420.449983	5224.238472
420.829045	5338.733158
421.208047	5246.739662
421.586988	5316.380682
421.965867	5329.384338
422.344686	5465.717303
422.723444	5319.112987
423.102141	5138.483403
423.480777	5432.405358
423.859352	5200.229976
424.237866	5463.279905
424.616319	5455.826559
424.994712	5558.948402
425.373044	5444.456236
425.751314	5584.043266
426.129524	5388.345673
426.507673	5577.572945
426.885762	5665.513353
427.263789	5592.391416
427.641756	5474.562007
428.019662	5600.386686
428.397508	5602.718220
428.775292	5551.600920
429.153016	5652.890304
429.530679	5580.002781
429.908282	5662.647457
430.285824	5534.236666
430.663305	5804.903777
431.040726	5545.193613
431.418086	5541.490886
431.795385	5652.237474
432.172624	5661.601417
432.549802	5657.651673
432.926920	5668.671636
433.303977	5673.349827
433.680974	5713.432041
434.057910	5730.249330
434.434786	5735.582871
434.811601	5705.109096
435.188355	5937.738181
435.565050	5813.377957
435.941683	5797.009330
436.318257	6006.872565
436.694770	5991.570143
437.071222	6026.074320
437.447614	5965.111647
437.823946	5871.421802
438.200218	6029.245206
438.576429	5891.959463
438.952580	5991.290358
439.328670	6036.287698
439.704700	5945.052895
440.080670	5931.235093
440.456580	6200.692327
440.832429	6085.713691
441.208218	5930.549496
441.583947	6085.391057
441.959616	6089.245019
442.335224	6019.712384
442.710773	6151.503269
443.086261	6183.272620
443.461689	5978.742927
443.837057	6117.914061
444.212365	6275.354337
444.587612	6169.767369
444.962800	6325.798642
445.337927	6303.362987
445.712995	5914.886631
446.088002	6492.433983
446.462949	6324.092212
446.837837	6254.443630
447.212664	6426.518376
447.587431	6569.193112
447.962139	7112.911801
448.336786	8040.080817
448.711374	7771.747759
449.085901	6851.162491
449.460369	6773.808505
449.834776	6705.203443
450.209124	7096.545695
450.583412	7247.248469
450.957640	7391.705253
451.331808	7159.517268
451.705917	6711.041099
452.079965	6634.042515
452.453954	6849.390525
452.827883	6734.255612
453.201752	6817.916081
453.575562	6616.539629
453.949311	6821.739796
454.323001	6710.693259
454.696632	6782.806965
455.070202	6923.666886
455.443713	7080.676143
455.817164	7180.508633
456.190556	7264.151458
456.563888	7332.096129
456.937160	7381.622945
457.310373	7038.577467
457.683526	7053.305198
458.056619	6948.537418
458.429653	6941.411747
458.802628	6873.956068
459.175542	6984.914384
459.548398	7339.690627
459.921194	7495.227868
460.293930	7504.344794
460.666607	8036.425980
461.039224	8336.808173
461.411782	8462.486659
461.784280	8485.476841
462.156719	8372.796970
462.529099	8244.648319
462.901419	7837.895259
463.273680	7733.911379
463.645882	7745.906804
464.018024	7613.090045
464.390106	7779.317052
464.762130	8175.453441
465.134094	8638.044842
465.505999	9658.414709
465.877845	10880.397963
466.249631	11529.189422
466.621358	11152.466516
466.993026	10514.899186
467.364634	10261.848387
467.736184	9897.052850
468.107674	9568.387263
468.479105	9597.419268
468.850477	9364.006284
469.221790	9133.542374
469.593043	8803.845871
469.964238	8661.282040
470.335373	8681.799537
470.706449	8737.045542
471.077467	8722.390907
471.448425	10030.938335
471.819324	11100.061201
472.190164	11128.090017
472.560945	9876.794973
472.931667	9088.202236
473.302330	8949.593191
473.672934	8601.990509
474.043479	8953.802554
474.413965	8897.281137
474.784393	8778.630020
475.154761	8935.127600
475.525070	9029.553452
475.895321	8851.293211
476.265513	9028.600674
476.635645	9199.561325
477.005719	9195.714924
477.375734	9316.606835
477.745691	9547.874808
478.115588	9682.274491
478.485427	9924.877499
478.855207	10460.363984
479.224928	11276.562080
479.594591	11902.970815
479.964194	11714.466950
480.333739	11654.729277
480.703226	11567.013200
481.072653	11669.000783
481.442022	11903.482493
481.811333	12087.328332
482.180584	11887.955739
482.549777	11607.584406
482.918912	11428.988928
483.287988	11448.231012
483.657005	11461.171654
484.025964	11139.992181
484.394864	11279.168356
484.763706	11241.878941
485.132489	11003.250883
485.501213	10964.030706
485.869879	11040.575586
486.238487	10882.028777
486.607036	10994.287711
486.975527	10771.761098
487.343959	10956.834459
487.712333	11003.099648
488.080648	10941.501789
488.448905	10979.859929
488.817104	10925.617113
489.185244	11190.307937
489.553326	11342.296205
489.921350	11886.569421
490.289315	12944.763066
490.657222	13282.732102
491.025070	13196.470398
491.392861	13065.349987
491.760593	12678.328003
492.128267	12329.898573
492.495883	12018.682940
492.863440	11666.785196
493.230939	11335.190699
493.598380	11274.076791
493.965763	11144.110803
494.333088	11033.777590
494.700354	10954.291197
495.067563	11009.910247
495.434713	10858.055570
495.801805	10972.635955
496.168839	10902.039637
496.535815	10836.582775
496.902733	10843.461429
497.269593	10771.599781
497.636395	10869.471263
498.003139	10857.629592
498.369825	10721.987266
498.736453	10892.048070
499.103023	10807.505399
499.469535	10835.473721
499.835989	10829.033647
500.202385	10788.001175
500.568723	10639.372836
500.935003	10863.081600
501.301226	10672.760398
501.667390	10930.822105
502.033497	11024.612772
502.399546	10888.768799
502.765537	10789.037132
503.131470	10867.104441
503.497345	11039.292612
503.863163	10653.898921
504.228923	10963.471138
504.594625	11026.362052
504.960269	10774.720255
505.325856	10996.425160
505.691385	10785.226020
506.056856	10943.470360
506.422270	10969.064298
506.787625	10855.658501
507.152924	10970.347272
507.518164	10952.098295
507.883347	10873.365554
508.248472	10801.398042
508.613540	11029.414471
508.978550	10906.480893
509.343503	10888.877184
509.708398	11003.754998
510.073236	11120.389654
510.438016	11123.880653
510.802738	11069.887375
511.167403	11125.466096
511.532010	11022.785354
511.896561	11255.016188
512.261053	11327.896149
512.625488	11198.666170
512.989866	11176.520382
513.354186	11168.036120
513.718449	11071.208157
514.082655	11262.741756
514.446803	11154.619089
514.810894	11275.833633
515.174927	11143.674744
515.538904	11167.010245
515.902822	11322.207207
516.266684	11205.285205
516.630488	11147.952163
516.994235	11200.370080
517.357925	11260.848803
517.721558	11346.860970
518.085133	11368.162366
518.448651	11382.824562
518.812112	11257.498956
519.175516	11271.717531
519.538863	11396.344936
519.902152	11308.762450
520.265385	11476.970630
520.628560	11376.487831
520.991678	11355.587207
521.354739	11423.194122
521.717743	11358.100223
522.080690	11341.126657
522.443580	11472.846966
522.806413	11425.926427
523.169189	11455.800305
523.531908	11518.965962
523.894569	11336.687922
524.257174	11341.978613
524.619722	11461.549741
524.982213	11408.068139
525.344647	11460.750718
525.707025	11414.533419
526.069345	11502.710762
526.431608	11422.669842
526.793815	11526.308403
527.155964	11324.379944
527.518057	11363.965605
527.880093	11321.302320
528.242072	11390.787064
528.603995	11296.802312
528.965860	11214.139992
529.327669	11266.512539
529.689421	11211.977337
530.051117	11185.027329
530.412755	11293.699482
530.774337	11184.931547
531.135862	11156.630509
531.497331	11191.490088
531.858743	11035.841942
532.220098	11202.777231
532.581396	11070.678836
532.942638	11054.864736
533.303824	11017.540033
533.664953	11032.814729
534.026025	10948.075454
534.387040	11048.459950
534.747999	11055.242823
535.108902	11109.427665
535.469748	10864.311642
535.830537	10972.577982
536.191270	10949.713829
536.551947	10967.776283
536.912567	10969.492796
537.273131	10893.293235
537.633638	10872.012004
537.994089	10870.179545
538.354483	10807.996912
538.714821	10959.670108
539.075103	10964.045829
539.435328	10938.048599
539.795497	10758.323902
540.155609	10917.274004
540.515665	11004.370019
540.875665	10736.278937
541.235609	10806.696294
541.595496	10803.278392
541.955328	10961.467279
542.315102	10847.259939
542.674821	10789.238778
543.034483	10795.298245
543.394090	10794.199274
543.753640	10721.546165
544.113134	10942.661255
544.472571	10804.125306
544.831953	10941.617736
545.191278	10748.445762
545.550548	10776.038517
545.909761	10913.818293
546.268918	10897.144677
546.628019	10979.887655
546.987064	10837.013793
547.346053	10757.540003
547.704986	10862.418688
548.063863	10842.710297
548.422684	10835.299801
548.781449	10758.054201
549.140158	10858.252175
549.498811	10735.263144
549.857408	10598.980591
550.215949	10819.397481
550.574434	10667.610860
550.932864	10767.513926
551.291237	10832.454070
551.649555	10777.659248
552.007817	10788.689293
552.366022	10751.132697
552.724173	10747.366955
553.082267	10726.511701
553.440305	10876.281861
553.798288	10667.467187
554.156215	10830.092289
554.514086	10796.457711
554.871902	10642.967179
555.229661	10687.266318
555.587365	10658.541824
555.945014	10557.446525
556.302606	10683.959322
556.660143	10573.621067
557.017625	10731.396579
557.375050	10630.583585
557.732421	10754.419529
558.089735	10676.410194
558.446994	10674.093783
558.804197	10715.146420
559.161345	10711.136182
559.518437	10563.652185
559.875474	10657.016875
560.232455	10680.246512
560.589381	10632.176589
560.946251	10623.440270
561.303065	10733.652496
561.659825	10666.645479
562.016528	10596.202915
562.373177	10481.352828
562.729770	10594.378018
563.086307	10508.194452
563.442789	10601.833884
563.799216	10479.855605
564.155587	10530.879644
564.511904	10483.888528
564.868164	10470.511827
565.224370	10493.968315
565.580520	10411.048896
565.936615	10420.884187
566.292654	10283.086768
566.648638	10424.720506
567.004567	10375.241581
567.360441	10362.263130
567.716260	10271.744172
568.072023	10365.371001
568.427732	10323.592439
568.783385	10227.192974
569.138982	10296.496237
569.494525	10309.136930
569.850013	10191.665443
570.205445	10261.888716
570.560823	10165.519498
570.916145	10082.211910
571.271412	10158.421554
571.626625	10101.698491
571.981782	10076.127238
572.336884	10050.984483
572.691931	10050.308968
573.046923	9997.762501
573.401860	9950.995717
573.756743	9887.267971
574.111570	9931.436040
574.466342	9926.278940
574.821059	9949.327095
575.175722	9839.792904
575.530330	9844.539151
575.884882	9844.743317
576.239380	9764.538560
576.593823	9751.958360
576.948211	9762.771635
577.302544	9639.036514
577.656823	9659.165841
578.011047	9658.714658
578.365216	9633.040062
578.719330	9552.426970
579.073389	9571.817769
579.427394	9520.188792
579.781344	9500.009053
580.135239	9442.489487
580.489080	9453.554820
580.842866	9356.835242
581.196597	9362.302374
581.550273	9395.803362
581.903895	9368.445020
582.257463	9440.518396
582.610975	9309.743304
582.964434	9331.437909
583.317837	9255.308924
583.671186	9241.559177
584.024481	9242.486750
584.377721	9158.334768
584.730906	9137.628229
585.084037	9159.486672
585.437113	9094.770860
585.790135	9117.226679
586.143103	9013.852779
586.496016	8991.475097
586.848874	9053.990446
587.201679	9035.370944
587.554428	8920.825846
587.907124	8967.701015
588.259765	8939.911655
588.612352	8940.602293
588.964884	8820.363212
589.317362	8838.327363
589.669786	8829.848143
590.022155	8878.054176
590.374470	8895.839367
590.726731	8832.146909
591.078937	8687.483438
591.431090	8805.254874
591.783188	8672.463320
592.135232	8668.740427
592.487222	8665.151126
592.839157	8714.080565
593.191038	8650.594794
593.542866	8592.702183
593.894639	8495.987647
594.246358	8549.028147
594.598022	8566.452895
594.949633	8465.662586
595.301190	8437.966487
595.652692	8469.244326
596.004141	8573.560922
596.355535	8356.947583
596.706876	8325.117737
597.058162	8266.136237
597.409395	8347.944082
597.760573	8405.750993
598.111698	8314.019637
598.462768	8299.281824
598.813785	8264.729755
599.164748	8236.887463
599.515657	8228.161225
599.866511	8137.934654
600.217312	8259.466791
600.568060	8121.981922
600.918753	8224.377839
601.269392	8191.610339
601.619978	8105.572967
601.970510	8164.579672
602.320988	8165.968510
602.671412	8221.469094
603.021783	8156.244125
603.372100	8131.451730
603.722363	8135.784602
604.072572	8108.728729
604.422728	8119.927652
604.772830	8048.106333
605.122878	8053.550780
605.472872	8053.429792
605.822813	8080.573885
606.172701	8025.093466
606.522534	8103.478367
606.872314	8101.091381
607.222041	8065.689878
607.571714	8124.278168
607.921333	8084.473217
608.270899	8086.547652
608.620411	8180.262702
608.969870	8085.680574
609.319276	8076.049449
609.668627	8091.107376
610.017926	8132.719580
610.367171	8168.852050
610.716362	8149.340264
611.065500	8146.000500
611.414585	8169.759458
611.763616	8158.681522
612.112594	8144.150397
612.461518	8155.661871
612.810389	8215.192857
613.159207	8155.971902
613.507971	8105.572967
613.856682	8221.607725
614.205340	8181.646499
614.553945	8261.034590
614.902496	8159.425093
615.250994	8211.197743
615.599439	8193.399949
615.947830	8208.755304
616.296169	8177.732043
616.644454	8188.131943
616.992686	8191.489352
617.340864	8247.254596
617.688990	8150.351016
618.037063	8245.996828
618.385082	8191.106224
618.733048	8276.432794
619.080961	8212.342085
619.428821	8232.516782
619.776628	8236.050631
620.124382	8184.860234
620.472083	8173.172319
620.819731	8200.530661
621.167326	8089.433713
621.514868	8098.222964
621.862357	7984.592836
622.209793	8004.129828
622.557176	7940.644057
622.904506	7905.199704
623.251783	7839.102616
623.599007	7799.282541
623.946179	7803.073489
624.293297	7756.878876
624.640363	7674.324940
624.987376	7661.323805
625.334336	7609.583922
625.681243	7551.852628
626.028097	7544.999180
626.374899	7520.179059
626.721647	7516.753595
627.068343	7444.581916
627.414987	7423.444358
627.761577	7366.630554
628.108115	7410.299549
628.454600	7299.918444
628.801032	7356.638987
629.147412	7310.638458
629.493739	7303.442211
629.840014	7239.170020
630.186236	7293.695140
630.532405	7178.340937
630.878521	7232.034267
631.224585	7187.664551
631.570597	7109.975329
631.916556	7143.251986
632.262462	7147.224415
632.608316	7100.694565
632.954117	7080.519867
633.299866	7063.062351
633.645562	7053.179169
633.991206	6977.087993
634.336797	6919.344096
634.682336	6876.922787
635.027823	6844.203178
635.373257	6836.558268
635.718639	6770.262054
636.063968	6779.275637
636.409245	6672.536766
636.754470	6678.376943
637.099642	6630.251567
637.444762	6572.595891
637.789829	6584.185503
638.134845	6529.272215
638.479808	6507.375963
638.824719	6520.006574
639.169577	6447.270286
639.514383	6468.019675
639.859137	6393.463530
640.203839	6404.322175
640.548489	6388.689557
