Dividing Wavelength (nm)	Counts (n)	Blue Motor Position (mm): 11.400000	Red Motor Position (mm): 0.000000	
326.493990	2161.709784
326.888308	2161.709784
327.282561	2161.709784
327.676750	2121.153701
328.070874	2118.086159
328.464933	2119.104472
328.858929	2122.882817
329.252859	2128.034876
329.646726	2135.531072
330.040528	2149.031282
330.434265	2160.983858
330.827938	2179.016065
331.221547	2197.842254
331.615091	2213.318596
332.008571	2232.071688
332.401986	2252.460635
332.795338	2268.693151
333.188625	2288.025976
333.581847	2307.913328
333.975006	2322.595688
334.368100	2342.866168
334.761129	2360.676564
335.154095	2378.673483
335.546996	2397.431617
335.939833	2423.552356
336.332606	2436.530806
336.725315	2452.662498
337.117960	2463.856381
337.510540	2475.745942
337.903056	2486.002169
338.295508	2495.555156
338.687896	2503.563029
339.080220	2511.149965
339.472480	2515.319000
339.864676	2520.771007
340.256807	2527.319466
340.648875	2532.874818
341.040879	2534.745086
341.432818	2535.133255
341.824694	2541.041487
342.216506	2538.639377
342.608253	2542.347146
342.999937	2540.950746
343.391557	2541.228010
343.783113	2541.255736
344.174605	2541.820345
344.566033	2541.651467
344.957397	2536.854809
345.348697	2537.182484
345.739934	2536.406146
346.131106	2532.262318
346.522215	2529.618232
346.913260	2530.785260
347.304241	2526.243180
347.695159	2525.423992
348.086012	2524.511544
348.476802	2524.067922
348.867528	2518.154649
349.258191	2516.158352
349.648789	2514.552744
350.039324	2512.495953
350.429796	2515.434946
350.820203	2515.402179
351.210548	2514.129287
351.600828	2511.296159
351.991045	2510.013185
352.381198	2507.895901
352.771288	2506.534789
353.161314	2510.887825
353.551276	2506.179388
353.941175	2506.421363
354.331010	2503.459685
354.720782	2507.011178
355.110490	2505.934892
355.500135	2503.678975
355.889717	2506.018071
356.279235	2506.633092
356.668689	2506.993534
357.058080	2509.962774
357.447408	2505.347597
357.836672	2507.580828
358.225873	2508.183246
358.615010	2507.694254
359.004084	2510.839934
359.393095	2507.759789
359.782043	2510.872702
360.170927	2510.519821
360.559748	2509.607372
360.948505	2510.164420
361.337199	2513.168948
361.725830	2512.009482
362.114398	2512.432939
362.502903	2509.267094
362.891344	2515.669360
363.279722	2511.805315
363.668037	2515.220697
364.056289	2515.860924
364.444478	2517.063239
364.832603	2517.257323
365.220665	2517.393434
365.608665	2514.792199
365.996601	2516.130625
366.384474	2517.937879
366.772284	2517.889988
367.160031	2516.612056
367.547715	2521.426357
367.935336	2519.382170
368.322893	2517.766480
368.710388	2516.702796
369.097820	2518.452077
369.485189	2513.889833
369.872495	2521.335617
370.259738	2520.806296
370.646918	2521.207067
371.034035	2520.087931
371.421090	2519.896367
371.808081	2521.285205
372.195010	2520.864269
372.581875	2522.689167
372.968678	2523.344517
373.355418	2521.660771
373.742096	2521.716224
374.128710	2523.326873
374.515262	2523.190761
374.901751	2523.324352
375.288177	2525.741585
375.674540	2523.876358
376.060841	2525.255114
376.447079	2522.784948
376.833254	2523.057171
377.219367	2525.461801
377.605417	2524.556914
377.991404	2527.110258
378.377329	2526.051616
378.763191	2525.335772
379.148991	2526.608664
379.534727	2525.736544
379.920402	2526.356606
380.306013	2526.134795
380.691563	2528.103366
381.077049	2526.414579
381.462474	2525.403828
381.847835	2526.727131
382.233134	2527.614374
382.618371	2530.707122
383.003545	2527.818541
383.388657	2529.857687
383.773706	2529.797193
384.158693	2528.778880
384.543618	2527.281658
384.928480	2531.145702
385.313280	2528.141174
385.698017	2530.739889
386.082692	2530.576052
386.467305	2530.220650
386.851856	2531.823737
387.236344	2529.164529
387.620770	2527.354754
388.005133	2526.880886
388.389435	2529.804755
388.773674	2526.777542
389.157851	2530.949097
389.541965	2530.505476
389.926018	2530.200486
390.310008	2532.363141
390.693936	2530.876000
391.077802	2531.924560
391.461606	2531.821217
391.845348	2530.931453
392.229027	2535.269366
392.612645	2531.312060
392.996200	2532.716022
393.379694	2530.490352
393.763125	2532.668131
394.146494	2532.615198
394.529801	2533.915816
394.913047	2535.521424
395.296230	2532.665610
395.679351	2533.280631
396.062410	2532.607637
396.445408	2533.086546
396.828343	2536.073430
397.211217	2536.469161
397.594028	2534.903882
397.976778	2534.954294
398.359466	2535.463450
398.742092	2533.353727
399.124656	2536.685930
399.507158	2534.314067
399.889598	2537.220292
400.271977	2537.091743
400.654294	2537.023688
401.036549	2537.918492
401.418742	2537.444624
401.800874	2536.063348
402.182944	2539.748431
402.564952	2536.244829
402.946898	2536.917823
403.328783	2537.953780
403.710606	2536.834644
404.092367	2536.673327
404.474067	2536.965714
404.855705	2537.265663
405.237282	2539.662732
405.618797	2538.084850
406.000250	2541.711961
406.381642	2539.516538
406.762972	2535.823893
407.144240	2534.145189
407.525447	2537.532844
407.906593	2537.767258
408.287677	2538.321785
408.668700	2539.670293
409.049661	2541.096940
409.430560	2541.036446
409.811399	2541.880839
410.192176	2542.634492
410.572891	2541.255736
410.953545	2540.711292
411.334138	2541.359080
411.714669	2543.388144
412.095139	2538.049562
412.475547	2540.300437
412.855894	2540.242464
413.236180	2540.154244
413.616405	2541.376724
413.996568	2540.151723
414.376670	2541.906045
414.756711	2543.635161
415.136691	2540.804553
415.516609	2541.931251
415.896466	2542.700027
416.276262	2543.678011
416.655997	2544.272867
417.035670	2542.566436
417.415283	2543.662887
417.794834	2541.863195
418.174324	2544.993752
418.553753	2542.803370
418.933121	2544.872764
419.312428	2542.783206
419.691674	2544.315717
420.070859	2542.773123
420.449983	2545.954092
420.829045	2544.139276
421.208047	2546.261602
421.586988	2543.062990
421.965867	2547.121119
422.344686	2545.959133
422.723444	2548.169679
423.102141	2542.430325
423.480777	2547.600028
423.859352	2545.298742
424.237866	2542.815973
424.616319	2545.823022
424.994712	2546.163299
425.373044	2548.124308
425.751314	2545.046684
426.129524	2542.455531
426.507673	2545.901159
426.885762	2541.359080
427.263789	2547.410985
427.641756	2545.754966
428.019662	2545.888557
428.397508	2547.423588
428.775292	2547.083310
429.153016	2549.094730
429.530679	2546.286808
429.908282	2547.947868
430.285824	2547.050542
430.663305	2545.444935
431.040726	2546.614483
431.418086	2548.507436
431.795385	2545.079451
432.172624	2549.031716
432.549802	2547.373176
432.926920	2546.324616
433.303977	2549.223280
433.680974	2548.857796
434.057910	2549.402241
434.434786	2548.023485
434.811601	2546.185985
435.188355	2546.874102
435.565050	2549.351829
435.941683	2549.180430
436.318257	2549.999618
436.694770	2549.581202
437.071222	2548.567930
437.447614	2549.054401
437.823946	2550.609597
438.200218	2545.144986
438.576429	2548.699000
438.952580	2546.332178
439.328670	2550.095399
439.704700	2551.015410
440.080670	2552.888199
440.456580	2550.332334
440.832429	2550.566747
441.208218	2548.812426
441.583947	2551.312838
441.959616	2548.527601
442.335224	2550.176058
442.710773	2550.531459
443.086261	2550.445760
443.461689	2551.068342
443.837057	2551.189330
444.212365	2551.166645
444.587612	2549.467776
444.962800	2549.561037
445.337927	2549.429967
445.712995	2546.571633
446.088002	2553.914073
446.462949	2552.502550
446.837837	2553.805689
447.212664	2551.002807
447.587431	2553.455328
447.962139	2550.896943
448.336786	2554.410627
448.711374	2548.514998
449.085901	2552.678991
449.460369	2551.007848
449.834776	2552.994063
450.209124	2555.812068
450.583412	2551.945503
450.957640	2551.922818
451.331808	2552.076573
451.705917	2552.673950
452.079965	2552.545400
452.453954	2551.942982
452.827883	2555.771739
453.201752	2550.501212
453.575562	2551.602704
453.949311	2557.032027
454.323001	2551.824515
454.696632	2552.086655
455.070202	2553.082283
455.443713	2552.253013
455.817164	2553.727551
456.190556	2551.761501
456.563888	2555.522202
456.937160	2553.843497
457.310373	2555.186965
457.683526	2555.199568
458.056619	2553.992211
458.429653	2556.638817
458.802628	2555.164280
459.175542	2554.486244
459.548398	2553.596481
459.921194	2553.503219
460.293930	2554.022458
460.666607	2557.258879
461.039224	2556.296019
461.411782	2553.961964
461.784280	2555.786862
462.156719	2554.387942
462.529099	2558.589744
462.901419	2554.564382
463.273680	2552.142108
463.645882	2553.203271
464.018024	2555.686039
464.390106	2550.818805
464.762130	2553.770401
465.134094	2555.113868
465.505999	2555.312994
465.877845	2557.357182
466.249631	2556.396842
466.621358	2557.856256
466.993026	2556.742161
467.364634	2560.800290
467.736184	2560.359189
468.107674	2556.986657
468.479105	2559.303067
468.850477	2557.379867
469.221790	2561.395146
469.593043	2559.000598
469.964238	2557.689898
470.335373	2559.013201
470.706449	2559.484548
471.077467	2558.967830
471.448425	2556.462377
471.819324	2560.817934
472.190164	2560.797769
472.560945	2559.819785
472.931667	2561.231308
473.302330	2558.619991
473.672934	2559.885320
474.043479	2561.080074
474.413965	2559.078736
474.784393	2559.179559
475.154761	2560.598643
475.525070	2558.196534
475.895321	2558.065464
476.265513	2559.739127
476.635645	2559.837429
477.005719	2557.458005
477.375734	2560.580999
477.745691	2559.852553
478.115588	2562.012687
478.485427	2564.084601
478.855207	2563.159550
479.224928	2562.269786
479.594591	2561.773232
479.964194	2562.834395
480.333739	2561.874055
480.703226	2563.492266
481.072653	2562.998233
481.442022	2563.189797
481.811333	2561.395146
482.180584	2561.536298
482.549777	2564.787842
482.918912	2558.819116
483.287988	2565.601989
483.657005	2565.483522
484.025964	2564.011505
484.394864	2565.576783
484.763706	2564.734910
485.132489	2563.121741
485.501213	2563.920764
485.869879	2564.218192
486.238487	2567.270611
486.607036	2565.231464
486.975527	2564.823130
487.343959	2563.925805
487.712333	2565.017215
488.080648	2562.567214
488.448905	2566.106104
488.817104	2563.885476
489.185244	2565.571742
489.553326	2566.295147
489.921350	2568.916547
490.289315	2568.462843
490.657222	2568.881259
491.025070	2567.797411
491.392861	2569.130796
491.760593	2565.735579
492.128267	2568.745148
492.495883	2567.212637
492.863440	2567.931002
493.230939	2568.702298
493.598380	2566.832030
493.965763	2566.237174
494.333088	2566.859757
494.700354	2566.461505
495.067563	2567.404201
495.434713	2567.477298
495.801805	2565.889334
496.168839	2568.535940
496.535815	2567.895714
496.902733	2567.169787
497.269593	2568.886300
497.636395	2565.430589
498.003139	2565.433110
498.369825	2568.893862
498.736453	2568.251115
499.103023	2569.395457
499.469535	2568.702298
499.835989	2568.069633
500.202385	2564.359344
500.568723	2564.719787
500.935003	2565.324725
501.301226	2562.355486
501.667390	2568.435117
502.033497	2568.921588
502.399546	2566.751372
502.765537	2568.873697
503.131470	2567.225240
503.497345	2569.297154
503.863163	2568.208265
504.228923	2567.547874
504.594625	2567.147102
504.960269	2567.615930
505.325856	2567.744479
505.691385	2567.051320
506.056856	2568.692216
506.422270	2568.465364
506.787625	2571.686661
507.152924	2569.254305
507.518164	2570.524675
507.883347	2568.009140
508.248472	2571.215313
508.613540	2571.023750
508.978550	2573.254460
509.343503	2570.098698
509.708398	2570.837227
510.073236	2570.295303
510.438016	2569.561815
510.802738	2571.633729
511.167403	2570.073492
511.532010	2571.437124
511.896561	2575.303689
512.261053	2571.240519
512.625488	2572.931826
512.989866	2572.503328
513.354186	2570.766651
513.718449	2574.310582
514.082655	2573.188925
514.446803	2577.375603
514.810894	2575.114646
515.174927	2577.085737
515.538904	2575.366704
515.902822	2573.304872
516.266684	2577.007599
516.630488	2577.310068
516.994235	2578.789647
517.357925	2577.297466
517.721558	2574.058524
518.085133	2579.185378
518.448651	2575.064234
518.812112	2574.381158
519.175516	2576.090109
519.538863	2572.314285
519.902152	2581.342992
520.265385	2583.498085
520.628560	2581.113619
520.991678	2580.624627
521.354739	2583.016655
521.717743	2584.314752
522.080690	2584.226532
522.443580	2587.341965
522.806413	2586.185020
523.169189	2584.629824
523.531908	2588.720720
523.894569	2584.740729
524.257174	2589.945721
524.619722	2588.771132
524.982213	2590.452357
525.344647	2589.466811
525.707025	2591.294229
526.069345	2593.721545
526.431608	2592.519230
526.793815	2591.198447
527.155964	2593.608119
527.518057	2595.536360
527.880093	2593.981164
528.242072	2594.790269
528.603995	2596.095928
528.965860	2595.506113
529.327669	2596.257245
529.689421	2599.667586
530.051117	2599.463419
530.412755	2600.559870
530.774337	2599.687750
531.135862	2601.028697
531.497331	2603.158585
531.858743	2601.167329
532.220098	2605.482557
532.581396	2606.165633
532.942638	2603.524068
533.303824	2606.513473
533.664953	2607.635129
534.026025	2609.828031
534.387040	2607.282249
534.747999	2609.265943
535.108902	2611.153855
535.469748	2610.080089
535.830537	2611.242075
536.191270	2613.477827
536.551947	2608.913062
536.912567	2611.481530
537.273131	2612.260388
537.633638	2613.508074
537.994089	2615.022940
538.354483	2616.396655
538.714821	2618.229114
539.075103	2614.551592
539.435328	2617.722478
539.795497	2618.559310
540.155609	2622.183899
540.515665	2618.387911
540.875665	2620.525360
541.235609	2622.224229
541.595496	2622.844291
541.955328	2621.488220
542.315102	2623.953344
542.674821	2624.739764
543.034483	2625.569034
543.394090	2624.459980
543.753640	2627.802265
544.113134	2630.176649
544.472571	2625.223715
544.831953	2626.806637
545.191278	2626.952831
545.550548	2630.955507
545.909761	2630.103552
546.268918	2633.173615
546.628019	2630.058182
546.987064	2632.256125
547.346053	2628.906278
547.704986	2629.856536
548.063863	2634.446506
548.422684	2632.193110
548.781449	2631.623460
549.140158	2632.697226
549.498811	2634.713687
549.857408	2632.888790
550.215949	2635.520272
550.574434	2634.940539
550.932864	2633.924747
551.291237	2634.842237
551.649555	2636.823410
552.007817	2637.617392
552.366022	2636.712505
552.724173	2635.104377
553.082267	2634.186887
553.440305	2634.814510
553.798288	2639.759882
554.156215	2638.504635
554.514086	2634.295272
554.871902	2635.762247
555.229661	2636.399953
555.587365	2634.799387
555.945014	2639.318781
556.302606	2642.547640
556.660143	2640.810963
557.017625	2642.275418
557.375050	2641.907414
557.732421	2641.594862
558.089735	2642.814822
558.446994	2640.183339
558.804197	2641.940181
559.161345	2645.695841
559.518437	2641.012609
559.875474	2645.463948
560.232455	2642.688793
560.589381	2646.746922
560.946251	2642.585449
561.303065	2646.502426
561.659825	2649.668270
562.016528	2646.028557
562.373177	2648.294556
562.729770	2646.212559
563.086307	2647.223311
563.442789	2647.321613
563.799216	2649.073414
564.155587	2648.488640
564.511904	2650.676501
564.868164	2649.028044
565.224370	2652.035092
565.580520	2650.429484
565.936615	2655.533653
566.292654	2651.576347
566.648638	2653.675987
567.004567	2651.578867
567.360441	2652.642551
567.716260	2651.157931
568.072023	2653.408806
568.427732	2655.173210
568.783385	2654.056595
569.138982	2653.499547
569.494525	2658.334014
569.850013	2658.306287
570.205445	2655.727737
570.560823	2654.734630
570.916145	2655.180772
571.271412	2657.111534
571.626625	2659.362409
571.981782	2661.134375
572.336884	2655.490803
572.691931	2657.424085
573.046923	2656.418375
573.401860	2657.928201
573.756743	2663.672596
574.111570	2663.110507
574.466342	2664.864828
574.821059	2666.435148
575.175722	2663.914571
575.530330	2664.721156
575.884882	2669.306085
576.239380	2669.472443
576.593823	2670.601662
576.948211	2670.067299
577.302544	2671.635098
577.656823	2669.235509
578.011047	2670.944460
578.365216	2674.286745
578.719330	2676.157013
579.073389	2676.431756
579.427394	2678.672549
579.781344	2677.997034
580.135239	2678.055008
580.489080	2679.653053
580.842866	2678.438135
581.196597	2689.775690
581.550273	2683.126408
581.903895	2689.942048
582.257463	2687.938190
582.610975	2691.320804
582.964434	2693.969930
583.317837	2694.418593
583.671186	2698.617874
584.024481	2702.776826
584.377721	2701.249356
584.730906	2707.578525
585.084037	2708.974925
585.437113	2709.131200
585.790135	2715.195708
586.143103	2714.812581
586.496016	2715.130173
586.848874	2721.832387
587.201679	2719.571430
587.554428	2722.661657
587.907124	2728.958058
588.259765	2731.027452
588.612352	2736.885273
588.964884	2738.112794
589.317362	2741.167733
589.669786	2744.585635
590.022155	2748.111922
590.374470	2752.769949
590.726731	2754.945207
591.078937	2756.329003
591.431090	2761.909561
591.783188	2762.562390
592.135232	2766.307967
592.487222	2778.061417
592.839157	2779.432611
593.191038	2780.450924
593.542866	2781.295318
593.894639	2786.729682
594.246358	2795.995322
594.598022	2798.588996
594.949633	2801.379275
595.301190	2803.829275
595.652692	2812.053918
596.004141	2814.181285
596.355535	2813.626758
596.706876	2822.481545
597.058162	2823.169662
597.409395	2829.556804
597.760573	2837.481498
598.111698	2839.109791
598.462768	2845.116325
598.813785	2850.853158
599.164748	2853.671163
599.515657	2856.287522
599.866511	2863.231712
600.217312	2877.934237
600.568060	2874.120604
600.918753	2890.716083
601.269392	2898.550036
601.619978	2896.624315
601.970510	2912.599731
602.320988	2921.008376
602.671412	2933.386929
603.021783	2935.030345
603.372100	2937.092177
603.722363	2951.189764
604.072572	2958.685960
604.422728	2968.969914
604.772830	2976.125832
605.122878	2980.562047
605.472872	2993.701814
605.822813	3004.618433
606.172701	3010.750997
606.522534	3025.415713
606.872314	3037.459030
607.222041	3040.561860
607.571714	3053.449570
607.921333	3069.407342
608.270899	3081.548961
608.620411	3101.368258
608.969870	3101.587548
609.319276	3121.159828
609.668627	3138.864360
610.017926	3160.692556
610.367171	3177.809794
610.716362	3203.141592
611.065500	3204.013712
611.414585	3221.244376
611.763616	3236.040162
612.112594	3250.457862
612.461518	3260.298194
612.810389	3285.972791
613.159207	3288.667288
613.507971	3301.784370
613.856682	3343.623426
614.205340	3355.386959
614.553945	3392.053791
614.902496	3389.124881
615.250994	3425.736261
615.599439	3438.961728
615.947830	3462.004842
616.296169	3480.581494
616.644454	3508.448993
616.992686	3519.993235
617.340864	3561.010583
617.688990	3582.453131
618.037063	3620.670118
618.385082	3638.919095
618.733048	3682.217566
619.080961	3697.671223
619.428821	3735.197572
619.776628	3758.220522
620.124382	3769.910957
620.472083	3801.050165
620.819731	3832.665761
621.167326	3822.805264
621.514868	3841.001309
621.862357	3846.360055
622.209793	3864.687170
622.557176	3872.276627
622.904506	3869.927450
623.251783	3883.195767
623.599007	3893.086510
623.946179	3909.634098
624.293297	3923.313269
624.640363	3932.599074
624.987376	3947.185653
625.334336	3946.376548
625.681243	3964.267603
626.028097	3977.326712
626.374899	4018.056714
626.721647	4014.318699
627.068343	4024.602652
627.414987	4047.731466
627.761577	4081.121549
628.108115	4117.382568
628.454600	4100.784569
628.801032	4132.755567
629.147412	4156.869927
629.493739	4187.588198
629.840014	4206.419428
630.186236	4240.497628
630.532405	4241.470570
630.878521	4299.002739
631.224585	4313.604441
631.570597	4330.993901
631.916556	4350.001572
632.262462	4375.782032
632.608316	4412.738731
632.954117	4429.520732
633.299866	4462.701607
633.645562	4480.169205
633.991206	4469.033296
634.336797	4460.541473
634.682336	4494.012213
635.027823	4487.904856
635.373257	4511.230274
635.718639	4506.864635
636.063968	4521.909959
636.409245	4517.219165
636.754470	4542.452661
637.099642	4549.112025
637.444762	4532.907236
637.789829	4576.157815
638.134845	4573.307043
638.479808	4605.222588
638.824719	4616.350935
639.169577	4614.468064
639.514383	4647.462416
639.859137	4646.053413
640.203839	4690.685269
640.548489	4681.603630
640.893086	4718.504877
641.237632	4700.553328
641.582125	4780.586686
641.926566	4769.004635
642.270955	4787.795536
642.615292	4815.857119
642.959576	4840.581458
643.303809	4886.922265
643.647990	4886.599631
643.992118	4947.206903
644.336195	4907.243156
