Dividing Wavelength (nm)	Counts (n)	Blue Motor Position (mm): 45.000000	Red Motor Position (mm): 0.000000	
326.493990	2131.117542
326.888308	2131.117542
327.282561	2131.117542
327.676750	2097.548498
328.070874	2097.117479
328.464933	2099.953128
328.858929	2104.512852
329.252859	2113.715478
329.646726	2126.101593
330.040528	2137.877729
330.434265	2157.908754
330.827938	2172.797802
331.221547	2192.619618
331.615091	2209.620910
332.008571	2232.394322
332.401986	2250.250089
332.795338	2270.155085
333.188625	2288.749381
333.581847	2305.329736
333.975006	2327.238591
334.368100	2344.731395
334.761129	2361.347038
335.154095	2377.748432
335.546996	2398.926319
335.939833	2425.863725
336.332606	2440.800663
336.725315	2453.819443
337.117960	2462.142388
337.510540	2470.419963
337.903056	2482.886736
338.295508	2489.578868
338.687896	2496.679333
339.080220	2506.766682
339.472480	2512.006962
339.864676	2517.617766
340.256807	2522.018693
340.648875	2525.265196
341.040879	2528.431041
341.432818	2526.964065
341.824694	2529.711494
342.216506	2527.654703
342.608253	2532.108562
342.999937	2526.868283
343.391557	2530.029087
343.783113	2530.475229
344.174605	2529.290557
344.566033	2526.031452
344.957397	2526.396935
345.348697	2521.812006
345.739934	2519.122550
346.131106	2520.624814
346.522215	2516.070132
346.913260	2515.649195
347.304241	2513.715913
347.695159	2516.473424
348.086012	2509.123422
348.476802	2511.424708
348.867528	2509.720798
349.258191	2506.325581
349.648789	2504.324243
350.039324	2503.880622
350.429796	2503.517658
350.820203	2501.924654
351.210548	2500.566063
351.600828	2500.422390
351.991045	2501.723008
352.381198	2498.466422
352.771288	2496.875938
353.161314	2498.244612
353.551276	2497.180928
353.941175	2499.850219
354.331010	2497.924498
354.720782	2497.664879
355.110490	2496.500372
355.500135	2496.303767
355.889717	2496.593634
356.279235	2497.372492
356.668689	2500.495487
357.058080	2498.882318
357.447408	2498.352996
357.836672	2498.073212
358.225873	2499.220075
358.615010	2497.470794
359.004084	2500.160250
359.393095	2502.065806
359.782043	2503.026146
360.170927	2503.764675
360.559748	2500.044303
360.948505	2506.771723
361.337199	2507.543020
361.725830	2507.938750
362.114398	2509.642660
362.502903	2509.037722
362.891344	2508.556292
363.279722	2508.210973
363.668037	2505.728204
364.056289	2508.006806
364.444478	2509.529234
364.832603	2511.039060
365.220665	2512.478309
365.608665	2512.858917
365.996601	2513.481499
366.384474	2512.609379
366.772284	2514.315810
367.160031	2511.054183
367.547715	2512.435460
367.935336	2516.259175
368.322893	2514.643485
368.710388	2516.690193
369.097820	2516.670029
369.485189	2517.159021
369.872495	2516.717920
370.259738	2516.347395
370.646918	2515.578619
371.034035	2517.332941
371.421090	2518.154649
371.808081	2517.743795
372.195010	2516.743126
372.581875	2517.849659
372.968678	2520.866789
373.355418	2522.706811
373.742096	2522.739578
374.128710	2522.268230
374.515262	2526.679240
374.901751	2527.271575
375.288177	2531.541433
375.674540	2533.998995
376.060841	2537.789943
376.447079	2545.507949
376.833254	2554.065308
377.219367	2553.828374
377.605417	2567.225240
377.991404	2572.883935
378.377329	2584.329875
378.763191	2593.461925
379.148991	2615.096037
379.534727	2626.758747
379.920402	2643.341622
380.306013	2659.498520
380.691563	2681.188085
381.077049	2696.903882
381.462474	2713.474154
381.847835	2738.884090
382.233134	2762.804365
382.618371	2774.363731
383.003545	2815.963333
383.388657	2835.795232
383.773706	2867.829244
384.158693	2888.918911
384.543618	2922.253541
384.928480	2956.871144
385.313280	3000.401508
385.698017	3020.303983
386.082692	3070.536561
386.467305	3093.201588
386.851856	3131.416055
387.236344	3163.961744
387.620770	3209.059907
388.005133	3247.357552
388.389435	3284.031947
388.773674	3312.895073
389.157851	3364.909698
389.541965	3395.469173
389.926018	3386.924417
390.310008	3460.520222
390.693936	3493.270078
391.077802	3541.271945
391.461606	3550.908111
391.845348	3620.818832
392.229027	3636.222078
392.612645	3658.894667
392.996200	3743.391968
393.379694	3790.877116
393.763125	3865.740771
394.146494	3847.806867
394.529801	3916.076692
394.913047	3968.887820
395.296230	3946.396712
395.679351	4009.403574
396.062410	4040.184859
396.445408	4034.047254
396.828343	4070.726690
397.211217	4102.841360
397.594028	4029.734547
397.976778	4098.238787
398.359466	4129.239362
398.742092	4159.642561
399.124656	4083.881581
399.507158	4167.932739
399.889598	4193.009958
400.271977	4256.430194
400.654294	4231.650403
401.036549	4238.587030
401.418742	4208.196434
401.800874	4310.592351
402.182944	4339.422710
402.564952	4397.416144
402.946898	4387.727046
403.328783	4387.603538
403.710606	4299.590033
404.092367	4488.587932
404.474067	4457.337819
404.855705	4466.835353
405.237282	4395.797934
405.618797	4504.381867
406.000250	4536.814130
406.381642	4618.253971
406.762972	4577.118155
407.144240	4593.234724
407.525447	4591.750104
407.906593	4649.085668
408.287677	4694.050239
408.668700	4621.089620
409.049661	4672.622815
409.430560	4712.531109
409.811399	4638.864728
410.192176	4800.910098
410.572891	4741.963886
410.953545	4841.438454
411.334138	4724.881936
411.714669	4791.457934
412.095139	4688.371379
412.475547	4830.441177
412.855894	4810.379905
413.236180	4815.824352
413.616405	4775.351448
413.996568	4860.413357
414.376670	4798.873472
414.756711	4755.033077
415.136691	4788.161020
415.516609	4866.321590
415.896466	4905.287188
416.276262	4938.268937
416.655997	4918.711781
417.035670	5097.892033
417.415283	5193.926013
417.794834	5136.698835
418.174324	5089.039767
418.553753	4998.152804
418.933121	5184.763716
419.312428	5247.352162
419.691674	5185.046021
420.070859	5311.233663
420.449983	5224.911466
420.829045	5344.422100
421.208047	5251.967338
421.586988	5321.772196
421.965867	5333.253423
422.344686	5466.541531
422.723444	5317.199869
423.102141	5139.287468
423.480777	5435.132622
423.859352	5206.838929
424.237866	5465.082117
424.616319	5459.773782
424.994712	5564.246654
425.373044	5442.371719
425.751314	5583.017391
426.129524	5387.670159
426.507673	5581.000929
426.885762	5667.522253
427.263789	5596.378969
427.641756	5477.364888
428.019662	5599.171768
428.397508	5606.738540
428.775292	5557.078134
429.153016	5653.185211
429.530679	5574.868366
429.908282	5661.926572
430.285824	5539.171955
430.663305	5808.515764
431.040726	5543.363675
431.418086	5545.422986
431.795385	5652.003061
432.172624	5664.003527
432.549802	5659.511859
432.926920	5665.470503
433.303977	5673.551473
433.680974	5715.261980
434.057910	5729.853599
434.434786	5740.452625
434.811601	5707.465835
435.188355	5943.701866
435.565050	5813.115817
435.941683	5798.874557
436.318257	6014.023442
436.694770	5997.879147
437.071222	6029.005751
437.447614	5964.967974
437.823946	5876.583944
438.200218	6029.807294
438.576429	5894.769906
438.952580	5996.417212
439.328670	6036.070928
439.704700	5947.689419
440.080670	5935.469662
440.456580	6202.358429
440.832429	6085.577579
441.208218	5933.339774
441.583947	6088.458599
441.959616	6090.338949
442.335224	6017.143916
442.710773	6156.378065
443.086261	6183.078536
443.461689	5971.022399
443.837057	6125.087623
444.212365	6281.607888
444.587612	6175.829357
444.962800	6325.050031
445.337927	6301.863244
445.712995	5911.015025
446.088002	6496.454303
446.462949	6324.848385
446.837837	6257.422952
447.212664	6431.680517
447.587431	6569.054480
447.962139	7110.817202
448.336786	8041.426805
448.711374	7780.718492
449.085901	6859.162802
449.460369	6780.672036
449.834776	6712.593774
450.209124	7101.289421
450.583412	7253.081084
450.957640	7395.176087
451.331808	7162.776374
451.705917	6714.544701
452.079965	6638.977805
452.453954	6848.241142
452.827883	6727.802935
453.201752	6821.028993
453.575562	6618.566173
453.949311	6826.486042
454.323001	6712.069494
454.696632	6787.916174
455.070202	6923.929026
455.443713	7081.606236
455.817164	7181.660537
456.190556	7263.735562
456.563888	7336.688620
456.937160	7380.186216
457.310373	7035.913217
457.683526	7062.921199
458.056619	6952.890455
458.429653	6941.946110
458.802628	6875.506223
459.175542	6985.244580
459.548398	7342.823705
459.921194	7502.719022
460.293930	7506.348653
460.666607	8033.897841
461.039224	8338.270108
461.411782	8469.889593
461.784280	8484.846697
462.156719	8371.387968
462.529099	8249.853310
462.901419	7846.230807
463.273680	7737.246102
463.645882	7743.731547
464.018024	7617.581713
464.390106	7783.483565
464.762130	8168.705857
465.134094	8642.604565
465.505999	9662.175410
465.877845	10887.206042
466.249631	11527.987107
466.621358	11150.508028
466.993026	10519.637871
467.364634	10262.473490
467.736184	9903.936546
468.107674	9566.741327
468.479105	9599.970092
468.850477	9359.902784
469.221790	9130.588258
469.593043	8808.927354
469.964238	8669.022732
470.335373	8675.697220
470.706449	8742.686593
471.077467	8718.007624
471.448425	10026.340802
471.819324	11104.058836
472.190164	11122.527103
472.560945	9879.703719
472.931667	9092.799768
473.302330	8949.636040
473.672934	8603.036549
474.043479	8958.233728
474.413965	8900.250377
474.784393	8777.382334
475.154761	8936.612219
475.525070	9022.090024
475.895321	8852.896298
476.265513	9030.478504
476.635645	9203.185914
477.005719	9202.875883
477.375734	9309.239188
477.745691	9544.855157
478.115588	9679.252319
478.485427	9927.698024
478.855207	10460.883223
479.224928	11282.379571
479.594591	11907.273440
479.964194	11714.739172
480.333739	11653.504276
480.703226	11580.271434
481.072653	11663.400061
481.442022	11898.441339
481.811333	12087.930750
482.180584	11893.576625
482.549777	11611.458533
482.918912	11428.484813
483.287988	11449.292175
483.657005	11461.128804
484.025964	11146.190279
484.394864	11271.263827
484.763706	11253.198852
485.132489	11010.119455
485.501213	10969.822992
485.869879	11044.447192
486.238487	10884.589683
486.607036	10991.570529
486.975527	10772.441654
487.343959	10965.941303
487.712333	11018.449962
488.080648	10942.494897
488.448905	10985.500980
488.817104	10930.242372
489.185244	11197.481499
489.553326	11351.229130
489.921350	11887.444062
490.289315	12958.782515
490.657222	13288.789049
491.025070	13202.865102
491.392861	13069.385431
491.760593	12695.099922
492.128267	12337.634223
492.495883	12013.215809
492.863440	11678.168121
493.230939	11341.572800
493.598380	11272.423292
493.965763	11134.167128
494.333088	11041.775380
494.700354	10964.565068
495.067563	11022.659325
495.434713	10848.711791
495.801805	10982.914868
496.168839	10904.101469
496.535815	10837.643938
496.902733	10843.630308
497.269593	10776.731676
497.636395	10874.774556
498.003139	10860.699655
498.369825	10727.255271
498.736453	10883.319312
499.103023	10812.571759
499.469535	10843.058137
499.835989	10835.362816
500.202385	10797.236569
500.568723	10646.909361
500.935003	10869.297343
501.301226	10676.871459
501.667390	10934.781931
502.033497	11034.274143
502.399546	10893.348688
502.765537	10797.405448
503.131470	10871.976716
503.497345	11048.437265
503.863163	10651.292645
504.228923	10963.168668
504.594625	11032.431602
504.960269	10777.308888
505.325856	10998.814667
505.691385	10786.912286
506.056856	10946.633684
506.422270	10968.726541
506.787625	10859.542710
507.152924	10980.943777
507.518164	10954.868409
507.883347	10870.179545
508.248472	10795.908225
508.613540	11035.955368
508.978550	10914.539178
509.343503	10894.243493
509.708398	11014.086843
510.073236	11120.150199
510.438016	11128.392486
510.802738	11078.414487
511.167403	11136.057560
511.532010	11033.001252
511.896561	11258.459296
512.261053	11335.193219
512.625488	11207.100021
512.989866	11178.680516
513.354186	11173.359578
513.718449	11073.146481
514.082655	11263.059349
514.446803	11161.308700
514.810894	11278.918819
515.174927	11144.609878
515.538904	11171.322952
515.902822	11326.731643
516.266684	11207.518437
516.630488	11151.112966
516.994235	11210.888448
517.357925	11264.652354
517.721558	11351.791218
518.085133	11372.039013
518.448651	11387.298586
518.812112	11264.758218
519.175516	11286.999789
519.538863	11403.445401
519.902152	11316.009108
520.265385	11478.858542
520.628560	11389.400747
520.991678	11368.444670
521.354739	11436.505288
521.717743	11367.413754
522.080690	11346.377019
522.443580	11476.547173
522.806413	11438.834301
523.169189	11464.161058
523.531908	11526.247909
523.894569	11346.263593
524.257174	11348.242246
524.619722	11470.621297
524.982213	11412.579972
525.344647	11465.134001
525.707025	11414.699777
526.069345	11509.150836
526.431608	11429.808115
526.793815	11530.921059
527.155964	11324.054790
527.518057	11377.727955
527.880093	11327.470172
528.242072	11399.230997
528.603995	11297.714761
528.965860	11218.853471
529.327669	11275.536205
529.689421	11218.424973
530.051117	11193.803977
530.412755	11300.321038
530.774337	11187.447082
531.135862	11160.557568
531.497331	11191.744666
531.858743	11038.307067
532.220098	11206.568179
532.581396	11075.518344
532.942638	11052.800384
533.303824	11023.407936
533.664953	11035.352950
534.026025	10952.796494
534.387040	11053.523789
534.747999	11055.389016
535.108902	11111.912954
535.469748	10873.320183
535.830537	10975.821965
536.191270	10948.098139
536.551947	10983.363531
536.912567	10973.361882
537.273131	10903.713300
537.633638	10879.024249
537.994089	10871.202899
538.354483	10824.584829
538.714821	10962.024327
539.075103	10967.655295
539.435328	10935.633886
539.795497	10762.392114
540.155609	10919.683675
540.515665	11012.125834
540.875665	10743.525595
541.235609	10818.759775
541.595496	10810.232664
541.955328	10956.562236
542.315102	10844.419248
542.674821	10796.873606
543.034483	10798.517022
543.394090	10804.173197
543.753640	10727.698893
544.113134	10954.838162
544.472571	10806.484566
544.831953	10942.847777
545.191278	10751.462892
545.550548	10783.761565
545.909761	10922.637792
546.268918	10894.677032
546.628019	10972.482200
546.987064	10843.602582
547.346053	10765.820098
547.704986	10860.649243
548.063863	10849.606596
548.422684	10842.405307
548.781449	10761.399006
549.140158	10864.820798
549.498811	10738.423948
549.857408	10596.235683
550.215949	10829.134470
550.574434	10676.679895
550.932864	10780.094125
551.291237	10834.011786
551.649555	10783.748962
552.007817	10799.089193
552.366022	10753.791905
552.724173	10751.034394
553.082267	10735.268185
553.440305	10871.381860
553.798288	10666.022896
554.156215	10829.694038
554.514086	10802.759153
554.871902	10651.322892
555.229661	10692.761176
555.587365	10664.324027
555.945014	10557.754035
556.302606	10683.984527
556.660143	10581.311347
557.017625	10729.990097
557.375050	10629.280446
557.732421	10770.072312
558.089735	10679.704588
558.446994	10680.919506
558.804197	10706.631911
559.161345	10715.464013
559.518437	10564.917515
559.875474	10655.446555
560.232455	10686.822697
560.589381	10631.977464
560.946251	10629.116609
561.303065	10740.148022
561.659825	10669.569348
562.016528	10599.817423
562.373177	10478.827210
562.729770	10600.533267
563.086307	10515.791470
563.442789	10605.443350
563.799216	10486.890535
564.155587	10530.224294
564.511904	10486.184774
564.868164	10472.104831
565.224370	10494.066618
565.580520	10415.225492
565.936615	10420.760679
566.292654	10295.132605
566.648638	10424.186143
567.004567	10382.415142
567.360441	10364.748419
567.716260	10267.103789
568.072023	10374.187979
568.427732	10322.319547
568.783385	10225.995700
569.138982	10299.687287
569.494525	10318.188322
569.850013	10191.609990
570.205445	10272.512948
570.560823	10172.587196
570.916145	10086.254916
571.271412	10157.897274
571.626625	10100.284447
571.981782	10079.555222
572.336884	10055.110667
572.691931	10051.949864
573.046923	10003.900106
573.401860	9960.095000
573.756743	9891.651254
574.111570	9938.165980
574.466342	9921.300800
574.821059	9948.901118
575.175722	9844.715591
575.530330	9847.490746
575.884882	9845.812042
576.239380	9770.908057
576.593823	9746.201362
576.948211	9765.564434
577.302544	9645.978183
577.656823	9659.909412
578.011047	9661.772118
578.365216	9628.092169
578.719330	9555.996107
579.073389	9573.927492
579.427394	9517.887505
579.781344	9496.898661
580.135239	9444.760527
580.489080	9451.800498
580.842866	9355.955561
581.196597	9362.516623
581.550273	9395.032065
581.903895	9369.566676
582.257463	9433.770812
582.610975	9312.021905
582.964434	9347.657822
583.317837	9260.103062
583.671186	9242.242254
584.024481	9235.519875
584.377721	9155.725971
584.730906	9134.260738
585.084037	9167.867590
585.437113	9099.396118
585.790135	9118.091237
586.143103	9021.371660
586.496016	8992.889140
586.848874	9046.529538
587.201679	9037.276500
587.554428	8929.542001
587.907124	8970.786201
588.259765	8938.351417
588.612352	8944.189074
588.964884	8820.958068
589.317362	8829.172628
589.669786	8832.464502
590.022155	8881.673725
590.374470	8905.352024
590.726731	8830.805962
591.078937	8685.908077
591.431090	8798.492166
591.783188	8673.368207
592.135232	8669.559615
592.487222	8660.399838
592.839157	8716.200370
593.191038	8648.139752
593.542866	8600.140406
593.894639	8491.526226
594.246358	8547.924134
594.598022	8571.773833
594.949633	8463.900703
595.301190	8436.980941
595.652692	8467.706774
596.004141	8576.573012
596.355535	8350.547838
596.706876	8334.020415
597.058162	8265.488449
597.409395	8343.318823
597.760573	8408.236282
598.111698	8319.267478
598.462768	8302.225858
598.813785	8266.289992
599.164748	8231.768171
599.515657	8225.043272
599.866511	8135.061196
600.217312	8262.083150
600.568060	8121.669371
600.918753	8224.229125
601.269392	8194.156122
601.619978	8105.595652
601.970510	8171.491094
602.320988	8164.819127
602.671412	8222.510092
603.021783	8159.967017
603.372100	8131.252604
603.722363	8133.253942
604.072572	8106.929037
604.422728	8123.401007
604.772830	8046.679687
605.122878	8059.136378
605.472872	8050.107672
605.822813	8085.788958
606.172701	8024.974999
606.522534	8098.424611
606.872314	8107.985159
607.222041	8068.717091
607.571714	8122.188610
607.921333	8084.667302
608.270899	8089.665606
608.620411	8177.563164
608.969870	8080.649502
609.319276	8076.979542
609.668627	8093.368333
610.017926	8125.974516
610.367171	8172.204418
610.716362	8150.497209
611.065500	8145.977815
611.414585	8173.255498
611.763616	8154.958630
612.112594	8138.461454
612.461518	8158.454671
612.810389	8217.849545
613.159207	8153.073239
613.507971	8106.230837
613.856682	8225.386070
614.205340	8172.862288
614.553945	8260.404445
614.902496	8151.001325
615.250994	8204.593831
615.599439	8190.909619
615.947830	8202.660549
616.296169	8170.497987
616.644454	8189.828292
616.992686	8190.642438
617.340864	8247.708299
617.688990	8148.616859
618.037063	8235.705312
618.385082	8189.215791
618.733048	8274.464223
619.080961	8209.980304
619.428821	8228.544353
619.776628	8238.944253
620.124382	8183.799072
620.472083	8167.564036
620.819731	8199.242646
621.167326	8093.973272
621.514868	8095.614167
621.862357	7985.558217
622.209793	8007.121753
622.557176	7938.741021
622.904506	7907.853872
623.251783	7844.879778
623.599007	7791.362889
623.946179	7801.193139
624.293297	7753.614729
624.640363	7669.203128
624.987376	7657.679050
625.334336	7604.227696
625.681243	7549.148049
626.028097	7536.308230
626.374899	7518.714603
626.721647	7508.657502
627.068343	7442.187368
627.414987	7415.885147
627.761577	7365.183742
628.108115	7408.270484
628.454600	7299.104298
628.801032	7351.643203
629.147412	7305.531769
629.493739	7300.210831
629.840014	7237.445945
630.186236	7295.550284
630.532405	7177.751122
630.878521	7230.080819
631.224585	7183.084663
631.570597	7107.356450
631.916556	7137.154710
632.262462	7136.184288
632.608316	7095.053514
632.954117	7071.581901
633.299866	7063.639563
633.645562	7055.155302
633.991206	6977.415668
634.336797	6913.231697
634.682336	6871.064966
635.027823	6842.463980
635.373257	6832.953843
635.718639	6765.394820
636.063968	6778.383353
636.409245	6673.343350
636.754470	6670.283370
637.099642	6630.334746
637.444762	6574.461118
637.789829	6583.368837
638.134845	6523.706781
638.479808	6511.421489
638.824719	6510.446026
639.169577	6438.914573
639.514383	6462.706299
639.859137	6387.819958
640.203839	6397.821607
640.548489	6384.175204
