Dividing Wavelength (nm)	Counts (n)	Blue Motor Position (mm): 32.000000	Red Motor Position (mm): 0.000000	
326.493990	2100.316092
326.888308	2100.316092
327.282561	2100.316092
327.676750	2076.957905
328.070874	2078.077041
328.464933	2082.016703
328.858929	2094.002046
329.252859	2105.248861
329.646726	2120.435337
330.040528	2138.381844
330.434265	2156.381284
330.827938	2175.822494
331.221547	2197.360824
331.615091	2213.729450
332.008571	2239.051166
332.401986	2259.699732
332.795338	2281.250665
333.188625	2296.981585
333.581847	2316.105203
333.975006	2335.082626
334.368100	2350.417816
334.761129	2369.732997
335.154095	2384.506098
335.546996	2432.117276
335.939833	2510.199708
336.332606	2525.292922
336.725315	2534.021680
337.117960	2545.223124
337.510540	2553.001625
337.903056	2562.811710
338.295508	2570.494428
338.687896	2574.837382
339.080220	2584.624783
339.472480	2587.160483
339.864676	2591.790783
340.256807	2593.406473
340.648875	2595.062492
341.040879	2596.340424
341.432818	2596.350507
341.824694	2597.497369
342.216506	2598.069540
342.608253	2599.241608
342.999937	2598.992071
343.391557	2594.197934
343.783113	2595.251535
344.174605	2592.975454
344.566033	2589.887747
344.957397	2589.602922
345.348697	2589.124012
345.739934	2585.156624
346.131106	2586.089238
346.522215	2584.508836
346.913260	2583.430029
347.304241	2578.426684
347.695159	2579.583629
348.086012	2577.098340
348.476802	2573.982907
348.867528	2575.399471
349.258191	2573.153637
349.648789	2575.734708
350.039324	2572.944429
350.429796	2570.040725
350.820203	2570.968297
351.210548	2568.379664
351.600828	2566.615261
351.991045	2568.200703
352.381198	2568.309088
352.771288	2567.290775
353.161314	2565.942267
353.551276	2567.225240
353.941175	2566.143913
354.331010	2567.835220
354.720782	2568.230950
355.110490	2568.702298
355.500135	2567.139541
355.889717	2570.045766
356.279235	2569.970148
356.668689	2571.200190
357.058080	2569.322360
357.447408	2567.318502
357.836672	2568.737586
358.225873	2568.767833
358.615010	2567.439489
359.004084	2572.831003
359.393095	2573.027608
359.782043	2573.869481
360.170927	2574.827300
360.559748	2574.623133
360.948505	2575.873340
361.337199	2577.915007
361.725830	2575.328895
362.114398	2578.898032
362.502903	2579.621438
362.891344	2576.616910
363.279722	2578.976170
363.668037	2580.806109
364.056289	2581.897518
364.444478	2581.146387
364.832603	2580.992631
365.220665	2578.492219
365.608665	2582.278126
365.996601	2582.512539
366.384474	2581.763928
366.772284	2582.331058
367.160031	2585.154104
367.547715	2584.302149
367.935336	2584.523960
368.322893	2585.388517
368.710388	2584.720565
369.097820	2586.835329
369.485189	2585.852304
369.872495	2589.290371
370.259738	2586.379104
370.646918	2586.086717
371.034035	2587.934300
371.421090	2586.532859
371.808081	2588.226687
372.195010	2590.805237
372.581875	2588.761049
372.968678	2592.431009
373.355418	2589.928077
373.742096	2592.385639
374.128710	2594.039137
374.515262	2591.826071
374.901751	2594.102152
375.288177	2592.289857
375.674540	2592.045361
376.060841	2595.566607
376.447079	2595.972420
376.833254	2597.940991
377.219367	2590.008735
377.605417	2595.712801
377.991404	2592.166349
378.377329	2595.536360
378.763191	2594.311360
379.148991	2599.942329
379.534727	2599.652462
379.920402	2600.169181
380.306013	2596.751278
380.691563	2599.160950
381.077049	2598.805548
381.462474	2601.154726
381.847835	2601.099273
382.233134	2602.556167
382.618371	2603.725715
383.003545	2604.055910
383.388657	2600.632967
383.773706	2604.239912
384.158693	2602.609099
384.543618	2606.087495
384.928480	2607.418360
385.313280	2605.900973
385.698017	2606.752927
386.082692	2609.369286
386.467305	2609.132352
386.851856	2608.915582
387.236344	2606.760489
387.620770	2612.061262
388.005133	2610.070007
388.389435	2610.364914
388.773674	2612.033536
389.157851	2610.639657
389.541965	2611.632764
389.926018	2610.735439
390.310008	2614.682662
390.693936	2615.093517
391.077802	2612.618310
391.461606	2616.159721
391.845348	2615.922786
392.229027	2618.022427
392.612645	2614.599483
392.996200	2617.457818
393.379694	2618.781121
393.763125	2621.379835
394.146494	2620.301028
394.529801	2622.690535
394.913047	2622.130967
395.296230	2622.856893
395.679351	2623.499641
396.062410	2625.201030
396.445408	2622.498972
396.828343	2624.162552
397.211217	2623.252624
397.594028	2625.926956
397.976778	2623.615587
398.359466	2624.230608
398.742092	2622.488889
399.124656	2627.487193
399.507158	2627.709004
399.889598	2628.714714
400.271977	2630.350569
400.654294	2631.930970
401.036549	2630.007770
401.418742	2634.307874
401.800874	2636.183184
402.182944	2634.476753
402.564952	2636.694861
402.946898	2636.707464
403.328783	2637.561939
403.710606	2638.670993
404.092367	2639.142341
404.474067	2640.546302
404.855705	2642.134266
405.237282	2642.388844
405.618797	2643.613844
406.000250	2645.663073
406.381642	2648.896974
406.762972	2646.620893
407.144240	2649.519556
407.525447	2649.811943
407.906593	2652.332520
408.287677	2649.670791
408.668700	2651.626758
409.049661	2657.693787
409.430560	2654.653971
409.811399	2654.752274
410.192176	2655.752943
410.572891	2659.553973
410.953545	2661.318377
411.334138	2662.036741
411.714669	2664.426248
412.095139	2665.086639
412.475547	2666.115035
412.855894	2668.529747
413.236180	2671.357835
413.616405	2673.091992
413.996568	2677.838238
414.376670	2676.812363
414.756711	2678.899401
415.136691	2682.022396
415.516609	2685.468024
415.896466	2690.315094
416.276262	2694.259797
416.655997	2700.687268
417.035670	2703.308668
417.415283	2715.404916
417.794834	2720.259547
418.174324	2727.173490
418.553753	2735.491394
418.933121	2748.058990
419.312428	2758.824374
419.691674	2768.831065
420.070859	2788.209260
420.449983	2798.735189
420.829045	2821.478355
421.208047	2835.245746
421.586988	2865.946373
421.965867	2896.147926
422.344686	2919.914446
422.723444	2963.059161
423.102141	2961.239304
423.480777	3022.937986
423.859352	3048.350443
424.237866	3122.321814
424.616319	3159.091990
424.994712	3233.643093
425.373044	3278.743776
425.751314	3365.466746
426.129524	3382.566340
426.507673	3509.731966
426.885762	3565.136767
427.263789	3652.943585
427.641756	3743.507914
428.019662	3834.793128
428.397508	3926.431222
428.775292	4046.140982
429.153016	4143.715036
429.530679	4258.365998
429.908282	4368.742061
430.285824	4449.902117
430.663305	4648.329494
431.040726	4725.305393
431.418086	4821.263757
431.795385	5035.197723
432.172624	5232.873968
432.549802	5304.677643
432.926920	5474.645186
433.303977	5602.566985
433.680974	5794.120749
434.057910	6006.681001
434.434786	6175.809192
434.811601	6318.292364
435.188355	6708.933897
435.565050	6819.567059
435.941683	6984.974878
436.318257	7378.449539
436.694770	7521.880448
437.071222	7872.762400
437.447614	7814.811816
437.823946	8006.627720
438.200218	8258.355216
438.576429	8394.597440
438.952580	8686.235752
439.328670	8870.925985
439.704700	9220.235097
440.080670	9279.927399
440.456580	9701.115803
440.832429	9984.587446
441.208218	9817.006889
441.583947	10191.625113
441.959616	10450.637077
442.335224	10769.606005
442.710773	11042.715556
443.086261	11507.051195
443.461689	11434.274578
443.837057	11707.487472
444.212365	12245.688618
444.587612	12478.902478
444.962800	12500.750838
445.337927	12955.911578
445.712995	12468.184985
446.088002	13718.991036
446.462949	14077.563268
446.837837	14417.183282
447.212664	14652.622810
447.587431	16653.587842
447.962139	18739.080421
448.336786	20454.879982
448.711374	19659.393467
449.085901	17540.510806
449.460369	17817.257549
449.834776	18082.039113
450.209124	20061.317101
450.583412	19939.429563
450.957640	20490.175621
451.331808	19808.800664
451.705917	19062.964473
452.079965	19328.721501
452.453954	19833.409056
452.827883	19976.403906
453.201752	20039.960253
453.575562	20363.257011
453.949311	21453.653547
454.323001	21717.290769
454.696632	21734.440775
455.070202	23196.408157
455.443713	23541.679305
455.817164	24217.461102
456.190556	24865.158630
456.563888	24583.842081
456.937160	25123.908454
457.310373	23899.606269
457.683526	24464.155006
458.056619	24648.527646
458.429653	24770.311841
458.802628	25479.415664
459.175542	25744.328299
459.548398	27092.037930
459.921194	28684.523307
460.293930	29483.195831
460.666607	31464.137399
461.039224	33225.934969
461.411782	33732.132350
461.784280	32755.650768
462.156719	32444.896401
462.529099	32104.041304
462.901419	31027.903672
463.273680	30189.032987
463.645882	30438.497005
464.018024	30543.675639
464.390106	31524.066636
464.762130	34329.824153
465.134094	38463.960996
465.505999	43726.928132
465.877845	48252.371940
466.249631	49437.355645
466.621358	47808.883992
466.993026	45837.097159
467.364634	43913.430660
467.736184	42102.010492
468.107674	40956.221758
468.479105	40260.494637
468.850477	39635.338628
469.221790	38283.870816
469.593043	36609.015507
469.964238	35801.750335
470.335373	35800.941230
470.706449	37708.082827
471.077467	40492.682621
471.448425	45074.834368
471.819324	47752.745703
472.190164	45795.691642
472.560945	42295.956284
472.931667	39261.010269
473.302330	38198.791263
473.672934	37393.981134
474.043479	37968.261818
474.413965	37198.485187
474.784393	36856.493311
475.154761	37792.857391
475.525070	37852.108592
475.895321	37385.136429
476.265513	38019.797534
476.635645	39030.594250
477.005719	38892.396059
477.375734	39408.247250
477.745691	40143.030711
478.115588	41526.714016
478.485427	43649.254034
478.855207	47118.031666
479.224928	49737.140462
479.594591	51268.514451
479.964194	50231.783518
480.333739	50391.346120
480.703226	50496.323107
481.072653	51156.563027
481.442022	51614.481277
481.811333	51832.445646
482.180584	50546.722043
482.549777	50045.520445
482.918912	49505.199494
483.287988	49213.349454
483.657005	48385.647445
484.025964	47718.198676
484.394864	47742.648272
484.763706	47318.135227
485.132489	46426.395441
485.501213	46271.798376
485.869879	46425.679597
486.238487	46031.453804
486.607036	46199.558641
486.975527	45650.970197
487.343959	45874.520165
487.712333	45948.065558
488.080648	45849.326998
488.448905	46313.503842
488.817104	46112.560929
489.185244	47155.114394
489.553326	48932.791598
489.921350	51661.532887
490.289315	54434.023829
490.657222	54940.916890
491.025070	55178.118302
491.392861	54273.452997
491.760593	53057.950146
492.128267	51395.286867
492.495883	49877.962574
492.863440	48453.224112
493.230939	47107.296529
493.598380	46006.858015
493.965763	45677.617737
494.333088	44845.794584
494.700354	44357.500861
495.067563	44048.563830
495.434713	43911.749435
495.801805	43982.711237
496.168839	43606.114360
496.535815	43256.275927
496.902733	43285.204588
497.269593	42860.925957
497.636395	42779.871765
498.003139	43206.345819
498.369825	42639.150476
498.736453	42963.261380
499.103023	42476.764828
499.469535	42357.750748
499.835989	42449.207361
500.202385	42098.075872
500.568723	42123.511014
500.935003	42311.725013
501.301226	42103.338837
501.667390	42738.768717
502.033497	42996.527954
502.399546	42419.888010
502.765537	41697.835983
503.131470	42108.354785
503.497345	42475.476813
503.863163	41105.906219
504.228923	41738.134967
504.594625	42167.908456
504.960269	41418.419949
505.325856	42133.374031
505.691385	41476.042858
506.056856	41622.589200
506.422270	42053.809500
506.787625	41620.116514
507.152924	41834.932682
507.518164	41933.484719
507.883347	41110.042486
508.248472	41362.422812
508.613540	41862.434697
508.978550	42159.099039
509.343503	41920.269335
509.708398	42117.741413
510.073236	42655.710666
510.438016	42655.314936
510.802738	42093.306940
511.167403	42723.332704
511.532010	42956.075215
511.896561	43264.601393
512.261053	44144.202080
512.625488	43666.880428
512.989866	43526.927915
513.354186	43359.208727
513.718449	43357.227553
514.082655	44043.651226
514.446803	43710.937592
514.810894	44251.629069
515.174927	44149.638965
515.538904	44046.479313
515.902822	44720.227004
516.266684	44161.982230
516.630488	44596.265031
516.994235	44441.892297
517.357925	45028.188572
517.721558	45212.145317
518.085133	45514.181008
518.448651	45625.890457
518.812112	45395.378656
519.175516	45485.701010
519.538863	45829.028792
519.902152	45792.447659
520.265385	46271.616894
520.628560	46291.315203
520.991678	46082.346773
521.354739	46317.289748
521.717743	46642.413924
522.080690	46510.002977
522.443580	47044.544246
522.806413	47087.462109
523.169189	47050.790236
523.531908	47223.046462
523.894569	47076.333762
524.257174	47234.918380
524.619722	47514.268879
524.982213	47504.499123
525.344647	47429.111188
525.707025	47464.129563
526.069345	47880.223881
526.431608	47778.934497
526.793815	48104.008262
527.155964	47619.104714
527.518057	47790.330025
527.880093	47568.536900
528.242072	48120.218092
528.603995	47793.170716
528.965860	47791.466806
529.327669	47893.265346
529.689421	47792.192732
530.051117	47728.757372
530.412755	47885.514572
530.774337	47955.619378
531.135862	47748.758150
531.497331	47942.386349
531.858743	47823.195828
532.220098	48171.269857
532.581396	47878.998880
532.942638	47522.659880
533.303824	47858.584728
533.664953	47809.783838
534.026025	47525.752628
534.387040	48005.499074
534.747999	47953.169377
535.108902	48101.069269
535.469748	47617.118500
535.830537	47710.926811
536.191270	47924.860777
536.551947	47574.944207
536.912567	47882.421824
537.273131	47988.124738
537.633638	47487.749889
537.994089	47810.547573
538.354483	47402.854338
538.714821	47974.581678
539.075103	48322.370882
539.435328	48079.972040
539.795497	47951.004201
540.155609	47939.303683
540.515665	48408.320034
540.875665	47851.184314
541.235609	48177.624231
541.595496	48152.446188
541.955328	48840.687197
542.315102	48171.501750
542.674821	47934.189433
543.034483	47985.634408
543.394090	47981.898913
543.753640	47915.597657
544.113134	48932.826886
544.472571	47912.799817
544.831953	49170.124080
545.191278	48361.480153
545.550548	48073.791586
545.909761	48549.908402
546.268918	48730.270804
546.628019	49043.376869
546.987064	48601.275239
547.346053	47838.841049
547.704986	48738.480323
548.063863	48292.771747
548.422684	48463.180391
548.781449	48286.944173
549.140158	48700.848110
549.498811	48534.106905
549.857408	47964.859813
550.215949	48800.423501
550.574434	48739.730529
550.932864	48484.428854
551.291237	49192.501762
551.649555	48801.938368
552.007817	49036.674655
552.366022	48674.185447
552.724173	48837.685190
553.082267	49243.969422
553.440305	49504.289566
553.798288	48808.968257
554.156215	49131.433224
554.514086	49325.598306
554.871902	49035.300941
555.229661	49065.053831
555.587365	48879.952744
555.945014	48979.926387
556.302606	48909.599770
556.660143	49123.327049
557.017625	49192.819355
557.375050	48985.943004
557.732421	49333.059213
558.089735	49293.266866
558.446994	49216.548066
558.804197	49681.012255
559.161345	49604.663980
559.518437	48828.036421
559.875474	49139.662908
560.232455	49312.098096
560.589381	49486.108644
560.946251	49172.158186
561.303065	49841.653663
561.659825	49636.221603
562.016528	49287.766967
562.373177	49012.398979
562.729770	49485.649899
563.086307	48999.418008
563.442789	49458.495724
563.799216	49475.600359
564.155587	49263.889542
564.511904	49284.495258
564.868164	49362.282782
565.224370	49594.906827
565.580520	49329.187607
565.936615	49533.866015
566.292654	49245.572509
566.648638	49501.844606
567.004567	49443.112643
567.360441	49486.643007
567.716260	49342.743270
568.072023	49624.450509
568.427732	49579.354867
568.783385	49120.998036
569.138982	49511.594197
569.494525	49449.835022
569.850013	49212.621007
570.205445	49181.895174
570.560823	49134.747783
570.916145	48998.099746
571.271412	49037.380417
571.626625	48775.348802
571.981782	48808.428853
572.336884	48487.138475
572.691931	48806.306528
573.046923	48413.446888
573.401860	48240.371473
573.756743	48208.869303
574.111570	48316.417279
574.466342	48151.541301
574.821059	48258.670862
575.175722	47766.835728
575.530330	47799.860327
575.884882	47486.618150
576.239380	47429.821990
576.593823	47409.884227
576.948211	47308.768763
577.302544	46834.398707
577.656823	46842.915736
578.011047	47067.567196
578.365216	46779.402239
578.719330	46540.012966
579.073389	46397.000473
579.427394	46471.634755
579.781344	46432.643951
580.135239	46074.507779
580.489080	46143.526216
580.842866	45608.869001
581.196597	46056.024388
581.550273	45997.030285
581.903895	45845.067223
582.257463	46268.526667
582.610975	45610.257839
582.964434	45894.478093
583.317837	45526.075611
583.671186	45355.498088
584.024481	45578.546461
584.377721	45081.060193
584.730906	45358.066556
585.084037	45403.320994
585.437113	45134.171270
585.790135	45145.350028
586.143103	44724.756481
586.496016	44830.860166
586.848874	44860.686153
587.201679	44855.249268
587.554428	44327.553887
587.907124	44519.221077
588.259765	44257.655768
588.612352	44495.754505
588.964884	43877.514959
589.317362	44172.656873
589.669786	44099.040903
590.022155	43858.797155
590.374470	44277.785095
590.726731	43782.932831
591.078937	43299.972648
591.431090	43389.125454
591.783188	43047.342785
592.135232	42701.751524
592.487222	42965.081237
592.839157	43045.616190
593.191038	42683.300901
593.542866	42450.079480
593.894639	41823.756444
594.246358	42130.727425
594.598022	42091.986158
594.949633	41702.453680
595.301190	41643.633497
595.652692	41479.619556
596.004141	41797.275263
596.355535	40803.923459
596.706876	40727.595349
597.058162	40577.578172
597.409395	41021.945802
597.760573	41112.510130
598.111698	40693.645698
598.462768	40700.967974
598.813785	40718.546478
599.164748	40180.642760
599.515657	40545.975179
599.866511	40039.482890
600.217312	40649.991827
600.568060	39606.941808
600.918753	40364.912056
601.269392	40307.546246
601.619978	39955.172113
601.970510	40171.944249
602.320988	40359.911232
602.671412	40630.890895
603.021783	40396.547817
603.372100	40046.051514
603.722363	40148.795270
604.072572	40210.839271
604.422728	40232.097817
604.772830	40025.536538
605.122878	40149.218727
605.472872	40074.438251
605.822813	40338.249393
606.172701	40150.907514
606.522534	40413.768399
606.872314	40654.581797
607.222041	40410.330332
607.571714	40804.697277
607.921333	40234.071429
608.270899	40530.808867
608.620411	40868.757739
608.969870	40653.165233
609.319276	40662.962716
609.668627	40703.448222
610.017926	41180.064113
610.367171	41322.385968
610.716362	41391.855588
611.065500	41346.749864
611.414585	41529.479088
611.763616	41827.817094
612.112594	41767.232507
612.461518	41962.960346
612.810389	42271.126081
613.159207	42129.973773
613.507971	42211.970661
613.856682	42678.353009
614.205340	42571.606576
614.553945	43274.807208
614.902496	42708.115981
615.250994	43174.299204
615.599439	43240.555089
615.947830	43446.251810
616.296169	43507.504349
616.644454	43631.914985
616.992686	43787.482472
617.340864	44297.032221
617.688990	44016.786917
618.037063	44625.236542
618.385082	44572.049848
618.733048	44881.261622
619.080961	44887.575667
619.428821	44907.977217
619.776628	45004.618657
620.124382	44841.892731
620.472083	44967.903933
620.819731	45104.982989
621.167326	44780.930058
621.514868	44766.008243
621.862357	44322.467362
622.209793	44361.024628
622.557176	44012.484292
622.904506	43753.966361
623.251783	43421.905557
623.599007	43173.933720
623.946179	42968.068120
624.293297	42897.890218
624.640363	42316.070488
624.987376	42295.268166
625.334336	42051.263717
625.681243	41706.781510
626.028097	41651.724549
626.374899	41514.045596
626.721647	41492.424087
627.068343	41383.336038
627.414987	41140.644810
627.761577	40908.313153
628.108115	41249.127920
628.454600	40678.859994
628.801032	40865.730526
629.147412	40830.631492
629.493739	40818.391571
629.840014	40460.913269
630.186236	40810.345889
630.532405	40388.918031
630.878521	40609.879366
631.224585	40470.151184
631.570597	40183.846413
631.916556	40350.103667
632.262462	40295.112240
632.608316	40305.272686
632.954117	40204.920957
633.299866	40185.194922
633.645562	40124.232248
633.991206	39632.455088
634.336797	39189.599804
634.682336	39203.226043
635.027823	38954.671953
635.373257	38754.568392
635.718639	38522.045171
636.063968	38392.701766
636.409245	37791.276989
