Dividing Wavelength (nm)	Counts (n)	Blue Motor Position (mm): 4.100000	Red Motor Position (mm): 0.000000	
326.493990	2143.904428
326.888308	2143.904428
327.282561	2143.904428
327.676750	2112.372011
328.070874	2111.003338
328.464933	2112.583739
328.858929	2118.877620
329.252859	2127.225771
329.646726	2139.838738
330.040528	2152.499596
330.434265	2168.661535
330.827938	2188.647189
331.221547	2205.590507
331.615091	2223.642879
332.008571	2245.130798
332.401986	2261.862387
332.795338	2285.046654
333.188625	2303.454427
333.581847	2319.465132
333.975006	2339.503718
334.368100	2360.840402
334.761129	2373.534027
335.154095	2390.590771
335.546996	2407.148441
335.939833	2422.821388
336.332606	2440.941816
336.725315	2449.894905
337.117960	2459.402521
337.510540	2469.452061
337.903056	2478.679893
338.295508	2485.654330
338.687896	2494.390649
339.080220	2505.234171
339.472480	2511.054183
339.864676	2514.993845
340.256807	2516.904443
340.648875	2520.282016
341.040879	2526.250742
341.432818	2523.689836
341.824694	2529.708973
342.216506	2527.606812
342.608253	2528.216792
342.999937	2526.185207
343.391557	2527.158149
343.783113	2524.710669
344.174605	2524.871986
344.566033	2525.754188
344.957397	2523.420134
345.348697	2520.201357
345.739934	2519.687159
346.131106	2516.551562
346.522215	2515.858403
346.913260	2512.972342
347.304241	2513.791530
347.695159	2508.052176
348.086012	2510.638288
348.476802	2505.730725
348.867528	2505.619820
349.258191	2503.278204
349.648789	2501.934736
350.039324	2499.152019
350.429796	2499.474653
350.820203	2500.150168
351.210548	2497.765702
351.600828	2496.117245
351.991045	2497.498521
352.381198	2495.887872
352.771288	2494.602378
353.161314	2494.315032
353.551276	2495.214878
353.941175	2494.955259
354.331010	2493.911740
354.720782	2494.360403
355.110490	2495.287975
355.500135	2495.144302
355.889717	2495.867707
356.279235	2492.671616
356.668689	2495.184631
357.058080	2496.691936
357.447408	2494.062974
357.836672	2491.847387
358.225873	2495.114055
358.615010	2492.860659
359.004084	2497.692605
359.393095	2500.356855
359.782043	2497.594303
360.170927	2498.058089
360.559748	2498.365599
360.948505	2497.727893
361.337199	2497.833758
361.725830	2501.024808
362.114398	2499.648573
362.502903	2503.719305
362.891344	2498.698315
363.279722	2502.411125
363.668037	2501.198728
364.056289	2505.340036
364.444478	2501.299551
364.832603	2504.263749
365.220665	2505.261898
365.608665	2504.745179
365.996601	2506.592762
366.384474	2508.210973
366.772284	2506.451610
367.160031	2506.927999
367.547715	2506.222238
367.935336	2503.568070
368.322893	2507.232989
368.710388	2506.701147
369.097820	2506.880108
369.485189	2509.100736
369.872495	2508.021929
370.259738	2508.964625
370.646918	2507.979080
371.034035	2509.604852
371.421090	2510.940758
371.808081	2510.434122
372.195010	2512.168278
372.581875	2510.643329
372.968678	2510.910511
373.355418	2510.837414
373.742096	2508.223576
374.128710	2509.519152
374.515262	2512.344719
374.901751	2509.930006
375.288177	2512.372445
375.674540	2511.374297
376.060841	2512.730367
376.447079	2514.275481
376.833254	2512.745491
377.219367	2508.619306
377.605417	2511.069307
377.991404	2508.974708
378.377329	2509.259533
378.763191	2512.760614
379.148991	2514.923269
379.534727	2512.939575
379.920402	2514.381345
380.306013	2512.536283
380.691563	2518.169772
381.077049	2513.998217
381.462474	2516.793537
381.847835	2517.683301
382.233134	2517.007786
382.618371	2512.465707
383.003545	2517.733712
383.388657	2516.057529
383.773706	2517.562313
384.158693	2517.786644
384.543618	2520.014834
384.928480	2518.457118
385.313280	2517.032992
385.698017	2518.719258
386.082692	2518.878054
386.467305	2519.422499
386.851856	2521.202026
387.236344	2519.046933
387.620770	2518.273116
388.005133	2519.850997
388.389435	2519.203209
388.773674	2519.193126
389.157851	2516.415451
389.541965	2517.703465
389.926018	2521.063394
390.310008	2519.944258
390.693936	2518.676408
391.077802	2521.743950
391.461606	2519.120030
391.845348	2519.848476
392.229027	2520.949968
392.612645	2518.542818
392.996200	2518.565503
393.379694	2519.460307
393.763125	2520.917201
394.146494	2521.978364
394.529801	2522.757222
394.913047	2523.157994
395.296230	2525.434075
395.679351	2522.081708
396.062410	2524.176307
396.445408	2520.546676
396.828343	2524.302336
397.211217	2519.046933
397.594028	2521.496934
397.976778	2519.485513
398.359466	2522.789990
398.742092	2521.433919
399.124656	2524.040196
399.507158	2527.226205
399.889598	2525.136647
400.271977	2523.452901
400.654294	2523.599095
401.036549	2524.995494
401.418742	2523.720083
401.800874	2528.055475
402.182944	2524.110772
402.564952	2526.636390
402.946898	2527.710156
403.328783	2526.371729
403.710606	2524.214116
404.092367	2526.651513
404.474067	2528.985568
404.855705	2526.139836
405.237282	2527.153108
405.618797	2526.810310
406.000250	2527.551359
406.381642	2528.342821
406.762972	2526.986750
407.144240	2528.312574
407.525447	2530.263500
407.906593	2528.662934
408.287677	2529.996319
408.668700	2525.832326
409.049661	2526.790145
409.430560	2530.190403
409.811399	2530.104704
410.192176	2530.024045
410.572891	2527.949611
410.953545	2530.989426
411.334138	2528.090763
411.714669	2529.396422
412.095139	2531.891793
412.475547	2530.916330
412.855894	2527.198479
413.236180	2531.435568
413.616405	2529.426669
413.996568	2529.315763
414.376670	2529.696370
414.756711	2531.082688
415.136691	2533.366330
415.516609	2531.274252
415.896466	2532.539581
416.276262	2532.738707
416.655997	2527.760567
417.035670	2527.417769
417.415283	2531.307019
417.794834	2525.701256
418.174324	2528.332738
418.553753	2530.218130
418.933121	2534.987061
419.312428	2531.039838
419.691674	2532.375744
420.070859	2529.661082
420.449983	2532.963038
420.829045	2531.952287
421.208047	2535.075282
421.586988	2533.283151
421.965867	2533.504962
422.344686	2533.820034
422.723444	2535.458409
423.102141	2533.358769
423.480777	2536.176774
423.859352	2532.630322
424.237866	2535.483615
424.616319	2533.303316
424.994712	2535.801208
425.373044	2537.338760
425.751314	2536.522093
426.129524	2532.562266
426.507673	2536.181815
426.885762	2533.154602
427.263789	2533.295754
427.641756	2533.446989
428.019662	2535.135775
428.397508	2536.620395
428.775292	2533.247863
429.153016	2536.380940
429.530679	2537.580735
429.908282	2536.610313
430.285824	2534.888759
430.663305	2535.796167
431.040726	2536.181815
431.418086	2536.975797
431.795385	2538.198276
432.172624	2534.631660
432.549802	2535.103008
432.926920	2538.765406
433.303977	2536.496887
433.680974	2536.456558
434.057910	2537.689120
434.434786	2533.636032
434.811601	2539.221631
435.188355	2537.036290
435.565050	2539.261960
435.941683	2537.805066
436.318257	2535.055117
436.694770	2533.121834
437.071222	2533.908254
437.447614	2533.870446
437.823946	2536.585107
438.200218	2537.530323
438.576429	2538.609130
438.952580	2538.588966
439.328670	2539.108205
439.704700	2538.205838
440.080670	2540.426466
440.456580	2539.382947
440.832429	2539.892104
441.208218	2538.021836
441.583947	2537.348842
441.959616	2539.226672
442.335224	2538.324305
442.710773	2539.609799
443.086261	2540.829759
443.461689	2540.900335
443.837057	2540.111394
444.212365	2538.735159
444.587612	2540.691127
444.962800	2541.724563
445.337927	2543.050387
445.712995	2537.343801
446.088002	2541.714481
446.462949	2541.434697
446.837837	2543.675490
447.212664	2539.030067
447.587431	2540.796991
447.962139	2538.412525
448.336786	2541.580891
448.711374	2539.372865
449.085901	2542.493339
449.460369	2541.190201
449.834776	2540.421425
450.209124	2539.259439
450.583412	2541.885880
450.957640	2543.582229
451.331808	2542.208514
451.705917	2542.188350
452.079965	2541.293545
452.453954	2541.091899
452.827883	2542.755479
453.201752	2541.044008
453.575562	2542.072403
453.949311	2542.032074
454.323001	2542.516025
454.696632	2542.044677
455.070202	2542.561395
455.443713	2546.556509
455.817164	2541.323792
456.190556	2538.972093
456.563888	2540.192053
456.937160	2538.949408
457.310373	2545.669266
457.683526	2542.831097
458.056619	2543.786395
458.429653	2542.710109
458.802628	2542.001827
459.175542	2544.930737
459.548398	2545.288659
459.921194	2545.722198
460.293930	2544.502239
460.666607	2541.737166
461.039224	2544.323278
461.411782	2542.190870
461.784280	2542.004347
462.156719	2542.543751
462.529099	2543.695655
462.901419	2542.316899
463.273680	2543.635161
463.645882	2544.414019
464.018024	2545.359235
464.390106	2545.747404
464.762130	2544.867723
465.134094	2541.805222
465.505999	2547.181613
465.877845	2541.948895
466.249631	2546.390151
466.621358	2545.812939
466.993026	2546.969884
467.364634	2549.629093
467.736184	2544.802188
468.107674	2546.518701
468.479105	2543.988042
468.850477	2543.572146
469.221790	2545.699513
469.593043	2545.780172
469.964238	2541.971580
470.335373	2546.916952
470.706449	2544.721529
471.077467	2544.008206
471.448425	2544.756817
471.819324	2548.315872
472.190164	2547.499205
472.560945	2545.162630
472.931667	2547.592467
473.302330	2541.432177
473.672934	2548.734288
474.043479	2544.441745
474.413965	2545.119781
474.784393	2542.447969
475.154761	2543.393185
475.525070	2543.814122
475.895321	2544.303114
476.265513	2540.940664
476.635645	2544.088865
477.005719	2545.470141
477.375734	2544.051056
477.745691	2545.487785
478.115588	2545.830583
478.485427	2544.333361
478.855207	2547.602549
479.224928	2544.305634
479.594591	2546.198587
479.964194	2544.764379
480.333739	2547.075748
480.703226	2545.820501
481.072653	2546.949719
481.442022	2547.524411
481.811333	2547.983156
482.180584	2548.696479
482.549777	2549.803013
482.918912	2546.317055
483.287988	2546.286808
483.657005	2547.658002
484.025964	2545.666746
484.394864	2550.624721
484.763706	2545.850748
485.132489	2545.684390
485.501213	2547.194215
485.869879	2548.930893
486.238487	2547.317724
486.607036	2548.741850
486.975527	2546.007024
487.343959	2548.033568
487.712333	2548.152035
488.080648	2549.447611
488.448905	2550.634803
488.817104	2548.015923
489.185244	2549.061963
489.553326	2547.204298
489.921350	2548.741850
490.289315	2546.521221
490.657222	2546.226314
491.025070	2549.823177
491.392861	2546.987528
491.760593	2548.467107
492.128267	2548.837632
492.495883	2551.093548
492.863440	2549.853424
493.230939	2546.475851
493.598380	2547.448794
493.965763	2543.383103
494.333088	2548.701520
494.700354	2545.767569
495.067563	2545.828063
495.434713	2541.074255
495.801805	2548.857796
496.168839	2546.223793
496.535815	2548.308310
496.902733	2547.547096
497.269593	2547.363094
497.636395	2548.436860
498.003139	2547.980635
498.369825	2547.017775
498.736453	2546.271684
499.103023	2548.885522
499.469535	2547.650440
499.835989	2546.753114
500.202385	2546.299411
500.568723	2546.828732
500.935003	2547.385779
501.301226	2547.630275
501.667390	2549.225800
502.033497	2548.386448
502.399546	2549.193033
502.765537	2549.228321
503.131470	2549.891233
503.497345	2548.267981
503.863163	2549.276212
504.228923	2548.457024
504.594625	2549.064483
504.960269	2549.119936
505.325856	2549.684545
505.691385	2549.682025
506.056856	2549.482899
506.422270	2546.662374
506.787625	2550.231511
507.152924	2550.554144
507.518164	2553.014227
507.883347	2549.208156
508.248472	2551.045657
508.613540	2547.219421
508.978550	2551.577499
509.343503	2550.470965
509.708398	2552.696635
510.073236	2550.407951
510.438016	2549.987015
510.802738	2549.530790
511.167403	2551.517005
511.532010	2550.891902
511.896561	2549.752601
512.261053	2549.530790
512.625488	2546.700182
512.989866	2545.097095
513.354186	2547.358053
513.718449	2547.574822
514.082655	2548.575492
514.446803	2549.797971
514.810894	2547.829401
515.174927	2553.488096
515.538904	2547.582384
515.902822	2548.908208
516.266684	2551.340564
516.630488	2549.218239
516.994235	2551.131357
517.357925	2548.444422
517.721558	2547.786551
518.085133	2549.639175
518.448651	2551.358208
518.812112	2552.023641
519.175516	2552.522715
519.538863	2551.038095
519.902152	2551.222097
520.265385	2550.788558
520.628560	2549.419885
520.991678	2550.574309
521.354739	2550.425595
521.717743	2550.594474
522.080690	2550.738147
522.443580	2550.168496
522.806413	2551.471634
523.169189	2551.184289
523.531908	2550.755791
523.894569	2549.992056
524.257174	2549.805533
524.619722	2551.048178
524.982213	2550.919628
525.344647	2547.847045
525.707025	2552.013558
526.069345	2549.266130
526.431608	2551.761501
526.793815	2551.143959
527.155964	2553.616645
527.518057	2549.687066
527.880093	2549.321582
528.242072	2548.187323
528.603995	2551.201933
528.965860	2551.421223
529.327669	2551.821995
529.689421	2551.085986
530.051117	2550.770914
530.412755	2548.499874
530.774337	2551.857283
531.135862	2551.174206
531.497331	2549.349309
531.858743	2546.959802
532.220098	2550.816284
532.581396	2547.163968
532.942638	2548.772097
533.303824	2551.532128
533.664953	2551.123795
534.026025	2552.290822
534.387040	2550.523897
534.747999	2551.053219
535.108902	2550.244113
535.469748	2550.508774
535.830537	2552.711758
536.191270	2551.307797
536.551947	2551.547252
536.912567	2551.885009
537.273131	2553.238559
537.633638	2550.284443
537.994089	2552.815102
538.354483	2550.239072
538.714821	2554.574465
539.075103	2552.109340
539.435328	2551.310318
539.795497	2549.893753
540.155609	2551.640513
540.515665	2550.760832
540.875665	2553.341902
541.235609	2552.749567
541.595496	2553.704866
541.955328	2552.048847
542.315102	2551.569937
542.674821	2552.124464
543.034483	2554.211502
543.394090	2552.164793
543.753640	2551.091027
544.113134	2552.295863
544.472571	2552.946172
544.831953	2551.857283
545.191278	2550.738147
545.550548	2552.358878
545.909761	2549.162786
546.268918	2553.057077
546.628019	2554.362736
546.987064	2551.196892
547.346053	2553.709907
547.704986	2547.468958
548.063863	2552.593291
548.422684	2551.171686
548.781449	2551.504402
549.140158	2551.035575
549.498811	2555.118909
549.857408	2551.869886
550.215949	2549.533311
550.574434	2546.102806
550.932864	2550.390307
551.291237	2546.624565
551.649555	2551.600184
552.007817	2551.801830
552.366022	2553.283929
552.724173	2551.847200
553.082267	2553.783003
553.440305	2552.762170
553.798288	2553.578837
554.156215	2551.801830
554.514086	2553.412479
554.871902	2548.935934
555.229661	2553.392314
555.587365	2551.517005
555.945014	2551.968188
556.302606	2552.147149
556.660143	2550.266799
557.017625	2550.415513
557.375050	2547.557178
557.732421	2551.784186
558.089735	2554.392983
558.446994	2552.626059
558.804197	2553.573796
559.161345	2550.042467
559.518437	2551.592622
559.875474	2550.612118
560.232455	2551.005328
560.589381	2549.961809
560.946251	2555.854918
561.303065	2553.346944
561.659825	2553.054557
562.016528	2554.201419
562.373177	2554.115720
562.729770	2552.936090
563.086307	2552.812581
563.442789	2552.502550
563.799216	2552.303425
564.155587	2552.537838
564.511904	2553.193188
564.868164	2550.768393
565.224370	2553.321738
565.580520	2550.768393
565.936615	2551.237221
566.292654	2550.730585
566.648638	2553.309135
567.004567	2554.403065
567.360441	2553.440205
567.716260	2555.696121
568.072023	2551.706048
568.427732	2548.346119
568.783385	2547.436191
569.138982	2548.386448
569.494525	2548.946016
569.850013	2547.990718
570.205445	2552.787376
570.560823	2550.609597
570.916145	2552.348795
571.271412	2553.162942
571.626625	2552.716799
571.981782	2552.147149
572.336884	2552.598332
572.691931	2554.894578
573.046923	2550.685214
573.401860	2552.225287
573.756743	2553.052036
574.111570	2553.828374
574.466342	2554.957592
574.821059	2550.808723
575.175722	2552.056408
575.530330	2551.809392
575.884882	2554.382901
576.239380	2554.834084
576.593823	2555.454146
576.948211	2554.713096
577.302544	2553.409958
577.656823	2550.223949
578.011047	2553.142777
578.365216	2554.876934
578.719330	2554.521532
579.073389	2551.234700
579.427394	2552.048847
579.781344	2553.858621
580.135239	2554.831563
580.489080	2553.672098
580.842866	2552.104299
581.196597	2553.435164
581.550273	2554.178734
581.903895	2553.825853
582.257463	2552.391645
582.610975	2556.601008
582.964434	2552.121943
583.317837	2553.135215
583.671186	2553.258723
584.024481	2556.505227
584.377721	2555.587737
584.730906	2556.119578
585.084037	2554.718137
585.437113	2553.987170
585.790135	2553.866182
586.143103	2549.931562
586.496016	2555.464228
586.848874	2548.451983
587.201679	2552.946172
587.554428	2548.210008
587.907124	2552.671429
588.259765	2547.416026
588.612352	2554.282078
588.964884	2552.593291
589.317362	2555.796944
589.669786	2551.612787
590.022155	2554.660164
590.374470	2552.126984
590.726731	2554.655123
591.078937	2554.324928
591.431090	2553.062118
591.783188	2554.723179
592.135232	2555.882644
592.487222	2554.103117
592.839157	2555.751574
593.191038	2552.192519
593.542866	2554.705535
593.894639	2553.699824
594.246358	2555.733930
594.598022	2553.147818
594.949633	2553.788045
595.301190	2554.332489
595.652692	2553.162942
596.004141	2554.075390
596.355535	2552.419371
596.706876	2553.286450
597.058162	2555.338199
597.409395	2553.896429
597.760573	2552.472303
598.111698	2552.285781
598.462768	2552.439536
598.813785	2551.043136
599.164748	2554.198899
599.515657	2552.963816
599.866511	2553.263765
600.217312	2554.158569
600.568060	2553.707386
600.918753	2554.594629
601.269392	2550.987684
601.619978	2552.104299
601.970510	2553.115051
602.320988	2552.018600
602.671412	2552.071532
603.021783	2550.914587
603.372100	2554.428271
603.722363	2554.801317
604.072572	2553.800647
604.422728	2553.689742
604.772830	2547.121119
605.122878	2548.303269
605.472872	2550.912066
605.822813	2547.852086
606.172701	2552.255534
606.522534	2551.673281
606.872314	2552.343754
607.222041	2550.657488
607.571714	2552.394166
607.921333	2554.110678
608.270899	2553.624207
608.620411	2553.520863
608.969870	2552.240410
609.319276	2556.797613
609.668627	2557.747871
610.017926	2560.949004
610.367171	2558.836760
610.716362	2560.883469
611.065500	2559.746688
611.414585	2559.214847
611.763616	2558.614949
612.112594	2553.422561
612.461518	2556.840463
612.810389	2553.770401
613.159207	2556.767367
613.507971	2556.434650
613.856682	2554.539177
614.205340	2552.815102
614.553945	2555.174362
614.902496	2555.633107
615.250994	2554.433312
615.599439	2552.278219
615.947830	2553.583878
616.296169	2553.241079
616.644454	2554.614794
616.992686	2553.735112
617.340864	2551.259906
617.688990	2552.671429
618.037063	2553.946841
618.385082	2552.300904
618.733048	2553.180586
619.080961	2556.328786
619.428821	2553.299053
619.776628	2554.113199
620.124382	2553.893909
620.472083	2555.043292
620.819731	2551.557334
621.167326	2554.365257
621.514868	2554.118240
621.862357	2551.635472
622.209793	2553.651933
622.557176	2554.544218
622.904506	2551.882488
623.251783	2551.108671
623.599007	2549.142621
623.946179	2548.361243
624.293297	2550.423074
624.640363	2552.235369
624.987376	2555.295350
625.334336	2555.701163
625.681243	2550.859134
626.028097	2551.910215
626.374899	2552.628579
626.721647	2553.210832
627.068343	2554.851728
627.414987	2555.350802
627.761577	2552.487427
628.108115	2554.095555
628.454600	2555.572613
628.801032	2554.002294
629.147412	2554.546738
629.493739	2554.405586
629.840014	2551.915256
630.186236	2554.748384
630.532405	2551.464073
630.878521	2552.419371
631.224585	2553.311656
631.570597	2554.677808
631.916556	2550.813764
632.262462	2552.489948
632.608316	2551.895091
632.954117	2553.541028
633.299866	2552.310987
633.645562	2554.329969
633.991206	2551.708569
634.336797	2551.547252
634.682336	2554.309804
635.027823	2553.349464
635.373257	2551.290153
635.718639	2554.004814
636.063968	2552.316028
636.409245	2552.404248
636.754470	2550.786037
637.099642	2550.770914
637.444762	2550.481048
637.789829	2553.551110
638.134845	2551.108671
638.479808	2555.754095
638.824719	2553.929197
639.169577	2551.506922
639.514383	2553.472972
639.859137	2550.738147
640.203839	2555.305432
640.548489	2552.759649
640.893086	2549.747560
641.237632	2548.701520
641.582125	2551.209494
641.926566	2549.838301
642.270955	2552.381563
642.615292	2550.750749
642.959576	2550.420554
643.303809	2551.738816
643.647990	2550.057591
643.992118	2548.993907
644.336195	2550.614638
