Dividing Wavelength (nm)	Counts (n)	Blue Motor Position (mm): 1.700000	Red Motor Position (mm): 0.000000	
326.493990	2147.521456
326.888308	2147.521456
327.282561	2147.521456
327.676750	2113.367639
328.070874	2110.151383
328.464933	2115.127002
328.858929	2121.047837
329.252859	2128.722993
329.646726	2139.659777
330.040528	2154.531181
330.434265	2172.729746
330.827938	2190.577951
331.221547	2203.647143
331.615091	2225.848384
332.008571	2245.082907
332.401986	2265.693664
332.795338	2286.213681
333.188625	2303.451906
333.581847	2321.058136
333.975006	2343.536641
334.368100	2357.994670
334.761129	2376.082330
335.154095	2393.050854
335.546996	2412.880233
335.939833	2425.099990
336.332606	2440.745211
336.725315	2451.429936
337.117960	2461.393777
337.510540	2469.764613
337.903056	2481.386993
338.295508	2489.425113
338.687896	2497.317039
339.080220	2503.580673
339.472480	2512.468227
339.864676	2518.459638
340.256807	2519.336799
340.648875	2523.737727
341.040879	2525.003056
341.432818	2527.077491
341.824694	2528.882224
342.216506	2531.241484
342.608253	2528.914992
342.999937	2531.417924
343.391557	2531.067564
343.783113	2530.472708
344.174605	2526.598581
344.566033	2526.205371
344.957397	2525.098838
345.348697	2522.124557
345.739934	2522.016173
346.131106	2518.537776
346.522215	2516.833866
346.913260	2514.222549
347.304241	2515.417302
347.695159	2512.548886
348.086012	2511.986797
348.476802	2509.768689
348.867528	2505.743328
349.258191	2504.664521
349.648789	2504.662000
350.039324	2500.651763
350.429796	2504.538492
350.820203	2499.467091
351.210548	2500.939108
351.600828	2496.480208
351.991045	2497.208654
352.381198	2500.795435
352.771288	2494.413335
353.161314	2499.048676
353.551276	2497.080105
353.941175	2494.667913
354.331010	2495.572800
354.720782	2498.262256
355.110490	2496.664210
355.500135	2497.478356
355.889717	2494.236894
356.279235	2495.512306
356.668689	2496.790239
357.058080	2499.638491
357.447408	2496.616319
357.836672	2495.489621
358.225873	2495.461895
358.615010	2494.720845
359.004084	2498.466422
359.393095	2501.811228
359.782043	2500.427431
360.170927	2502.456496
360.559748	2501.551608
360.948505	2501.397853
361.337199	2504.853564
361.725830	2501.939777
362.114398	2503.053872
362.502903	2504.029336
362.891344	2503.948677
363.279722	2501.186125
363.668037	2505.715602
364.056289	2504.369613
364.444478	2506.504542
364.832603	2505.607217
365.220665	2505.491270
365.608665	2505.914727
365.996601	2507.147289
366.384474	2506.542351
366.772284	2508.198370
367.160031	2507.081754
367.547715	2507.573267
367.935336	2508.460510
368.322893	2508.967146
368.710388	2505.531599
369.097820	2514.862775
369.485189	2509.882115
369.872495	2509.897239
370.259738	2508.120232
370.646918	2509.811539
371.034035	2509.952691
371.421090	2510.023268
371.808081	2511.374297
372.195010	2510.114008
372.581875	2513.854544
372.968678	2512.712723
373.355418	2513.093330
373.742096	2515.503002
374.128710	2514.285563
374.515262	2512.841272
374.901751	2513.627693
375.288177	2512.879081
375.674540	2513.957888
376.060841	2516.228928
376.447079	2513.191633
376.833254	2514.361180
377.219367	2508.452948
377.605417	2510.817249
377.991404	2509.004954
378.377329	2511.729698
378.763191	2511.903618
379.148991	2518.000893
379.534727	2513.282373
379.920402	2516.077693
380.306013	2516.276819
380.691563	2517.320338
381.077049	2518.237828
381.462474	2519.178003
381.847835	2518.162210
382.233134	2517.673218
382.618371	2516.574247
383.003545	2518.832684
383.388657	2518.126922
383.773706	2517.864782
384.158693	2517.781603
384.543618	2518.046264
384.928480	2519.891326
385.313280	2519.256141
385.698017	2519.611542
386.082692	2524.609846
386.467305	2516.854031
386.851856	2520.284536
387.236344	2517.327899
387.620770	2520.312262
388.005133	2518.565503
388.389435	2520.713034
388.773674	2520.753363
389.157851	2519.306552
389.541965	2519.666995
389.926018	2519.999711
390.310008	2522.240504
390.693936	2521.585154
391.077802	2522.116996
391.461606	2520.748322
391.845348	2524.761081
392.229027	2521.307890
392.612645	2522.232942
392.996200	2523.314270
393.379694	2524.609846
393.763125	2523.901564
394.146494	2522.878210
394.529801	2525.920546
394.913047	2524.289733
395.296230	2526.744775
395.679351	2522.248066
396.062410	2527.468180
396.445408	2525.481966
396.828343	2524.950124
397.211217	2521.733868
397.594028	2522.230422
397.976778	2520.413086
398.359466	2523.215967
398.742092	2521.222191
399.124656	2527.390043
399.507158	2525.965917
399.889598	2526.192768
400.271977	2529.005732
400.654294	2524.904754
401.036549	2525.686133
401.418742	2528.108407
401.800874	2527.387522
402.182944	2529.363654
402.564952	2528.201668
402.946898	2528.506658
403.328783	2528.063037
403.710606	2527.014477
404.092367	2528.216792
404.474067	2527.430372
404.855705	2529.169570
405.237282	2529.076308
405.618797	2527.450536
406.000250	2529.293078
406.381642	2530.266021
406.762972	2529.071267
407.144240	2528.995650
407.525447	2530.230733
407.906593	2529.401463
408.287677	2528.708304
408.668700	2528.756195
409.049661	2528.756195
409.430560	2531.075126
409.811399	2531.551515
410.192176	2531.821217
410.572891	2533.610826
410.953545	2531.322142
411.334138	2532.942873
411.714669	2530.321473
412.095139	2530.702081
412.475547	2530.752492
412.855894	2529.855167
413.236180	2533.489839
413.616405	2532.814324
413.996568	2535.534027
414.376670	2532.819365
414.756711	2533.613347
415.136691	2532.486649
415.516609	2534.379602
415.896466	2533.774664
416.276262	2534.301464
416.655997	2530.089580
417.035670	2529.315763
417.415283	2532.045548
417.794834	2530.192924
418.174324	2532.789118
418.553753	2532.146371
418.933121	2534.087215
419.312428	2534.911444
419.691674	2533.036135
420.070859	2533.116793
420.449983	2534.853471
420.829045	2536.121321
421.208047	2534.785415
421.586988	2533.215096
421.965867	2535.695343
422.344686	2533.041176
422.723444	2535.418080
423.102141	2534.835827
423.480777	2533.595703
423.859352	2535.415559
424.237866	2536.028060
424.616319	2537.308513
424.994712	2536.305323
425.373044	2534.498069
425.751314	2537.643749
426.129524	2539.080478
426.507673	2536.723739
426.885762	2535.660055
427.263789	2538.268852
427.641756	2535.443286
428.019662	2537.195087
428.397508	2535.934798
428.775292	2539.050231
429.153016	2538.170550
429.530679	2539.738349
429.908282	2536.325488
430.285824	2534.982020
430.663305	2538.498225
431.040726	2539.209028
431.418086	2537.542926
431.795385	2538.911600
432.172624	2538.778009
432.549802	2538.783050
432.926920	2539.030067
433.303977	2542.241282
433.680974	2540.103833
434.057910	2539.574511
434.434786	2539.569470
434.811601	2538.591486
435.188355	2537.311033
435.565050	2538.311702
435.941683	2537.197607
436.318257	2539.483771
436.694770	2535.614685
437.071222	2536.363296
437.447614	2536.005374
437.823946	2538.289017
438.200218	2540.492001
438.576429	2540.204656
438.952580	2536.708615
439.328670	2541.704399
439.704700	2539.526620
440.080670	2540.640715
440.456580	2539.226672
440.832429	2541.049049
441.208218	2539.236754
441.583947	2542.455531
441.959616	2541.099460
442.335224	2543.917465
442.710773	2542.420243
443.086261	2541.648946
443.461689	2542.047197
443.837057	2542.634492
444.212365	2542.316899
444.587612	2544.628268
444.962800	2541.729605
445.337927	2541.641384
445.712995	2542.389996
446.088002	2540.970911
446.462949	2542.364790
446.837837	2542.294214
447.212664	2547.403423
447.587431	2541.212886
447.962139	2542.412681
448.336786	2544.053577
448.711374	2543.930068
449.085901	2540.948226
449.460369	2542.901673
449.834776	2542.160623
450.209124	2541.966539
450.583412	2543.138607
450.957640	2544.003165
451.331808	2541.487629
451.705917	2543.136087
452.079965	2545.306303
452.453954	2543.430994
452.827883	2544.693803
453.201752	2543.607434
453.575562	2543.524255
453.949311	2543.725902
454.323001	2542.382434
454.696632	2545.336550
455.070202	2544.905532
455.443713	2543.650284
455.817164	2543.768751
456.190556	2540.381096
456.563888	2540.607948
456.937160	2537.288348
457.310373	2544.469472
457.683526	2545.260933
458.056619	2543.680531
458.429653	2544.068700
458.802628	2544.562733
459.175542	2546.354863
459.548398	2546.538865
459.921194	2544.615665
460.293930	2543.718340
460.666607	2542.236241
461.039224	2545.455017
461.411782	2545.727240
461.784280	2544.575336
462.156719	2544.356046
462.529099	2545.586087
462.901419	2545.941489
463.273680	2546.528783
463.645882	2544.726571
464.018024	2546.438042
464.390106	2545.386962
464.762130	2544.610624
465.134094	2546.622044
465.505999	2547.925183
465.877845	2544.905532
466.249631	2546.266643
466.621358	2550.176058
466.993026	2545.210521
467.364634	2552.600853
467.736184	2544.376210
468.107674	2547.484082
468.479105	2546.493495
468.850477	2546.969884
469.221790	2549.848383
469.593043	2545.518032
469.964238	2548.585574
470.335373	2547.965512
470.706449	2544.068700
471.077467	2548.031047
471.448425	2548.837632
471.819324	2549.409802
472.190164	2546.884184
472.560945	2546.667415
472.931667	2545.334030
473.302330	2547.897456
473.672934	2549.162786
474.043479	2544.237579
474.413965	2545.971736
474.784393	2544.726571
475.154761	2543.703216
475.525070	2543.178936
475.895321	2543.133566
476.265513	2543.085675
476.635645	2547.721016
477.005719	2546.606921
477.375734	2548.162117
477.745691	2547.095913
478.115588	2549.787889
478.485427	2550.135729
478.855207	2546.238917
479.224928	2547.703372
479.594591	2547.405944
479.964194	2550.453321
480.333739	2547.569781
480.703226	2547.448794
481.072653	2548.411654
481.442022	2548.358722
481.811333	2550.662529
482.180584	2548.814946
482.549777	2547.607590
482.918912	2546.533824
483.287988	2548.363763
483.657005	2549.326623
484.025964	2549.397200
484.394864	2546.974925
484.763706	2549.543393
485.132489	2549.200595
485.501213	2550.501212
485.869879	2548.973743
486.238487	2551.196892
486.607036	2548.905687
486.975527	2548.998948
487.343959	2547.453835
487.712333	2549.344267
488.080648	2549.689587
488.448905	2549.213198
488.817104	2551.078424
489.185244	2552.522715
489.553326	2547.363094
489.921350	2548.895605
490.289315	2549.104813
490.657222	2547.673125
491.025070	2547.446273
491.392861	2550.796120
491.760593	2551.721172
492.128267	2551.847200
492.495883	2549.500543
492.863440	2551.317879
493.230939	2551.141439
493.598380	2549.621531
493.965763	2547.542055
494.333088	2547.395862
494.700354	2546.601880
495.067563	2547.345450
495.434713	2546.001982
495.801805	2548.625903
496.168839	2550.566747
496.535815	2551.554813
496.902733	2551.595143
497.269593	2550.415513
497.636395	2548.610780
498.003139	2550.798640
498.369825	2549.649257
498.736453	2551.063301
499.103023	2549.813095
499.469535	2551.325441
499.835989	2551.131357
500.202385	2551.005328
500.568723	2549.296377
500.935003	2550.808723
501.301226	2551.378373
501.667390	2551.726213
502.033497	2551.922818
502.399546	2551.085986
502.765537	2550.939793
503.131470	2551.766542
503.497345	2554.889537
503.863163	2552.999104
504.228923	2548.303269
504.594625	2551.617828
504.960269	2549.301418
505.325856	2551.116233
505.691385	2551.716130
506.056856	2550.617159
506.422270	2548.328475
506.787625	2552.197561
507.152924	2550.352498
507.518164	2553.518343
507.883347	2548.542724
508.248472	2552.303425
508.613540	2552.081614
508.978550	2551.287632
509.343503	2551.403579
509.708398	2552.542880
510.073236	2552.331151
510.438016	2548.464586
510.802738	2552.855431
511.167403	2550.919628
511.532010	2550.972560
511.896561	2552.338713
512.261053	2552.442057
512.625488	2548.580533
512.989866	2547.100954
513.354186	2548.202446
513.718449	2550.216387
514.082655	2549.069525
514.446803	2553.036913
514.810894	2553.190668
515.174927	2551.859803
515.538904	2552.505071
515.902822	2551.146480
516.266684	2553.757798
516.630488	2552.250493
516.994235	2551.925338
517.357925	2552.651264
517.721558	2552.444577
518.085133	2553.132695
518.448651	2554.009855
518.812112	2551.771583
519.175516	2552.341233
519.538863	2553.982129
519.902152	2552.500030
520.265385	2552.779814
520.628560	2555.721327
520.991678	2550.803682
521.354739	2553.349464
521.717743	2552.671429
522.080690	2553.926676
522.443580	2556.737120
522.806413	2550.949875
523.169189	2552.540359
523.531908	2554.007335
523.894569	2551.249824
524.257174	2551.975750
524.619722	2552.968857
524.982213	2555.207129
525.344647	2550.811243
525.707025	2554.087993
526.069345	2553.220915
526.431608	2553.588919
526.793815	2551.612787
527.155964	2554.866852
527.518057	2553.064639
527.880093	2553.110009
528.242072	2551.756460
528.603995	2551.453990
528.965860	2553.528425
529.327669	2551.327962
529.689421	2552.689073
530.051117	2552.691594
530.412755	2552.482386
530.774337	2554.667726
531.135862	2553.682180
531.497331	2551.511964
531.858743	2549.485420
532.220098	2553.687222
532.581396	2549.941644
532.942638	2549.286294
533.303824	2553.505740
533.664953	2553.218394
534.026025	2552.452139
534.387040	2554.755946
534.747999	2552.442057
535.108902	2553.488096
535.469748	2551.232180
535.830537	2555.038251
536.191270	2551.731254
536.551947	2551.985832
536.912567	2553.651933
537.273131	2553.072201
537.633638	2553.702345
537.994089	2552.336192
538.354483	2554.685370
538.714821	2549.732436
539.075103	2552.343754
539.435328	2556.180072
539.795497	2554.876934
540.155609	2553.359547
540.515665	2550.276881
540.875665	2555.504557
541.235609	2551.852242
541.595496	2557.105124
541.955328	2553.546069
542.315102	2552.578168
542.674821	2552.497509
543.034483	2554.017417
543.394090	2552.815102
543.753640	2552.885678
544.113134	2552.540359
544.472571	2553.936759
544.831953	2553.571275
545.191278	2553.374670
545.550548	2553.987170
545.909761	2553.757798
546.268918	2554.019938
546.628019	2553.110009
546.987064	2553.135215
547.346053	2554.990360
547.704986	2554.944989
548.063863	2553.820812
548.422684	2556.011193
548.781449	2554.592109
549.140158	2554.266954
549.498811	2553.367108
549.857408	2552.394166
550.215949	2552.684032
550.574434	2550.702858
550.932864	2551.360729
551.291237	2547.718495
551.649555	2553.984650
552.007817	2552.729402
552.366022	2553.493137
552.724173	2553.762839
553.082267	2554.355174
553.440305	2554.609753
553.798288	2553.409958
554.156215	2553.924156
554.514086	2552.820143
554.871902	2554.692932
555.229661	2554.254351
555.587365	2554.997922
555.945014	2554.382901
556.302606	2555.580175
556.660143	2556.979095
557.017625	2553.140256
557.375050	2552.747046
557.732421	2551.363250
558.089735	2553.505740
558.446994	2554.874413
558.804197	2555.386090
559.161345	2555.466749
559.518437	2552.179917
559.875474	2553.140256
560.232455	2554.219063
560.589381	2554.589588
560.946251	2557.596636
561.303065	2553.629248
561.659825	2555.502037
562.016528	2553.866182
562.373177	2556.530432
562.729770	2554.082952
563.086307	2555.796944
563.442789	2554.544218
563.799216	2554.274516
564.155587	2552.668908
564.511904	2553.218394
564.868164	2554.254351
565.224370	2554.539177
565.580520	2554.226625
565.936615	2555.076059
566.292654	2553.979608
566.648638	2555.441543
567.004567	2554.513971
567.360441	2550.458363
567.716260	2554.587068
568.072023	2553.029351
568.427732	2549.145142
568.783385	2553.959444
569.138982	2549.457693
569.494525	2550.324772
569.850013	2550.153373
570.205445	2553.679660
570.560823	2554.259392
570.916145	2553.621687
571.271412	2554.408107
571.626625	2555.547407
571.981782	2553.714948
572.336884	2553.470452
572.691931	2554.433312
573.046923	2553.662016
573.401860	2555.466749
573.756743	2552.447098
574.111570	2552.381563
574.466342	2554.433312
574.821059	2552.817622
575.175722	2554.380380
575.530330	2553.538508
575.884882	2556.658982
576.239380	2552.913404
576.593823	2556.608570
576.948211	2553.508261
577.302544	2555.139074
577.656823	2556.979095
578.011047	2556.336348
578.365216	2552.777293
578.719330	2553.304094
579.073389	2555.030689
579.427394	2553.377191
579.781344	2551.869886
580.135239	2553.868703
580.489080	2553.480534
580.842866	2553.941800
581.196597	2558.052861
581.550273	2554.720658
581.903895	2554.660164
582.257463	2554.962633
582.610975	2553.830894
582.964434	2555.307952
583.317837	2552.570606
583.671186	2554.841646
584.024481	2554.251831
584.377721	2555.249979
584.730906	2552.956254
585.084037	2557.032027
585.437113	2554.430792
585.790135	2557.261400
586.143103	2553.886347
586.496016	2553.903991
586.848874	2549.976932
587.201679	2554.130843
587.554428	2554.556821
587.907124	2554.929866
588.259765	2549.112374
588.612352	2557.891544
588.964884	2552.860472
589.317362	2555.638148
589.669786	2554.108158
590.022155	2553.808209
590.374470	2553.256203
590.726731	2554.965154
591.078937	2553.856100
591.431090	2552.222766
591.783188	2555.101265
592.135232	2557.319373
592.487222	2554.342572
592.839157	2557.682336
593.191038	2555.726368
593.542866	2557.659651
593.894639	2556.777449
594.246358	2554.077911
594.598022	2553.001625
594.949633	2554.768549
595.301190	2555.045813
595.652692	2557.163097
596.004141	2552.681511
596.355535	2558.791390
596.706876	2554.849208
597.058162	2555.938097
597.409395	2553.402396
597.760573	2554.972716
598.111698	2553.225956
598.462768	2554.927345
598.813785	2554.692932
599.164748	2555.975905
599.515657	2556.026317
599.866511	2556.918601
600.217312	2556.890875
600.568060	2553.142777
600.918753	2555.224773
601.269392	2554.781152
601.619978	2556.971533
601.970510	2554.670247
602.320988	2554.166131
602.671412	2555.902809
603.021783	2553.732592
603.372100	2554.642520
603.722363	2555.118909
604.072572	2556.212840
604.422728	2556.243087
604.772830	2550.980122
605.122878	2553.450287
605.472872	2553.029351
605.822813	2549.140101
606.172701	2553.825853
606.522534	2554.299722
606.872314	2555.554969
607.222041	2553.964485
607.571714	2553.805689
607.921333	2555.711245
608.270899	2556.308622
608.620411	2556.858107
608.969870	2555.963303
609.319276	2558.297357
609.668627	2557.967161
610.017926	2563.719118
610.367171	2558.385577
610.716362	2561.001936
611.065500	2557.909188
611.414585	2561.190979
611.763616	2555.315514
612.112594	2556.537994
612.461518	2557.261400
612.810389	2553.712427
613.159207	2558.342727
613.507971	2556.888354
613.856682	2557.198385
614.205340	2555.693601
614.553945	2556.905998
614.902496	2553.820812
615.250994	2556.258210
615.599439	2556.243087
615.947830	2555.496996
616.296169	2554.773590
616.644454	2555.577654
616.992686	2554.818961
617.340864	2553.969526
617.688990	2559.381205
618.037063	2554.309804
618.385082	2553.198230
618.733048	2554.975236
619.080961	2554.627397
619.428821	2554.609753
619.776628	2555.925494
620.124382	2556.810216
620.472083	2555.552448
620.819731	2554.443395
621.167326	2553.142777
621.514868	2555.837274
621.862357	2555.660833
622.209793	2556.134702
622.557176	2555.275185
622.904506	2551.277550
623.251783	2549.334185
623.599007	2552.313507
623.946179	2551.017931
624.293297	2552.144628
624.640363	2557.647048
624.987376	2556.432130
625.334336	2551.627910
625.681243	2555.733930
626.028097	2557.049671
626.374899	2554.902140
626.721647	2553.359547
627.068343	2555.859959
627.414987	2556.522871
627.761577	2555.693601
628.108115	2555.481872
628.454600	2554.922304
628.801032	2553.472972
629.147412	2555.151677
629.493739	2554.924825
629.840014	2556.185113
630.186236	2553.266285
630.532405	2557.142932
630.878521	2554.186296
631.224585	2551.668239
631.570597	2553.709907
631.916556	2556.633776
632.262462	2554.287119
632.608316	2556.500185
632.954117	2551.154042
633.299866	2553.437684
633.645562	2554.148487
633.991206	2552.908363
634.336797	2552.618497
634.682336	2554.448436
635.027823	2557.011862
635.373257	2555.456667
635.718639	2554.009855
636.063968	2553.538508
636.409245	2554.526574
636.754470	2553.659495
637.099642	2553.291491
637.444762	2552.104299
637.789829	2554.841646
638.134845	2553.278888
638.479808	2554.834084
638.824719	2555.930535
639.169577	2555.708724
639.514383	2551.128836
639.859137	2555.776780
640.203839	2552.489947
640.548489	2554.831563
640.893086	2551.562375
641.237632	2548.083979
641.582125	2551.363250
641.926566	2549.424926
642.270955	2552.121943
642.615292	2551.922818
642.959576	2556.490103
643.303809	2555.249979
643.647990	2556.263251
643.992118	2554.667726
644.336195	2552.918446
