Dividing Wavelength (nm)	Counts (n)	Blue Motor Position (mm): 12.800000	Red Motor Position (mm): 0.000000	
326.493990	2165.815803
326.888308	2165.815803
327.282561	2165.815803
327.676750	2124.932046
328.070874	2121.952724
328.464933	2121.806530
328.858929	2124.291819
329.252859	2127.119907
329.646726	2138.248254
330.040528	2152.716365
330.434265	2163.237253
330.827938	2184.732733
331.221547	2200.289734
331.615091	2217.283464
332.008571	2232.646380
332.401986	2254.819895
332.795338	2270.714653
333.188625	2290.743158
333.581847	2310.484316
333.975006	2328.075422
334.368100	2348.595439
334.761129	2362.614888
335.154095	2380.107692
335.546996	2400.461350
335.939833	2429.813469
336.332606	2442.519697
336.725315	2455.621656
337.117960	2465.981227
337.510540	2478.453042
337.903056	2492.406955
338.295508	2499.089005
338.687896	2507.437156
339.080220	2513.728516
339.472480	2520.707993
339.864676	2526.389373
340.256807	2534.414890
340.648875	2536.549819
341.040879	2536.355735
341.432818	2542.949564
341.824694	2546.148176
342.216506	2546.337219
342.608253	2545.830583
342.999937	2544.744215
343.391557	2547.325285
343.783113	2545.306303
344.174605	2541.560726
344.566033	2542.596683
344.957397	2541.732125
345.348697	2543.277239
345.739934	2538.631816
346.131106	2539.516538
346.522215	2536.517052
346.913260	2537.300951
347.304241	2533.152081
347.695159	2530.515558
348.086012	2530.807945
348.476802	2526.820392
348.867528	2523.266379
349.258191	2517.085924
349.648789	2518.913342
350.039324	2517.370749
350.429796	2521.655730
350.820203	2516.034843
351.210548	2519.621624
351.600828	2517.423681
351.991045	2518.494927
352.381198	2514.441839
352.771288	2515.503002
353.161314	2510.292969
353.551276	2513.756242
353.941175	2513.995697
354.331010	2514.948475
354.720782	2511.550737
355.110490	2510.701303
355.500135	2511.462517
355.889717	2509.418329
356.279235	2509.761128
356.668689	2510.625685
357.058080	2511.079389
357.447408	2511.144924
357.836672	2514.981242
358.225873	2512.821108
358.615010	2514.232631
359.004084	2513.662981
359.393095	2515.329082
359.782043	2516.909484
360.170927	2514.313289
360.559748	2515.485358
360.948505	2514.288084
361.337199	2519.977026
361.725830	2518.041223
362.114398	2516.362518
362.502903	2518.459638
362.891344	2516.697755
363.279722	2516.516274
363.668037	2520.171110
364.056289	2521.083559
364.444478	2518.368898
364.832603	2516.980060
365.220665	2519.140194
365.608665	2520.700431
365.996601	2524.420803
366.384474	2521.539783
366.772284	2523.069774
367.160031	2526.079343
367.547715	2523.251255
367.935336	2523.488189
368.322893	2520.546676
368.710388	2521.020545
369.097820	2520.647499
369.485189	2520.259330
369.872495	2525.272758
370.259738	2525.315608
370.646918	2527.143026
371.034035	2525.340813
371.421090	2526.160001
371.808081	2526.502799
372.195010	2524.834177
372.581875	2527.548839
372.968678	2528.176463
373.355418	2524.045237
373.742096	2528.045393
374.128710	2528.287368
374.515262	2525.204702
374.901751	2529.908099
375.288177	2530.991947
375.674540	2529.802235
376.060841	2527.601771
376.447079	2526.495238
376.833254	2529.799714
377.219367	2528.307532
377.605417	2529.809796
377.991404	2528.773839
378.377329	2532.461443
378.763191	2530.064375
379.148991	2529.587986
379.534727	2529.976154
379.920402	2529.487162
380.306013	2529.227543
380.691563	2533.192411
381.077049	2534.210724
381.462474	2532.393388
381.847835	2534.175436
382.233134	2533.046217
382.618371	2530.659231
383.003545	2532.736186
383.388657	2531.206196
383.773706	2532.083357
384.158693	2534.515713
384.543618	2535.602082
384.928480	2533.930940
385.313280	2534.588810
385.698017	2534.586290
386.082692	2533.101670
386.467305	2537.946219
386.851856	2531.853984
387.236344	2536.615354
387.620770	2533.162164
388.005133	2530.492873
388.389435	2533.394057
388.773674	2531.196114
389.157851	2535.816331
389.541965	2535.176105
389.926018	2535.387833
390.310008	2535.256763
390.693936	2536.007895
391.077802	2536.360776
391.461606	2535.828934
391.845348	2537.363965
392.229027	2538.848585
392.612645	2540.534851
392.996200	2539.788760
393.379694	2538.299099
393.763125	2539.680376
394.146494	2541.641384
394.529801	2539.448483
394.913047	2540.771785
395.296230	2538.220962
395.679351	2540.282793
396.062410	2539.062834
396.445408	2540.665921
396.828343	2539.430838
397.211217	2541.512835
397.594028	2539.571991
397.976778	2539.796322
398.359466	2539.861857
398.742092	2540.509645
399.124656	2541.568288
399.507158	2538.780530
399.889598	2543.778834
400.271977	2541.437218
400.654294	2541.217927
401.036549	2542.024512
401.418742	2541.971580
401.800874	2545.117260
402.182944	2543.158772
402.564952	2544.066179
402.946898	2543.418391
403.328783	2542.110212
403.710606	2542.014430
404.092367	2543.274718
404.474067	2542.853782
404.855705	2544.945861
405.237282	2544.043494
405.618797	2546.392672
406.000250	2545.379400
406.381642	2543.713299
406.762972	2542.185829
407.144240	2539.269522
407.525447	2545.886036
407.906593	2539.272042
408.287677	2543.007537
408.668700	2545.581046
409.049661	2545.820501
409.430560	2547.224462
409.811399	2544.663556
410.192176	2544.918134
410.572891	2545.691952
410.953545	2547.247148
411.334138	2547.834442
411.714669	2545.807898
412.095139	2549.024154
412.475547	2546.450645
412.855894	2548.704041
413.236180	2544.046015
413.616405	2549.929041
413.996568	2548.595656
414.376670	2547.542055
414.756711	2546.440563
415.136691	2548.598177
415.516609	2546.851417
415.896466	2547.451314
416.276262	2549.114895
416.655997	2546.410316
417.035670	2548.739329
417.415283	2549.931562
417.794834	2550.070194
418.174324	2548.898125
418.553753	2548.545245
418.933121	2550.385266
419.312428	2547.715975
419.691674	2552.530277
420.070859	2549.180430
420.449983	2551.149001
420.829045	2549.414844
421.208047	2551.577499
421.586988	2551.481717
421.965867	2550.249155
422.344686	2548.910728
422.723444	2550.271840
423.102141	2550.854093
423.480777	2549.087169
423.859352	2552.794937
424.237866	2552.187478
424.616319	2552.706717
424.994712	2550.710420
425.373044	2553.120092
425.751314	2550.470965
426.129524	2549.881150
426.507673	2549.918959
426.885762	2545.021478
427.263789	2551.617828
427.641756	2550.216387
428.019662	2552.782334
428.397508	2552.870555
428.775292	2551.756460
429.153016	2553.863662
429.530679	2553.140256
429.908282	2551.338044
430.285824	2551.607746
430.663305	2555.738971
431.040726	2554.377860
431.418086	2554.186296
431.795385	2555.209650
432.172624	2552.353836
432.549802	2552.071532
432.926920	2556.056564
433.303977	2555.575134
433.680974	2552.673950
434.057910	2555.580175
434.434786	2554.370298
434.811601	2555.113868
435.188355	2554.191337
435.565050	2555.045813
435.941683	2553.541028
436.318257	2555.378529
436.694770	2555.418858
437.071222	2555.444064
437.447614	2555.822150
437.823946	2556.215360
438.200218	2556.293498
438.576429	2554.365257
438.952580	2554.259393
439.328670	2554.458518
439.704700	2557.011862
440.080670	2554.282078
440.456580	2554.037582
440.832429	2558.075546
441.208218	2557.337017
441.583947	2558.748540
441.959616	2557.248797
442.335224	2556.588406
442.710773	2558.335165
443.086261	2556.490103
443.461689	2556.921122
443.837057	2555.789383
444.212365	2554.408107
444.587612	2552.706717
444.962800	2552.870555
445.337927	2551.673281
445.712995	2552.094217
446.088002	2555.123950
446.462949	2561.523695
446.837837	2558.894733
447.212664	2559.161915
447.587431	2557.105124
447.962139	2559.171997
448.336786	2559.108983
448.711374	2558.075546
449.085901	2555.930535
449.460369	2559.509754
449.834776	2558.166287
450.209124	2557.664692
450.583412	2559.860114
450.957640	2562.549570
451.331808	2558.413303
451.705917	2556.364074
452.079965	2557.488252
452.453954	2558.304918
452.827883	2558.335165
453.201752	2558.395659
453.575562	2557.294167
453.949311	2562.053016
454.323001	2559.847512
454.696632	2558.163766
455.070202	2558.441030
455.443713	2559.766853
455.817164	2561.281720
456.190556	2560.870866
456.563888	2559.789538
456.937160	2560.848181
457.310373	2559.494631
457.683526	2561.972358
458.056619	2559.887841
458.429653	2559.519837
458.802628	2559.350958
459.175542	2561.437996
459.548398	2559.391287
459.921194	2562.300033
460.293930	2561.823644
460.666607	2562.279868
461.039224	2562.640311
461.411782	2561.586710
461.784280	2560.772563
462.156719	2564.321536
462.529099	2564.576114
462.901419	2560.732234
463.273680	2560.707028
463.645882	2559.444219
464.018024	2561.952193
464.390106	2558.677964
464.762130	2563.943449
465.134094	2562.726010
465.505999	2563.245249
465.877845	2562.206772
466.249631	2568.672051
466.621358	2564.132492
466.993026	2566.189283
467.364634	2570.532237
467.736184	2566.126269
468.107674	2565.115517
468.479105	2566.706001
468.850477	2566.900086
469.221790	2567.139541
469.593043	2563.688871
469.964238	2566.300188
470.335373	2565.153326
470.706449	2565.720456
471.077467	2565.619633
471.448425	2566.653069
471.819324	2565.942267
472.190164	2568.977041
472.560945	2564.891186
472.931667	2567.089129
473.302330	2565.128120
473.672934	2568.911506
474.043479	2566.484191
474.413965	2569.468554
474.784393	2565.710373
475.154761	2567.873028
475.525070	2567.187432
475.895321	2565.496124
476.265513	2567.459654
476.635645	2568.563667
477.005719	2570.779254
477.375734	2567.371434
477.745691	2569.024932
478.115588	2567.444530
478.485427	2569.244222
478.855207	2569.319840
479.224928	2571.694223
479.594591	2571.364027
479.964194	2571.341342
480.333739	2571.507700
480.703226	2572.311764
481.072653	2571.177505
481.442022	2570.723801
481.811333	2571.021229
482.180584	2567.822617
482.549777	2568.906465
482.918912	2568.296485
483.287988	2573.395613
483.657005	2575.754872
484.025964	2572.084912
484.394864	2572.147927
484.763706	2572.944429
485.132489	2572.127762
485.501213	2571.560633
485.869879	2570.854871
486.238487	2574.776889
486.607036	2574.030798
486.975527	2571.449727
487.343959	2572.520972
487.712333	2572.110118
488.080648	2573.004923
488.448905	2570.212124
488.817104	2575.838052
489.185244	2572.276476
489.553326	2574.822259
489.921350	2575.349060
490.289315	2574.524831
490.657222	2577.584811
491.025070	2578.562795
491.392861	2578.940882
491.760593	2580.044894
492.128267	2577.589853
492.495883	2574.232444
492.863440	2573.612382
493.230939	2573.385530
493.598380	2573.753534
493.965763	2576.087589
494.333088	2575.190263
494.700354	2576.357290
495.067563	2576.448031
495.434713	2575.780078
495.801805	2573.751014
496.168839	2575.906107
496.535815	2576.095150
496.902733	2577.378124
497.269593	2579.233269
497.636395	2575.795202
498.003139	2577.809143
498.369825	2576.805953
498.736453	2575.344018
499.103023	2576.793350
499.469535	2576.049780
499.835989	2574.895356
500.202385	2573.806467
500.568723	2572.767989
500.935003	2576.049780
501.301226	2573.090623
501.667390	2578.086406
502.033497	2578.827456
502.399546	2576.231262
502.765537	2577.746128
503.131470	2577.599935
503.497345	2577.476427
503.863163	2579.039184
504.228923	2579.656726
504.594625	2577.635223
504.960269	2578.482137
505.325856	2582.295770
505.691385	2578.129256
506.056856	2579.414750
506.422270	2576.536251
506.787625	2579.041705
507.152924	2577.892322
507.518164	2582.431881
507.883347	2581.751325
508.248472	2582.479772
508.613540	2582.482292
508.978550	2581.811819
509.343503	2582.295770
509.708398	2581.005234
510.073236	2583.712334
510.438016	2585.038157
510.802738	2586.079156
511.167403	2585.212077
511.532010	2583.349371
511.896561	2586.558065
512.261053	2588.148549
512.625488	2586.008579
512.989866	2585.741398
513.354186	2587.682242
513.718449	2587.795668
514.082655	2588.829105
514.446803	2586.663929
514.810894	2591.495875
515.174927	2590.023858
515.538904	2592.990577
515.902822	2589.648292
516.266684	2592.020155
516.630488	2591.838674
516.994235	2594.868407
517.357925	2591.125351
517.721558	2594.238263
518.085133	2595.261617
518.448651	2595.317070
518.812112	2592.037799
519.175516	2596.474015
519.538863	2594.298757
519.902152	2597.636001
520.265385	2600.113728
520.628560	2601.021136
520.991678	2597.731783
521.354739	2600.083481
521.717743	2600.355703
522.080690	2602.437700
522.443580	2607.526745
522.806413	2605.963987
523.169189	2607.083123
523.531908	2607.804008
523.894569	2605.996754
524.257174	2611.428598
524.619722	2606.964656
524.982213	2611.763834
525.344647	2610.543875
525.707025	2614.246603
526.069345	2615.582508
526.431608	2612.131839
526.793815	2615.343054
527.155964	2614.627210
527.518057	2615.990842
527.880093	2619.063425
528.242072	2619.670884
528.603995	2618.362705
528.965860	2618.163579
529.327669	2619.343209
529.689421	2621.672222
530.051117	2622.355299
530.412755	2625.032151
530.774337	2621.715072
531.135862	2619.612911
531.497331	2625.821092
531.858743	2624.512912
532.220098	2627.691360
532.581396	2627.739251
532.942638	2628.739920
533.303824	2631.726804
533.664953	2630.285034
534.026025	2630.103552
534.387040	2634.234778
534.747999	2628.313942
535.108902	2634.121352
535.469748	2632.538429
535.830537	2631.815024
536.191270	2637.171250
536.551947	2631.767133
536.912567	2635.663945
537.273131	2636.508338
537.633638	2634.196969
537.994089	2641.471354
538.354483	2640.453041
538.714821	2643.447486
539.075103	2640.198463
539.435328	2642.691313
539.795497	2643.994452
540.155609	2646.749442
540.515665	2643.215593
540.875665	2645.584936
541.235609	2645.100985
541.595496	2643.812970
541.955328	2644.042342
542.315102	2650.913435
542.674821	2648.959988
543.034483	2650.411840
543.394090	2649.890081
543.753640	2655.122799
544.113134	2655.992398
544.472571	2655.851245
544.831953	2656.146153
545.191278	2655.999959
545.550548	2655.024496
545.909761	2659.616987
546.268918	2659.191010
546.628019	2662.092194
546.987064	2663.662513
547.346053	2661.089004
547.704986	2664.953049
548.063863	2665.401711
548.422684	2667.183759
548.781449	2664.650579
549.140158	2669.477484
549.498811	2670.720129
549.857408	2666.125117
550.215949	2670.097546
550.574434	2669.059068
550.932864	2672.746672
551.291237	2674.054852
551.649555	2677.248423
552.007817	2676.766993
552.366022	2676.441838
552.724173	2678.596932
553.082267	2679.305214
553.440305	2682.009793
553.798288	2685.218487
554.156215	2686.929959
554.514086	2686.874506
554.871902	2681.755214
555.229661	2684.971471
555.587365	2685.082376
555.945014	2693.861545
556.302606	2694.153932
556.660143	2693.518747
557.017625	2699.671475
557.375050	2698.340611
557.732421	2700.694829
558.089735	2702.108873
558.446994	2706.285469
558.804197	2710.051211
559.161345	2711.687065
559.518437	2709.844524
559.875474	2713.827035
560.232455	2711.704709
560.589381	2718.021275
560.946251	2717.920452
561.303065	2722.916236
561.659825	2730.230950
562.016528	2725.683829
562.373177	2728.151474
562.729770	2728.186762
563.086307	2737.233112
563.442789	2741.013978
563.799216	2740.242681
564.155587	2743.141345
564.511904	2749.205853
564.868164	2751.071080
565.224370	2757.644744
565.580520	2754.811616
565.936615	2761.108017
566.292654	2760.455188
566.648638	2770.134203
567.004567	2768.193359
567.360441	2777.272477
567.716260	2775.008999
568.072023	2785.633231
568.427732	2789.698921
568.783385	2790.006432
569.138982	2795.707977
569.494525	2803.773823
569.850013	2811.128866
570.205445	2814.952581
570.560823	2814.009886
570.916145	2819.789568
571.271412	2826.229642
571.626625	2836.216168
571.981782	2839.404698
572.336884	2842.454596
572.691931	2848.332582
573.046923	2848.393075
573.401860	2859.075280
573.756743	2871.340408
574.111570	2878.531614
574.466342	2881.692417
574.821059	2892.510733
575.175722	2895.321177
575.530330	2904.743093
575.884882	2914.359094
576.239380	2924.746392
576.593823	2930.226126
576.948211	2938.662497
577.302544	2944.749690
577.656823	2947.381172
578.011047	2961.241825
578.365216	2970.678865
578.719330	2983.869044
579.073389	2988.779128
579.427394	3013.637057
579.781344	3007.864936
580.135239	3023.167359
580.489080	3033.516848
580.842866	3034.693957
581.196597	3069.356931
581.550273	3071.161664
581.903895	3094.015735
582.257463	3109.789505
582.610975	3113.323354
582.964434	3137.848567
583.317837	3149.478509
583.671186	3169.746468
584.024481	3191.483924
584.377721	3193.081970
584.730906	3210.640308
585.084037	3233.542270
585.437113	3245.630957
585.790135	3266.995367
586.143103	3273.001902
586.496016	3281.206380
586.848874	3317.817760
587.201679	3327.521981
587.554428	3340.838189
587.907124	3374.888663
588.259765	3389.508009
588.612352	3424.062598
588.964884	3424.876744
589.317362	3448.696196
589.669786	3477.501349
590.022155	3500.156294
590.374470	3538.579969
590.726731	3548.014488
591.078937	3561.655851
591.431090	3589.420006
591.783188	3596.402004
592.135232	3613.335239
592.487222	3657.841066
592.839157	3677.814118
593.191038	3698.649207
593.542866	3707.365362
593.894639	3731.565421
594.246358	3773.162502
594.598022	3785.798154
594.949633	3798.811892
595.301190	3813.895025
595.652692	3853.442877
596.004141	3892.037950
596.355535	3877.453892
596.706876	3909.137544
597.058162	3929.503806
597.409395	3962.828353
597.760573	4008.055065
598.111698	4020.441180
598.462768	4046.002351
598.813785	4067.220567
599.164748	4083.143052
599.515657	4117.062455
599.866511	4128.652068
600.217312	4193.380483
600.568060	4176.396836
600.918753	4250.224534
601.269392	4277.666055
601.619978	4279.785860
601.970510	4350.682127
602.320988	4368.555538
602.671412	4427.839507
603.021783	4450.572591
603.372100	4457.723468
603.722363	4513.365203
604.072572	4543.113052
604.422728	4585.241975
604.772830	4613.699288
605.122878	4620.401502
605.472872	4675.090460
605.822813	4716.543868
606.172701	4751.524434
606.522534	4814.435514
606.872314	4851.394733
607.222041	4859.208522
607.571714	4929.996404
607.921333	4958.819201
608.270899	5008.083877
608.620411	5090.975570
608.969870	5072.456891
609.319276	5124.937823
609.668627	5189.446948
610.017926	5252.284931
610.367171	5309.812058
610.716362	5380.473912
611.065500	5374.797572
611.414585	5449.399087
611.763616	5490.597917
612.112594	5535.335637
612.461518	5562.474689
612.810389	5647.203882
613.159207	5652.711343
613.507971	5687.581004
613.856682	5819.172763
614.205340	5854.087795
614.553945	5952.644873
614.902496	5916.202372
615.250994	6045.954110
615.599439	6075.878399
615.947830	6121.911696
616.296169	6164.206977
616.644454	6231.667697
616.992686	6253.727787
617.340864	6368.043512
617.688990	6383.285440
618.037063	6490.853581
618.385082	6512.613722
618.733048	6622.410052
619.080961	6639.383618
619.428821	6723.840588
619.776628	6767.191991
620.124382	6781.282016
620.472083	6854.645928
620.819731	6917.564569
621.167326	6882.263889
621.514868	6930.316168
621.862357	6926.557988
622.209793	6976.538507
622.557176	6977.403065
622.904506	6955.799200
623.251783	6978.844835
623.599007	6991.218347
623.946179	7021.830754
624.293297	7049.884775
624.640363	7030.781323
624.987376	7061.918009
625.334336	7045.037706
625.681243	7050.194806
626.028097	7083.113541
626.374899	7154.408059
626.721647	7118.096628
627.068343	7122.174921
627.414987	7147.509240
627.761577	7213.165228
628.108115	7282.917153
628.454600	7214.959878
628.801032	7275.436081
629.147412	7306.776934
629.493739	7370.978549
629.840014	7367.762293
630.186236	7434.136645
630.532405	7401.883343
630.878521	7529.953856
631.224585	7526.057044
631.570597	7532.943260
631.916556	7559.336221
632.262462	7599.509176
632.608316	7643.946947
632.954117	7662.561408
633.299866	7709.920528
633.645562	7733.858447
633.991206	7671.963160
634.336797	7636.594424
634.682336	7700.687654
635.027823	7676.333840
635.373257	7697.577263
635.718639	7669.278745
636.063968	7695.306223
636.409245	7648.899881
636.754470	7695.104577
637.099642	7678.095723
637.444762	7609.770445
637.789829	7683.237700
638.134845	7647.826115
638.479808	7695.107097
638.824719	7724.106335
639.169577	7694.514762
639.514383	7753.660099
639.859137	7707.805764
640.203839	7788.252497
640.548489	7737.649394
640.893086	7799.496790
641.237632	7743.275322
641.582125	7880.593832
641.926566	7837.534817
642.270955	7873.707616
642.615292	7889.027683
642.959576	7927.945390
643.303809	8002.587235
643.647990	7987.494020
643.992118	8076.135149
644.336195	7972.206721
