Dividing Wavelength (nm)	Counts (n)	Blue Motor Position (mm): 13.600000	Red Motor Position (mm): 0.000000	
326.493990	2134.681637
326.888308	2134.681637
327.282561	2134.681637
327.676750	2103.524786
328.070874	2101.808273
328.464933	2106.176433
328.858929	2112.808071
329.252859	2123.490276
329.646726	2130.290792
330.040528	2146.664460
330.434265	2164.842861
330.827938	2179.376507
331.221547	2199.072295
331.615091	2214.984698
332.008571	2235.383727
332.401986	2254.575399
332.795338	2273.157092
333.188625	2294.105607
333.581847	2312.810808
333.975006	2334.255877
334.368100	2351.141222
334.761129	2369.503625
335.154095	2386.242776
335.546996	2404.713564
335.939833	2419.469021
336.332606	2436.850919
336.725315	2451.969340
337.117960	2457.554938
337.510540	2468.111114
337.903056	2480.998824
338.295508	2484.081490
338.687896	2495.335866
339.080220	2502.907679
339.472480	2508.785664
339.864676	2513.574760
340.256807	2519.878723
340.648875	2523.198323
341.040879	2524.125895
341.432818	2524.652696
341.824694	2527.047244
342.216506	2526.611184
342.608253	2527.841226
342.999937	2527.367357
343.391557	2530.104704
343.783113	2525.187058
344.174605	2522.795031
344.566033	2522.711852
344.957397	2519.382170
345.348697	2518.217663
345.739934	2520.728158
346.131106	2518.157169
346.522215	2516.959895
346.913260	2511.321365
347.304241	2512.805984
347.695159	2511.185253
348.086012	2506.968328
348.476802	2505.513955
348.867528	2505.304747
349.258191	2500.009015
349.648789	2504.006650
350.039324	2499.988851
350.429796	2501.019767
350.820203	2499.036073
351.210548	2497.813593
351.600828	2497.082626
351.991045	2495.275372
352.381198	2493.064826
352.771288	2491.917963
353.161314	2493.644559
353.551276	2493.785711
353.941175	2490.289671
354.331010	2494.763695
354.720782	2493.803355
355.110490	2495.867708
355.500135	2491.549959
355.889717	2493.609271
356.279235	2495.242604
356.668689	2495.232522
357.058080	2492.923674
357.447408	2492.449805
357.836672	2491.260093
358.225873	2494.700680
358.615010	2489.798158
359.004084	2496.896103
359.393095	2494.468787
359.782043	2497.264107
360.170927	2497.095228
360.559748	2498.068171
360.948505	2499.661176
361.337199	2500.132524
361.725830	2500.354334
362.114398	2501.360045
362.502903	2499.146978
362.891344	2500.230826
363.279722	2503.000940
363.668037	2506.580159
364.056289	2501.967504
364.444478	2502.123779
364.832603	2505.135869
365.220665	2501.458347
365.608665	2504.329284
365.996601	2505.009840
366.384474	2505.902124
366.772284	2506.726353
367.160031	2503.144613
367.547715	2504.510766
367.935336	2505.125787
368.322893	2506.623009
368.710388	2508.440345
369.097820	2510.434122
369.485189	2503.711743
369.872495	2506.680983
370.259738	2508.556292
370.646918	2508.069820
371.034035	2507.532937
371.421090	2508.631909
371.808081	2510.522342
372.195010	2508.042094
372.581875	2506.736435
372.968678	2509.073010
373.355418	2510.708864
373.742096	2508.911693
374.128710	2510.310613
374.515262	2512.395130
374.901751	2511.414626
375.288177	2509.322547
375.674540	2509.894718
376.060841	2512.193484
376.447079	2511.364214
376.833254	2512.183402
377.219367	2506.418843
377.605417	2512.299348
377.991404	2508.359687
378.377329	2511.129801
378.763191	2508.052176
379.148991	2511.656601
379.534727	2512.778258
379.920402	2512.874040
380.306013	2512.216169
380.691563	2513.806653
381.077049	2513.085768
381.462474	2513.809174
381.847835	2514.300687
382.233134	2512.216169
382.618371	2512.322034
383.003545	2513.647857
383.388657	2516.077693
383.773706	2514.875378
384.158693	2517.012827
384.543618	2515.518125
384.928480	2514.900584
385.313280	2515.813033
385.698017	2515.261026
386.082692	2518.048784
386.467305	2514.046108
386.851856	2515.462672
387.236344	2516.440656
387.620770	2518.933507
388.005133	2517.385873
388.389435	2520.715555
388.773674	2520.783610
389.157851	2517.159021
389.541965	2516.937210
389.926018	2519.674557
390.310008	2518.252951
390.693936	2518.840246
391.077802	2517.390914
391.461606	2518.094155
391.845348	2520.657582
392.229027	2521.038189
392.612645	2521.486851
392.996200	2522.699249
393.379694	2519.699762
393.763125	2521.323014
394.146494	2519.321676
394.529801	2522.318642
394.913047	2521.607839
395.296230	2523.460463
395.679351	2520.556758
396.062410	2521.184382
396.445408	2520.735719
396.828343	2521.786800
397.211217	2516.523835
397.594028	2519.624145
397.976778	2520.236645
398.359466	2523.435257
398.742092	2519.049453
399.124656	2524.758560
399.507158	2522.411903
399.889598	2524.834178
400.271977	2525.055988
400.654294	2524.698066
401.036549	2523.596574
401.418742	2525.819723
401.800874	2523.130268
402.182944	2526.870804
402.564952	2523.652027
402.946898	2524.622449
403.328783	2527.626977
403.710606	2521.645648
404.092367	2521.658251
404.474067	2523.914167
404.855705	2526.482635
405.237282	2525.350896
405.618797	2524.975330
406.000250	2527.294261
406.381642	2526.880886
406.762972	2526.540608
407.144240	2526.515402
407.525447	2529.293078
407.906593	2526.434744
408.287677	2524.748478
408.668700	2526.475073
409.049661	2526.598581
409.430560	2527.924405
409.811399	2525.756709
410.192176	2527.589168
410.572891	2528.499096
410.953545	2527.120341
411.334138	2528.330218
411.714669	2528.536905
412.095139	2529.046062
412.475547	2527.639580
412.855894	2530.722245
413.236180	2529.406504
413.616405	2527.526154
413.996568	2530.409694
414.376670	2532.035466
414.756711	2527.873993
415.136691	2532.557225
415.516609	2530.228212
415.896466	2532.189221
416.276262	2533.411701
416.655997	2527.788294
417.035670	2527.503468
417.415283	2529.754344
417.794834	2527.145547
418.174324	2527.924405
418.553753	2531.911958
418.933121	2532.499252
419.312428	2533.021011
419.691674	2530.568490
420.070859	2529.986237
420.449983	2531.143182
420.829045	2532.015301
421.208047	2531.483459
421.586988	2532.118645
421.965867	2530.596216
422.344686	2532.902544
422.723444	2534.195600
423.102141	2532.453882
423.480777	2531.758202
423.859352	2533.459592
424.237866	2534.656866
424.616319	2534.568646
424.994712	2536.058307
425.373044	2532.113604
425.751314	2534.871115
426.129524	2533.973789
426.507673	2537.321116
426.885762	2531.173428
427.263789	2534.702236
427.641756	2534.248532
428.019662	2535.607123
428.397508	2533.051258
428.775292	2539.014943
429.153016	2533.719211
429.530679	2534.031763
429.908282	2531.720394
430.285824	2534.946732
430.663305	2533.444468
431.040726	2536.023018
431.418086	2533.444468
431.795385	2535.866743
432.172624	2533.855322
432.549802	2534.954294
432.926920	2534.487987
433.303977	2536.383461
433.680974	2535.718029
434.057910	2537.495035
434.434786	2538.228523
434.811601	2537.142155
435.188355	2536.847247
435.565050	2537.608461
435.941683	2534.971938
436.318257	2535.738193
436.694770	2533.126876
437.071222	2532.476567
437.447614	2532.758871
437.823946	2534.311547
438.200218	2535.458409
438.576429	2537.442103
438.952580	2536.338091
439.328670	2542.594163
439.704700	2535.271887
440.080670	2538.762886
440.456580	2535.397915
440.832429	2536.317926
441.208218	2539.982845
441.583947	2537.653832
441.959616	2537.800025
442.335224	2538.581404
442.710773	2538.594007
443.086261	2540.870088
443.461689	2535.909593
443.837057	2538.830941
444.212365	2536.302802
444.587612	2537.752134
444.962800	2539.415715
445.337927	2540.081147
445.712995	2539.093081
446.088002	2538.785571
446.462949	2536.756506
446.837837	2538.054603
447.212664	2538.982176
447.587431	2539.135931
447.962139	2537.376568
448.336786	2540.872608
448.711374	2535.138296
449.085901	2542.679862
449.460369	2538.674665
449.834776	2539.065355
450.209124	2538.982176
450.583412	2541.064172
450.957640	2538.783050
451.331808	2538.790612
451.705917	2537.681558
452.079965	2539.773637
452.453954	2541.008720
452.827883	2542.175747
453.201752	2541.583411
453.575562	2540.708771
453.949311	2542.652136
454.323001	2541.744728
454.696632	2539.907227
455.070202	2544.562733
455.443713	2538.967052
455.817164	2541.502753
456.190556	2538.258770
456.563888	2539.950077
456.937160	2537.429500
457.310373	2543.020140
457.683526	2542.208514
458.056619	2542.989893
458.429653	2542.614327
458.802628	2542.682383
459.175542	2540.368493
459.548398	2542.904193
459.921194	2542.178267
460.293930	2542.437887
460.666607	2539.632485
461.039224	2541.908566
461.411782	2541.926210
461.784280	2544.081303
462.156719	2545.578526
462.529099	2544.517363
462.901419	2543.236910
463.273680	2543.206663
463.645882	2543.327650
464.018024	2544.842517
464.390106	2540.794471
464.762130	2544.724050
465.134094	2544.764379
465.505999	2542.710109
465.877845	2542.324461
466.249631	2545.187836
466.621358	2546.687579
466.993026	2546.594318
467.364634	2546.836293
467.736184	2545.064328
468.107674	2541.785057
468.479105	2545.860830
468.850477	2544.013247
469.221790	2545.623896
469.593043	2545.744884
469.964238	2544.741694
470.335373	2542.243802
470.706449	2547.395862
471.077467	2546.203629
471.448425	2544.156920
471.819324	2546.962322
472.190164	2546.793444
472.560945	2544.232537
472.931667	2544.895449
473.302330	2547.594987
473.672934	2547.965512
474.043479	2545.293700
474.413965	2544.416540
474.784393	2542.057280
475.154761	2544.996272
475.525070	2541.941333
475.895321	2546.130532
476.265513	2540.872608
476.635645	2548.078938
477.005719	2544.030891
477.375734	2549.082128
477.745691	2545.500388
478.115588	2549.838301
478.485427	2547.070707
478.855207	2546.904349
479.224928	2549.251006
479.594591	2548.814946
479.964194	2548.661191
480.333739	2551.363250
480.703226	2546.700182
481.072653	2548.827549
481.442022	2548.630944
481.811333	2548.935934
482.180584	2548.479710
482.549777	2548.562889
482.918912	2547.859648
483.287988	2549.417364
483.657005	2550.420554
484.025964	2547.385779
484.394864	2550.803682
484.763706	2547.126160
485.132489	2550.725544
485.501213	2547.887374
485.869879	2550.276881
486.238487	2547.844524
486.607036	2547.713454
486.975527	2549.576161
487.343959	2547.952909
487.712333	2549.210677
488.080648	2548.779658
488.448905	2549.049360
488.817104	2546.864020
489.185244	2547.693290
489.553326	2547.814277
489.921350	2550.044988
490.289315	2551.166645
490.657222	2551.859803
491.025070	2549.818136
491.392861	2549.896274
491.760593	2551.930379
492.128267	2548.983825
492.495883	2548.998948
492.863440	2549.409803
493.230939	2549.974412
493.598380	2550.231511
493.965763	2547.214380
494.333088	2546.248999
494.700354	2545.185316
495.067563	2548.464586
495.434713	2548.199926
495.801805	2551.206974
496.168839	2551.867365
496.535815	2552.137067
496.902733	2551.315359
497.269593	2551.264947
497.636395	2550.844011
498.003139	2552.633620
498.369825	2550.476007
498.736453	2552.031203
499.103023	2552.946172
499.469535	2554.634958
499.835989	2550.203784
500.202385	2550.206305
500.568723	2551.701007
500.935003	2548.948537
501.301226	2550.856614
501.667390	2550.821326
502.033497	2551.007848
502.399546	2553.087324
502.765537	2552.144628
503.131470	2553.964485
503.497345	2551.126315
503.863163	2554.405586
504.228923	2553.142777
504.594625	2551.292673
504.960269	2551.199412
505.325856	2552.005997
505.691385	2551.164124
506.056856	2554.375339
506.422270	2553.790565
506.787625	2552.747046
507.152924	2552.084135
507.518164	2554.922304
507.883347	2552.656306
508.248472	2554.743343
508.613540	2552.482386
508.978550	2553.157900
509.343503	2550.607077
509.708398	2554.067829
510.073236	2555.292829
510.438016	2553.432643
510.802738	2555.449105
511.167403	2553.205791
511.532010	2553.697304
511.896561	2555.786862
512.261053	2555.174362
512.625488	2553.581357
512.989866	2552.825184
513.354186	2555.151677
513.718449	2548.083979
514.082655	2557.750392
514.446803	2555.980947
514.810894	2556.863148
515.174927	2555.988508
515.538904	2555.086142
515.902822	2555.915412
516.266684	2555.726368
516.630488	2553.989691
516.994235	2559.159394
517.357925	2559.184600
517.721558	2560.525547
518.085133	2558.433468
518.448651	2559.829867
518.812112	2556.928683
519.175516	2560.805331
519.538863	2560.086966
519.902152	2560.059240
520.265385	2562.315156
520.628560	2558.315001
520.991678	2559.678633
521.354739	2563.731721
521.717743	2560.162584
522.080690	2562.993192
522.443580	2562.204251
522.806413	2561.674930
523.169189	2561.695094
523.531908	2562.436144
523.894569	2562.272307
524.257174	2558.970351
524.619722	2563.051165
524.982213	2563.283058
525.344647	2564.687019
525.707025	2567.946125
526.069345	2564.908830
526.431608	2566.053172
526.793815	2566.574931
527.155964	2567.850343
527.518057	2566.138872
527.880093	2568.614078
528.242072	2566.917730
528.603995	2566.363203
528.965860	2563.968655
529.327669	2568.462843
529.689421	2566.166598
530.051117	2573.400654
530.412755	2570.373441
530.774337	2567.953687
531.135862	2569.488718
531.497331	2568.190621
531.858743	2562.698284
532.220098	2568.122566
532.581396	2568.437638
532.942638	2569.387895
533.303824	2567.883111
533.664953	2570.464182
534.026025	2571.243040
534.387040	2569.723132
534.747999	2571.679100
535.108902	2572.780592
535.469748	2572.026939
535.830537	2572.710016
536.191270	2570.781774
536.551947	2573.597259
536.912567	2571.459809
537.273131	2572.760427
537.633638	2571.679100
537.994089	2572.586507
538.354483	2573.841755
538.714821	2574.681107
539.075103	2574.119018
539.435328	2577.229410
539.795497	2572.659604
540.155609	2574.890315
540.515665	2577.345357
540.875665	2574.688668
541.235609	2575.890984
541.595496	2580.420460
541.955328	2575.903587
542.315102	2578.792168
542.674821	2575.757393
543.034483	2577.199163
543.394090	2580.717888
543.753640	2577.297466
544.113134	2577.478947
544.472571	2577.579770
544.831953	2580.581777
545.191278	2581.476582
545.550548	2580.997672
545.909761	2576.768144
546.268918	2579.021540
546.628019	2579.565985
546.987064	2579.825604
547.346053	2581.862230
547.704986	2583.077148
548.063863	2582.694021
548.422684	2585.466655
548.781449	2581.925245
549.140158	2584.677715
549.498811	2584.574371
549.857408	2583.777869
550.215949	2581.471541
550.574434	2579.896180
550.932864	2584.130750
551.291237	2580.909452
551.649555	2584.738209
552.007817	2586.069073
552.366022	2587.213415
552.724173	2584.949937
553.082267	2589.358426
553.440305	2591.495875
553.798288	2587.833477
554.156215	2592.660382
554.514086	2591.924373
554.871902	2591.064857
555.229661	2592.088211
555.587365	2593.015783
555.945014	2591.873962
556.302606	2596.980651
556.660143	2593.504775
557.017625	2598.440065
557.375050	2599.430652
557.732421	2600.335539
558.089735	2600.529623
558.446994	2601.386619
558.804197	2602.883842
559.161345	2604.015581
559.518437	2604.494491
559.875474	2605.840479
560.232455	2606.964656
560.589381	2608.343412
560.946251	2614.556634
561.303065	2613.311469
561.659825	2616.167282
562.016528	2615.315327
562.373177	2615.022940
562.729770	2618.158538
563.086307	2620.661471
563.442789	2619.199536
563.799216	2624.941411
564.155587	2625.032151
564.511904	2627.706483
564.868164	2627.739251
565.224370	2632.304016
565.580520	2632.919037
565.936615	2634.176804
566.292654	2635.575725
566.648638	2637.947587
567.004567	2641.637712
567.360441	2644.269194
567.716260	2647.843372
568.072023	2650.512663
568.427732	2650.797489
568.783385	2651.238590
569.138982	2655.059784
569.494525	2660.116062
569.850013	2659.115392
570.205445	2667.443379
570.560823	2667.183759
570.916145	2673.240706
571.271412	2680.752025
571.626625	2684.492561
571.981782	2682.508867
572.336884	2689.750484
572.691931	2690.695701
573.046923	2695.764581
573.401860	2697.849098
573.756743	2703.222968
574.111570	2706.010726
574.466342	2710.883001
574.821059	2716.319886
575.175722	2719.568909
575.530330	2724.794065
575.884882	2727.922101
576.239380	2735.052813
576.593823	2736.698750
576.948211	2742.543968
577.302544	2740.630850
577.656823	2752.533014
578.011047	2756.384456
578.365216	2765.461053
578.719330	2766.328132
579.073389	2777.922786
579.427394	2776.170985
579.781344	2784.645164
580.135239	2791.972482
580.489080	2796.249901
580.842866	2799.340128
581.196597	2808.262970
581.550273	2817.788230
581.903895	2829.113182
582.257463	2834.628205
582.610975	2844.350070
582.964434	2849.287880
583.317837	2857.968747
583.671186	2863.982844
584.024481	2873.465254
584.377721	2877.508259
584.730906	2885.271636
585.084037	2894.683471
585.437113	2900.931981
585.790135	2914.222983
586.143103	2917.272881
586.496016	2929.790066
586.848874	2937.341714
587.201679	2945.831018
587.554428	2949.687500
587.907124	2965.625108
588.259765	2970.338587
588.612352	2992.504540
588.964884	2990.702328
589.317362	3008.457272
589.669786	3019.943541
590.022155	3032.133051
590.374470	3042.159906
590.726731	3049.383879
591.078937	3052.660629
591.431090	3077.848754
591.783188	3072.714339
592.135232	3090.464242
592.487222	3096.170828
592.839157	3118.049436
593.191038	3120.794344
593.542866	3127.914974
593.894639	3136.202631
594.246358	3148.021616
594.598022	3166.575583
594.949633	3168.652538
595.301190	3180.963036
595.652692	3192.333358
596.004141	3222.368553
596.355535	3208.792726
596.706876	3221.879561
597.058162	3229.592526
597.409395	3253.061618
597.760573	3275.260339
598.111698	3276.334105
598.462768	3293.627783
598.813785	3298.109369
599.164748	3313.089158
599.515657	3323.562155
599.866511	3338.398270
600.217312	3357.839480
600.568060	3358.794779
600.918753	3388.918194
601.269392	3398.821540
601.619978	3404.260945
601.970510	3433.892848
602.320988	3442.019188
602.671412	3473.849033
603.021783	3475.908344
603.372100	3490.976353
603.722363	3510.621730
604.072572	3518.274201
604.422728	3536.863456
604.772830	3542.272614
605.122878	3560.927404
605.472872	3572.907706
605.822813	3595.305553
606.172701	3604.924074
606.522534	3636.670741
606.872314	3654.004748
607.222041	3668.845905
607.571714	3696.491593
607.921333	3711.468861
608.270899	3732.122468
608.620411	3762.991974
608.969870	3765.079011
609.319276	3783.743883
609.668627	3808.735404
610.017926	3835.773632
610.367171	3879.742576
610.716362	3886.863206
611.065500	3911.953029
611.414585	3936.437913
611.763616	3947.848565
612.112594	3968.086277
612.461518	3994.718692
612.810389	4024.917725
613.159207	4035.181514
613.507971	4038.362482
613.856682	4094.473045
614.205340	4098.208540
614.553945	4140.904592
614.902496	4136.453253
615.250994	4175.716280
615.599439	4184.006458
615.947830	4215.564081
616.296169	4231.637800
616.644454	4252.165378
616.992686	4274.903503
617.340864	4322.804547
617.688990	4309.740396
618.037063	4353.641285
618.385082	4364.293243
618.733048	4413.825100
619.080961	4413.784771
619.428821	4443.336014
619.776628	4467.460456
620.124382	4473.393894
620.472083	4491.431143
620.819731	4517.793857
621.167326	4502.922453
621.514868	4525.537069
621.862357	4505.942104
622.209793	4532.279612
622.557176	4532.100651
622.904506	4539.861508
623.251783	4531.856155
623.599007	4537.532495
623.946179	4554.380031
624.293297	4566.335127
624.640363	4551.410791
624.987376	4569.954676
625.334336	4564.285898
625.681243	4567.900405
626.028097	4577.019853
626.374899	4584.541254
626.721647	4608.227116
627.068343	4598.684211
627.414987	4605.797279
627.761577	4604.002629
628.108115	4635.771980
628.454600	4614.452941
628.801032	4661.890198
629.147412	4650.739166
629.493739	4673.552908
629.840014	4655.195546
630.186236	4701.496023
630.532405	4666.104603
630.878521	4706.925346
631.224585	4708.062126
631.570597	4686.745607
631.916556	4726.200198
632.262462	4735.579265
632.608316	4739.680243
632.954117	4748.320781
633.299866	4754.413015
633.645562	4770.804327
633.991206	4744.345831
634.336797	4734.508019
634.682336	4732.461311
635.027823	4729.986104
635.373257	4739.365171
635.718639	4725.638109
636.063968	4745.858177
636.409245	4703.411662
636.754470	4725.325558
637.099642	4714.454309
637.444762	4703.951065
637.789829	4729.466866
638.134845	4707.885686
638.479808	4717.468919
638.824719	4732.345364
639.169577	4707.401735
639.514383	4732.436105
639.859137	4708.112538
640.203839	4722.933530
640.548489	4733.769490
640.893086	4730.941403
641.237632	4726.006113
641.582125	4757.309158
641.926566	4753.069548
642.270955	4772.667033
642.615292	4779.263383
642.959576	4808.713804
643.303809	4808.497034
643.647990	4832.755067
643.992118	4837.955017
644.336195	4815.032890
