Dividing Wavelength (nm)	Counts (n)	Blue Motor Position (mm): 44.000000	Red Motor Position (mm): 0.000000	
326.493990	2132.130813
326.888308	2132.130813
327.282561	2132.130813
327.676750	2097.170412
328.070874	2095.627818
328.464933	2099.169229
328.858929	2105.997472
329.252859	2114.128853
329.646726	2124.155708
330.040528	2136.488891
330.434265	2157.250883
330.827938	2172.865857
331.221547	2191.160204
331.615091	2210.016640
332.008571	2231.227295
332.401986	2250.098855
332.795338	2269.104005
333.188625	2288.187293
333.581847	2308.238482
333.975006	2326.232881
334.368100	2343.682835
334.761129	2360.459795
335.154095	2379.858155
335.546996	2399.773233
335.939833	2424.389187
336.332606	2439.923503
336.725315	2452.463373
337.117960	2460.940073
337.510540	2468.889973
337.903056	2482.556541
338.295508	2489.117602
338.687896	2497.077584
339.080220	2506.406240
339.472480	2514.620800
339.864676	2514.648526
340.256807	2523.541122
340.648875	2523.783097
341.040879	2527.803417
341.432818	2529.524971
341.824694	2527.488345
342.216506	2530.770136
342.608253	2530.828109
342.999937	2527.430372
343.391557	2530.371885
343.783113	2527.813499
344.174605	2527.773170
344.566033	2526.437264
344.957397	2524.483817
345.348697	2522.910977
345.739934	2521.527181
346.131106	2520.042561
346.522215	2519.122550
346.913260	2517.816891
347.304241	2515.623989
347.695159	2514.114164
348.086012	2510.892867
348.476802	2509.856909
348.867528	2510.232475
349.258191	2508.087464
349.648789	2507.537979
350.039324	2504.127638
350.429796	2502.166629
350.820203	2504.145282
351.210548	2502.587566
351.600828	2498.065651
351.991045	2498.935250
352.381198	2499.333501
352.771288	2498.889879
353.161314	2497.899293
353.551276	2499.940960
353.941175	2498.065651
354.331010	2499.877945
354.720782	2496.071874
355.110490	2497.974910
355.500135	2497.029693
355.889717	2498.993223
356.279235	2499.547750
356.668689	2500.278717
357.058080	2498.587410
357.447408	2499.792246
357.836672	2494.017604
358.225873	2495.960969
358.615010	2496.449961
359.004084	2499.572956
359.393095	2501.077740
359.782043	2501.418018
360.170927	2502.199397
360.559748	2505.128307
360.948505	2503.676455
361.337199	2507.180057
361.725830	2507.275839
362.114398	2506.912876
362.502903	2507.840448
362.891344	2507.159892
363.279722	2509.161230
363.668037	2507.853051
364.056289	2508.775582
364.444478	2508.712568
364.832603	2509.677948
365.220665	2512.463186
365.608665	2509.186436
365.996601	2510.981087
366.384474	2512.652229
366.772284	2509.930006
367.160031	2513.282373
367.547715	2512.647188
367.935336	2512.717764
368.322893	2517.262364
368.710388	2514.497292
369.097820	2518.063908
369.485189	2516.932169
369.872495	2515.419823
370.259738	2515.666839
370.646918	2516.544000
371.034035	2516.836387
371.421090	2519.508198
371.808081	2521.373425
372.195010	2516.576767
372.581875	2519.631707
372.968678	2519.412417
373.355418	2520.501306
373.742096	2522.217819
374.128710	2518.187416
374.515262	2521.562469
374.901751	2521.305370
375.288177	2523.251255
375.674540	2523.513395
376.060841	2526.026410
376.447079	2523.833508
376.833254	2529.502286
377.219367	2526.157480
377.605417	2533.192411
377.991404	2535.627288
378.377329	2540.741538
378.763191	2546.581715
379.148991	2558.007490
379.534727	2565.145764
379.920402	2574.471899
380.306013	2582.946078
380.691563	2599.105497
381.077049	2612.646036
381.462474	2627.499796
381.847835	2640.095119
382.233134	2658.316370
382.618371	2669.482525
383.003545	2696.036803
383.388657	2713.103630
383.773706	2739.698237
384.158693	2755.938314
384.543618	2783.631892
384.928480	2811.322951
385.313280	2845.070955
385.698017	2864.570138
386.082692	2905.027918
386.467305	2923.249169
386.851856	2959.399283
387.236344	2990.513285
387.620770	3027.936290
388.005133	3066.327197
388.389435	3105.106273
388.773674	3130.077629
389.157851	3183.370187
389.541965	3213.082747
389.926018	3216.165413
390.310008	3286.902884
390.693936	3319.526711
391.077802	3371.049824
391.461606	3387.786455
391.845348	3457.742547
392.229027	3477.435814
392.612645	3511.554343
392.996200	3590.382866
393.379694	3644.865136
393.763125	3718.339953
394.146494	3715.388358
394.529801	3788.679173
394.913047	3845.724870
395.296230	3836.842357
395.679351	3904.950866
396.062410	3940.158284
396.445408	3938.547636
396.828343	3985.054801
397.211217	4022.132487
397.594028	3956.668063
397.976778	4032.923077
398.359466	4068.926998
398.742092	4107.615333
399.124656	4041.684602
399.507158	4125.685349
399.889598	4155.287004
400.271977	4222.810739
400.654294	4203.573696
401.036549	4212.536868
401.418742	4189.710523
401.800874	4290.659629
402.182944	4317.579391
402.564952	4386.711254
402.946898	4372.464953
403.328783	4371.053430
403.710606	4285.275677
404.092367	4481.527796
404.474067	4448.044452
404.855705	4458.104075
405.237282	4386.358373
405.618797	4497.097400
406.000250	4531.707441
406.381642	4615.894711
406.762972	4575.414245
407.144240	4583.301130
407.525447	4584.773147
407.906593	4644.268845
408.287677	4689.404816
408.668700	4616.298003
409.049661	4666.749871
409.430560	4709.932394
409.811399	4639.444461
410.192176	4798.941527
410.572891	4737.767125
410.953545	4840.679761
411.334138	4723.402357
411.714669	4792.481289
412.095139	4686.012119
412.475547	4828.777596
412.855894	4810.387467
413.236180	4814.879135
413.616405	4771.318525
413.996568	4857.981001
414.376670	4800.708452
414.756711	4757.238582
415.136691	4788.095485
415.516609	4862.502916
415.896466	4896.792844
416.276262	4939.395635
416.655997	4916.347480
417.035670	5097.425726
417.415283	5191.967525
417.794834	5133.437208
418.174324	5087.897945
418.553753	4996.209439
418.933121	5178.144681
419.312428	5246.875773
419.691674	5185.338408
420.070859	5309.864990
420.449983	5220.906269
420.829045	5338.788610
421.208047	5245.965845
421.586988	5318.750024
421.965867	5329.593546
422.344686	5457.270849
422.723444	5317.076361
423.102141	5134.944513
423.480777	5434.827632
423.859352	5202.995049
424.237866	5463.063135
424.616319	5454.916630
424.994712	5560.685079
425.373044	5442.565803
425.751314	5580.920271
426.129524	5385.331063
426.507673	5578.772739
426.885762	5661.855996
427.263789	5588.247588
427.641756	5477.853880
428.019662	5597.762766
428.397508	5600.328713
428.775292	5547.378954
429.153016	5646.982071
429.530679	5577.126803
429.908282	5662.158465
430.285824	5530.448238
430.663305	5803.895547
431.040726	5543.797214
431.418086	5541.327048
431.795385	5648.340662
432.172624	5658.186036
432.549802	5654.178318
432.926920	5671.086348
433.303977	5675.966185
433.680974	5710.099838
434.057910	5729.987190
434.434786	5739.290639
434.811601	5706.535742
435.188355	5941.438388
435.565050	5817.113452
435.941683	5793.440193
436.318257	6010.371126
436.694770	5993.516028
437.071222	6026.737232
437.447614	5959.437828
437.823946	5873.768459
438.200218	6031.415423
438.576429	5897.134208
438.952580	5988.570656
439.328670	6030.727305
439.704700	5937.692811
440.080670	5928.467499
440.456580	6201.955137
440.832429	6079.409728
441.208218	5927.076141
441.583947	6083.977013
441.959616	6085.413742
442.335224	6010.764336
442.710773	6150.260624
443.086261	6178.135685
443.461689	5974.488193
443.837057	6125.064938
444.212365	6278.434482
444.587612	6169.792575
444.962800	6321.503579
445.337927	6299.796371
445.712995	5917.641621
446.088002	6490.283931
446.462949	6322.907541
446.837837	6254.020173
447.212664	6428.030722
447.587431	6566.997689
447.962139	7113.846935
448.336786	8039.579222
448.711374	7771.614168
449.085901	6853.846905
449.460369	6769.301714
449.834776	6703.398710
450.209124	7099.532579
450.583412	7246.754436
450.957640	7391.569142
451.331808	7158.675396
451.705917	6708.747374
452.079965	6641.427805
452.453954	6848.049578
452.827883	6726.588017
453.201752	6820.182080
453.575562	6612.781449
453.949311	6821.086967
454.323001	6707.751746
454.696632	6782.965761
455.070202	6917.771256
455.443713	7074.185657
455.817164	7181.297574
456.190556	7258.427227
456.563888	7330.747621
456.937160	7373.446194
457.310373	7034.252157
457.683526	7058.086732
458.056619	6948.182017
458.429653	6941.058867
458.802628	6869.706375
459.175542	6982.953376
459.548398	7338.684917
459.921194	7494.753999
460.293930	7495.658886
460.666607	8026.812500
461.039224	8331.782143
461.411782	8460.321483
461.784280	8473.113411
462.156719	8365.842699
462.529099	8246.710151
462.901419	7839.694951
463.273680	7727.897282
463.645882	7740.905980
464.018024	7603.935309
464.390106	7777.658512
464.762130	8160.733272
465.134094	8629.285837
465.505999	9659.460749
465.877845	10879.046934
466.249631	11528.239165
466.621358	11135.276181
466.993026	10508.741417
467.364634	10252.786912
467.736184	9897.120906
468.107674	9562.872241
468.479105	9589.499616
468.850477	9353.548410
469.221790	9130.215212
469.593043	8803.490470
469.964238	8661.622318
470.335373	8675.959360
470.706449	8733.806600
471.077467	8716.964105
471.448425	10026.877685
471.819324	11095.872002
472.190164	11119.494849
472.560945	9869.510506
472.931667	9078.649250
473.302330	8951.531514
473.672934	8585.387469
474.043479	8950.903891
474.413965	8892.562617
474.784393	8777.432746
475.154761	8930.456971
475.525070	9019.677832
475.895321	8844.308692
476.265513	9021.364098
476.635645	9191.382053
477.005719	9197.186941
477.375734	9302.501686
477.745691	9541.676710
478.115588	9677.752576
478.485427	9922.848434
478.855207	10455.025402
479.224928	11272.554362
479.594591	11900.813202
479.964194	11710.371012
480.333739	11650.512351
480.703226	11567.313148
481.072653	11659.382262
481.442022	11892.318857
481.811333	12081.301633
482.180584	11887.280224
482.549777	11599.758014
482.918912	11426.110429
483.287988	11442.930239
483.657005	11454.623195
484.025964	11138.389094
484.394864	11270.870617
484.763706	11237.999773
485.132489	10994.431384
485.501213	10961.482403
485.869879	11036.991325
486.238487	10883.566329
486.607036	10985.674900
486.975527	10765.568041
487.343959	10961.220263
487.712333	11006.656182
488.080648	10939.321490
488.448905	10983.093829
488.817104	10925.644840
489.185244	11190.839779
489.553326	11338.903509
489.921350	11886.458516
490.289315	12952.360085
490.657222	13283.115230
491.025070	13190.534440
491.392861	13071.038929
491.760593	12685.791432
492.128267	12328.567708
492.495883	12009.651713
492.863440	11665.083807
493.230939	11331.795482
493.598380	11263.397106
493.965763	11132.750563
494.333088	11034.248938
494.700354	10955.092740
495.067563	11014.258242
495.434713	10839.075625
495.801805	10971.189144
496.168839	10898.097455
496.535815	10837.054123
496.902733	10835.385501
497.269593	10766.573751
497.636395	10867.154852
498.003139	10858.468944
498.369825	10720.774868
498.736453	10880.846626
499.103023	10808.743003
499.469535	10839.922539
499.835989	10825.129273
500.202385	10784.459765
500.568723	10645.991871
500.935003	10865.133350
501.301226	10672.243680
501.667390	10932.480644
502.033497	11022.918944
502.399546	10885.426514
502.765537	10789.110229
503.131470	10868.097548
503.497345	11038.347396
503.863163	10649.840792
504.228923	10962.752773
504.594625	11028.209635
504.960269	10766.946796
505.325856	10991.827628
505.691385	10783.582604
506.056856	10933.244379
506.422270	10964.156735
506.787625	10851.466782
507.152924	10971.733589
507.518164	10948.614857
507.883347	10876.498631
508.248472	10783.774168
508.613540	11021.769561
508.978550	10913.188149
509.343503	10883.765454
509.708398	11006.315904
510.073236	11119.426794
510.438016	11124.805705
510.802738	11066.981150
511.167403	11126.590273
511.532010	11014.737152
511.896561	11252.185580
512.261053	11329.693321
512.625488	11196.256499
512.989866	11171.428816
513.354186	11163.728454
513.718449	11062.252547
514.082655	11258.812177
514.446803	11155.322330
514.810894	11272.569486
515.174927	11139.790535
515.538904	11160.726447
515.902822	11315.033645
516.266684	11202.174813
516.630488	11143.352110
516.994235	11196.185923
517.357925	11262.935841
517.721558	11349.908347
518.085133	11366.854186
518.448651	11378.365661
518.812112	11252.677093
519.175516	11272.579568
519.538863	11392.629606
519.902152	11319.984058
520.265385	11473.630866
520.628560	11377.009591
520.991678	11358.775737
521.354739	11417.174984
521.717743	11357.341529
522.080690	11338.618683
522.443580	11467.291615
522.806413	11427.569843
523.169189	11459.737446
523.531908	11516.132834
523.894569	11334.452170
524.257174	11337.963333
524.619722	11464.438322
524.982213	11395.687066
525.344647	11458.779627
525.707025	11408.201730
526.069345	11502.758653
526.431608	11424.149420
526.793815	11528.118177
527.155964	11319.588328
527.518057	11363.605163
527.880093	11315.537761
528.242072	11385.844213
528.603995	11292.298041
528.965860	11214.132430
529.327669	11268.329875
529.689421	11209.305526
530.051117	11187.694099
530.412755	11293.215531
530.774337	11177.432830
531.135862	11152.998358
531.497331	11182.642863
531.858743	11036.474607
532.220098	11203.445184
532.581396	11071.641696
532.942638	11050.698223
533.303824	11016.856957
533.664953	11042.231605
534.026025	10946.081678
534.387040	11041.349403
534.747999	11043.864939
535.108902	11108.232912
535.469748	10868.848680
535.830537	10971.844494
536.191270	10944.208889
536.551947	10970.780811
536.912567	10966.831067
537.273131	10888.514221
537.633638	10873.058043
537.994089	10859.504901
538.354483	10815.677110
538.714821	10958.956784
539.075103	10965.883330
539.435328	10925.450755
539.795497	10752.506411
540.155609	10910.791080
540.515665	11001.567137
540.875665	10736.520912
541.235609	10808.435492
541.595496	10803.127157
541.955328	10955.407812
542.315102	10834.525984
542.674821	10790.867071
543.034483	10790.562081
543.394090	10794.695827
543.753640	10722.698068
544.113134	10941.617736
544.472571	10794.375714
544.831953	10943.188055
545.191278	10749.166647
545.550548	10776.519947
545.909761	10913.064640
546.268918	10878.641121
546.628019	10970.390121
546.987064	10833.036323
547.346053	10753.312996
547.704986	10856.346618
548.063863	10847.335556
548.422684	10826.371918
548.781449	10754.616134
549.140158	10853.412667
549.498811	10730.136291
549.857408	10588.600855
550.215949	10809.562190
550.574434	10670.781745
550.932864	10766.775397
551.291237	10829.361322
551.649555	10772.484504
552.007817	10783.953129
552.366022	10751.357028
552.724173	10737.985367
553.082267	10727.197298
553.440305	10866.897753
553.798288	10665.793524
554.156215	10817.411267
554.514086	10799.978957
554.871902	10645.081943
555.229661	10679.765082
555.587365	10652.651236
555.945014	10552.296986
556.302606	10678.174597
556.660143	10571.173587
557.017625	10728.389531
557.375050	10619.982038
557.732421	10755.528583
558.089735	10662.839408
558.446994	10670.343165
558.804197	10706.810872
559.161345	10708.164422
559.518437	10554.822604
559.875474	10650.170988
560.232455	10668.309059
560.589381	10619.777871
560.946251	10617.857192
561.303065	10726.403316
561.659825	10665.536425
562.016528	10589.349467
562.373177	10467.892947
562.729770	10581.081974
563.086307	10506.356951
563.442789	10594.221742
563.799216	10478.852416
564.155587	10522.775989
564.511904	10479.991716
564.868164	10472.523247
565.224370	10490.820115
565.580520	10410.552343
565.936615	10411.293392
566.292654	10281.503845
566.648638	10419.611296
567.004567	10365.575168
567.360441	10356.317089
567.716260	10273.521178
568.072023	10359.989570
568.427732	10312.466612
568.783385	10215.862981
569.138982	10291.818046
569.494525	10308.277413
569.850013	10184.128918
570.205445	10265.044478
570.560823	10157.612448
570.916145	10077.311909
571.271412	10151.464761
571.626625	10090.665925
571.981782	10069.714890
572.336884	10046.921313
572.691931	10053.278208
573.046923	9997.273509
573.401860	9952.041756
573.756743	9888.283763
574.111570	9928.449156
574.466342	9909.491897
574.821059	9948.449934
575.175722	9836.070012
575.530330	9842.618471
575.884882	9835.155043
576.239380	9766.532336
576.593823	9738.332121
576.948211	9752.112115
577.302544	9634.189445
577.656823	9651.072269
578.011047	9651.848607
578.365216	9626.819278
578.719330	9550.889418
579.073389	9561.417868
579.427394	9512.259057
579.781344	9484.199994
580.135239	9435.628477
580.489080	9447.689437
580.842866	9346.359725
581.196597	9351.274850
581.550273	9391.798165
581.903895	9364.843115
582.257463	9435.121841
582.610975	9310.154158
582.964434	9330.827930
583.317837	9254.779603
583.671186	9238.126152
584.024481	9233.105162
584.377721	9149.361515
584.730906	9124.725396
585.084037	9156.744284
585.437113	9090.790869
585.790135	9113.528993
586.143103	9013.557871
586.496016	8990.494592
586.848874	9040.676758
587.201679	9033.495635
587.554428	8918.728726
587.907124	8964.278072
588.259765	8933.945449
588.612352	8936.302188
588.964884	8811.896594
589.317362	8837.188063
589.669786	8828.928132
590.022155	8869.428762
590.374470	8890.011793
590.726731	8829.775046
591.078937	8683.498405
591.431090	8791.313563
591.783188	8671.238319
592.135232	8658.990836
592.487222	8659.910847
592.839157	8709.946819
593.191038	8649.241244
593.542866	8591.119261
593.894639	8491.357347
594.246358	8537.181436
594.598022	8560.002739
594.949633	8458.088252
595.301190	8437.606044
595.652692	8462.776525
596.004141	8568.542454
596.355535	8345.690686
596.706876	8332.036721
597.058162	8256.958817
597.409395	8341.771189
597.760573	8399.084067
598.111698	8311.045356
598.462768	8296.115979
598.813785	8261.516020
599.164748	8232.917554
599.515657	8218.535142
599.866511	8129.911658
600.217312	8256.956296
600.568060	8117.207950
600.918753	8220.614618
601.269392	8187.806789
601.619978	8098.225485
601.970510	8167.506062
602.320988	8155.893764
602.671412	8220.354999
603.021783	8157.774115
603.372100	8134.327708
603.722363	8127.219681
604.072572	8102.449972
604.422728	8112.650747
604.772830	8043.735653
605.122878	8050.669760
605.472872	8049.583392
605.822813	8078.141528
606.172701	8020.231273
606.522534	8096.042665
606.872314	8097.318077
607.222041	8067.204745
607.571714	8123.017880
607.921333	8078.622958
608.270899	8086.499761
608.620411	8167.322060
608.969870	8078.731343
609.319276	8071.671207
609.668627	8088.123013
610.017926	8119.768856
610.367171	8168.219386
610.716362	8144.974625
611.065500	8136.109756
611.414585	8161.103797
611.763616	8150.575347
612.112594	8138.388358
612.461518	8151.664236
612.810389	8205.060138
613.159207	8153.655492
613.507971	8099.359745
613.856682	8213.012558
614.205340	8174.079727
614.553945	8253.719875
614.902496	8151.329000
615.250994	8204.210703
615.599439	8190.566821
615.947830	8199.172070
616.296169	8174.319182
616.644454	8188.968775
616.992686	8183.473917
617.340864	8244.779389
617.688990	8150.429154
618.037063	8236.852175
618.385082	8185.465173
618.733048	8272.213348
619.080961	8212.894091
619.428821	8227.364723
619.776628	8233.464519
620.124382	8183.942744
620.472083	8166.190321
620.819731	8194.579579
621.167326	8093.161646
621.514868	8089.990760
621.862357	7978.571178
622.209793	8000.361565
622.557176	7937.120290
622.904506	7905.043428
623.251783	7841.794592
623.599007	7794.443034
623.946179	7793.414638
624.293297	7754.554904
624.640363	7667.050555
624.987376	7652.340468
625.334336	7600.356090
625.681243	7548.091928
626.028097	7535.607510
626.374899	7515.604212
626.721647	7508.957450
627.068343	7438.714012
627.414987	7410.382728
627.761577	7372.238837
628.108115	7405.707058
628.454600	7298.529606
628.801032	7350.188830
629.147412	7308.742984
629.493739	7299.142107
629.840014	7233.100471
630.186236	7286.571989
630.532405	7173.191398
630.878521	7222.877011
631.224585	7183.515681
631.570597	7110.282839
631.916556	7135.433156
632.262462	7134.117415
632.608316	7099.545182
632.954117	7072.748928
633.299866	7061.338277
633.645562	7053.279992
633.991206	6972.344267
634.336797	6916.619353
634.682336	6877.643672
635.027823	6841.453228
635.373257	6836.044070
635.718639	6757.654128
636.063968	6780.301512
636.409245	6675.768145
636.754470	6669.933010
637.099642	6626.352235
637.444762	6569.034316
637.789829	6583.605771
638.134845	6526.280290
638.479808	6505.356981
638.824719	6514.980543
639.169577	6442.120747
639.514383	6462.189580
639.859137	6389.546553
640.203839	6395.762296
640.548489	6387.522530
