Dividing Wavelength (nm)	Counts (n)	Blue Motor Position (mm): 0.000000	Red Motor Position (mm): 0.000000	
326.493990	2095.892479
326.888308	2095.892479
327.282561	2095.892479
327.676750	2074.041598
328.070874	2075.082596
328.464933	2078.684500
328.858929	2090.193455
329.252859	2101.841041
329.646726	2117.728237
330.040528	2136.236833
330.434265	2152.791983
330.827938	2175.542710
331.221547	2191.697087
331.615091	2213.426981
332.008571	2234.796432
332.401986	2252.619432
332.795338	2273.630961
333.188625	2293.649383
333.581847	2311.845428
333.975006	2331.853767
334.368100	2347.844307
334.761129	2364.560773
335.154095	2383.407127
335.546996	2398.036555
335.939833	2409.374110
336.332606	2424.384146
336.725315	2435.056269
337.117960	2444.049687
337.510540	2452.375153
337.903056	2459.659620
338.295508	2467.080198
338.687896	2472.265025
339.080220	2479.486478
339.472480	2483.158959
339.864676	2490.503920
340.256807	2490.279588
340.648875	2493.778149
341.040879	2494.418376
341.432818	2492.449805
341.824694	2497.637153
342.216506	2498.398367
342.608253	2495.540032
342.999937	2495.837461
343.391557	2493.445433
343.783113	2489.667088
344.174605	2491.915443
344.566033	2488.184989
344.957397	2487.403610
345.348697	2485.714824
345.739934	2484.242807
346.131106	2483.748774
346.522215	2480.280460
346.913260	2479.615028
347.304241	2478.823566
347.695159	2475.478761
348.086012	2474.493215
348.476802	2474.808287
348.867528	2472.131435
349.258191	2470.112452
349.648789	2470.903914
350.039324	2469.467185
350.429796	2469.880559
350.820203	2467.123048
351.210548	2465.603140
351.600828	2464.090794
351.991045	2465.504838
352.381198	2464.015177
352.771288	2463.707667
353.161314	2464.466360
353.551276	2465.547688
353.941175	2465.366206
354.331010	2465.850157
354.720782	2466.818058
355.110490	2466.802935
355.500135	2464.715897
355.889717	2464.095835
356.279235	2465.207410
356.668689	2465.683799
357.058080	2466.603809
357.447408	2463.163222
357.836672	2465.300671
358.225873	2466.417287
358.615010	2463.221195
359.004084	2467.407873
359.393095	2471.103039
359.782043	2470.384675
360.170927	2471.836527
360.559748	2467.841413
360.948505	2468.965590
361.337199	2469.056331
361.725830	2471.828965
362.114398	2471.556743
362.502903	2471.244192
362.891344	2473.454738
363.279722	2471.758389
363.668037	2473.245530
364.056289	2474.541106
364.444478	2477.091930
364.832603	2473.999182
365.220665	2477.102012
365.608665	2474.064717
365.996601	2473.444655
366.384474	2477.535552
366.772284	2477.797692
367.160031	2474.987248
367.547715	2478.669811
367.935336	2477.301138
368.322893	2478.826087
368.710388	2474.190746
369.097820	2479.708289
369.485189	2480.270378
369.872495	2481.863382
370.259738	2477.480099
370.646918	2478.422795
371.034035	2480.005717
371.421090	2482.775831
371.808081	2477.560757
372.195010	2481.064359
372.581875	2477.795171
372.968678	2479.698207
373.355418	2481.414719
373.742096	2483.988228
374.128710	2483.844556
374.515262	2481.160141
374.901751	2481.598722
375.288177	2482.780872
375.674540	2483.821870
376.060841	2481.583598
376.447079	2485.064515
376.833254	2481.586119
377.219367	2478.168216
377.605417	2481.611324
377.991404	2477.144862
378.377329	2479.395737
378.763191	2480.792137
379.148991	2484.807416
379.534727	2485.145173
379.920402	2485.523260
380.306013	2484.638537
380.691563	2487.264978
381.077049	2483.519401
381.462474	2485.656850
381.847835	2484.852786
382.233134	2485.714824
382.618371	2484.973774
383.003545	2486.607108
383.388657	2486.458394
383.773706	2486.029896
384.158693	2488.489979
384.543618	2488.227839
384.928480	2487.068373
385.313280	2486.743219
385.698017	2488.159783
386.082692	2488.484938
386.467305	2487.517036
386.851856	2489.218426
387.236344	2487.408651
387.620770	2490.919815
388.005133	2489.717500
388.389435	2490.428302
388.773674	2489.515854
389.157851	2487.978302
389.541965	2490.277068
389.926018	2489.997284
390.310008	2489.636841
390.693936	2490.181286
391.077802	2488.295894
391.461606	2491.302943
391.845348	2490.070381
392.229027	2493.357213
392.612645	2491.164311
392.996200	2492.931235
393.379694	2491.968375
393.763125	2490.927377
394.146494	2491.164311
394.529801	2495.285454
394.913047	2490.856801
395.296230	2493.541215
395.679351	2493.014414
396.062410	2495.809734
396.445408	2493.591627
396.828343	2494.625063
397.211217	2488.704228
397.594028	2491.202120
397.976778	2490.330000
398.359466	2494.471308
398.742092	2492.280927
399.124656	2493.964672
399.507158	2494.940135
399.889598	2496.775115
400.271977	2494.564569
400.654294	2495.446771
401.036549	2494.809065
401.418742	2495.822337
401.800874	2495.222440
402.182944	2495.381236
402.564952	2495.741679
402.946898	2496.717142
403.328783	2497.710249
403.710606	2496.921309
404.092367	2497.364930
404.474067	2495.686226
404.855705	2497.387615
405.237282	2497.037255
405.618797	2495.923160
406.000250	2497.322080
406.381642	2496.041627
406.762972	2497.604385
407.144240	2497.508603
407.525447	2501.173522
407.906593	2498.320229
408.287677	2498.428614
408.668700	2495.320742
409.049661	2499.527585
409.430560	2496.505413
409.811399	2500.702174
410.192176	2498.882317
410.572891	2499.119252
410.953545	2497.569097
411.334138	2499.053717
411.714669	2499.378871
412.095139	2501.002123
412.475547	2500.561022
412.855894	2497.974910
413.236180	2498.867194
413.616405	2502.756444
413.996568	2500.427431
414.376670	2498.657986
414.756711	2499.557832
415.136691	2501.261742
415.516609	2504.208297
415.896466	2505.060252
416.276262	2504.586383
416.655997	2495.333345
417.035670	2500.926505
417.415283	2499.845178
417.794834	2496.417193
418.174324	2502.471619
418.553753	2501.662514
418.933121	2500.596310
419.312428	2500.692092
419.691674	2500.704695
420.070859	2501.478512
420.449983	2502.297699
420.829045	2500.180415
421.208047	2504.225941
421.586988	2501.075219
421.965867	2502.471619
422.344686	2502.960611
422.723444	2503.167298
423.102141	2506.166785
423.480777	2501.291989
423.859352	2506.406240
424.237866	2503.868019
424.616319	2504.467916
424.994712	2504.316681
425.373044	2506.880108
425.751314	2507.331291
426.129524	2505.997906
426.507673	2503.626043
426.885762	2506.559995
427.263789	2504.772906
427.641756	2504.319202
428.019662	2507.066631
428.397508	2504.173008
428.775292	2504.412463
429.153016	2503.870539
429.530679	2506.088647
429.908282	2503.227792
430.285824	2506.701147
430.663305	2506.864985
431.040726	2507.323730
431.418086	2504.631753
431.795385	2510.630727
432.172624	2503.580673
432.549802	2507.338853
432.926920	2505.942453
433.303977	2507.885818
433.680974	2505.798781
434.057910	2506.295334
434.434786	2507.290962
434.811601	2506.907834
435.188355	2510.050994
435.565050	2506.764162
435.941683	2508.016888
436.318257	2504.775426
436.694770	2503.663852
437.071222	2504.518327
437.447614	2505.856754
437.823946	2503.391630
438.200218	2506.204593
438.576429	2508.480674
438.952580	2506.451610
439.328670	2510.739111
439.704700	2507.416991
440.080670	2506.985972
440.456580	2506.973369
440.832429	2511.386900
441.208218	2512.077538
441.583947	2510.348422
441.959616	2510.305572
442.335224	2509.375479
442.710773	2511.079389
443.086261	2509.637619
443.461689	2510.040912
443.837057	2508.178205
444.212365	2506.486898
444.587612	2509.614934
444.962800	2509.541837
445.337927	2512.420336
445.712995	2508.636950
446.088002	2510.171982
446.462949	2510.456807
446.837837	2511.283556
447.212664	2510.524862
447.587431	2510.522342
447.962139	2509.844307
448.336786	2512.364883
448.711374	2510.207270
449.085901	2512.034688
449.460369	2513.534431
449.834776	2512.024606
450.209124	2509.609893
450.583412	2510.968484
450.957640	2511.028978
451.331808	2509.609893
451.705917	2511.593587
452.079965	2510.028309
452.453954	2512.309431
452.827883	2512.921931
453.201752	2512.080058
453.575562	2511.381858
453.949311	2513.484020
454.323001	2510.686179
454.696632	2513.597446
455.070202	2514.930831
455.443713	2512.405213
455.817164	2508.634430
456.190556	2508.233658
456.563888	2510.746673
456.937160	2507.185098
457.310373	2512.039729
457.683526	2512.919410
458.056619	2510.976046
458.429653	2514.220028
458.802628	2512.954698
459.175542	2512.730367
459.548398	2511.049142
459.921194	2514.159534
460.293930	2514.157014
460.666607	2512.967301
461.039224	2513.647857
461.411782	2510.817249
461.784280	2514.446880
462.156719	2514.363701
462.529099	2513.889833
462.901419	2512.281704
463.273680	2513.100892
463.645882	2513.332785
464.018024	2515.971829
464.390106	2514.595594
464.762130	2514.915707
465.134094	2513.668022
465.505999	2514.230110
465.877845	2515.157683
466.249631	2514.300687
466.621358	2513.879750
466.993026	2515.445028
467.364634	2517.239679
467.736184	2516.034843
468.107674	2515.187930
468.479105	2515.908815
468.850477	2515.497961
469.221790	2517.816891
469.593043	2515.780265
469.964238	2516.118023
470.335373	2514.482168
470.706449	2517.736233
471.077467	2513.032836
471.448425	2514.157014
471.819324	2514.827487
472.190164	2514.739267
472.560945	2512.049811
472.931667	2517.763959
473.302330	2515.384535
473.672934	2515.064421
474.043479	2515.465193
474.413965	2514.202384
474.784393	2513.632734
475.154761	2514.426715
475.525070	2511.840603
475.895321	2515.306397
476.265513	2510.237517
476.635645	2513.680625
477.005719	2514.958557
477.375734	2515.397138
477.745691	2517.635410
478.115588	2515.611387
478.485427	2518.517612
478.855207	2516.216325
479.224928	2518.505009
479.594591	2516.828825
479.964194	2516.952333
480.333739	2520.292098
480.703226	2517.229597
481.072653	2517.549710
481.442022	2515.172806
481.811333	2517.385873
482.180584	2518.893178
482.549777	2518.598270
482.918912	2514.618279
483.287988	2515.631551
483.657005	2515.654236
484.025964	2517.693383
484.394864	2517.854700
484.763706	2520.481141
485.132489	2517.073321
485.501213	2516.480986
485.869879	2517.958044
486.238487	2518.094155
486.607036	2516.589370
486.975527	2519.616583
487.343959	2517.547190
487.712333	2517.859741
488.080648	2519.493075
488.448905	2517.998373
488.817104	2513.773886
489.185244	2516.299504
489.553326	2521.733868
489.921350	2518.384021
490.289315	2520.186234
490.657222	2518.779752
491.025070	2518.963754
491.392861	2516.226407
491.760593	2516.922087
492.128267	2519.256141
492.495883	2518.842766
492.863440	2518.648682
493.230939	2516.579288
493.598380	2518.905781
493.965763	2514.590553
494.333088	2514.711541
494.700354	2516.118022
495.067563	2517.174144
495.434713	2514.136849
495.801805	2518.883095
496.168839	2518.472241
496.535815	2518.517612
496.902733	2518.099196
497.269593	2520.483662
497.636395	2516.175996
498.003139	2519.813188
498.369825	2520.254289
498.736453	2518.862931
499.103023	2516.806140
499.469535	2518.568023
499.835989	2518.119361
500.202385	2519.906450
500.568723	2520.012314
500.935003	2520.347551
501.301226	2518.878054
501.667390	2520.922242
502.033497	2520.183713
502.399546	2519.253620
502.765537	2519.845956
503.131470	2519.747653
503.497345	2521.590195
503.863163	2521.597757
504.228923	2520.287057
504.594625	2523.954496
504.960269	2520.967612
505.325856	2519.845956
505.691385	2521.219670
506.056856	2519.714886
506.422270	2518.028620
506.787625	2520.319824
507.152924	2520.337468
507.518164	2520.105575
507.883347	2516.239010
508.248472	2519.482993
508.613540	2517.201871
508.978550	2517.743795
509.343503	2520.143384
509.708398	2522.333765
510.073236	2521.320493
510.438016	2520.130781
510.802738	2517.620286
511.167403	2521.743950
511.532010	2519.288908
511.896561	2519.914011
512.261053	2519.805627
512.625488	2513.776407
512.989866	2516.291942
513.354186	2518.588188
513.718449	2515.210615
514.082655	2517.096006
514.446803	2518.789834
514.810894	2517.443846
515.174927	2523.145391
515.538904	2520.672705
515.902822	2518.719258
516.266684	2521.088600
516.630488	2520.440812
516.994235	2520.362674
517.357925	2520.304701
517.721558	2518.046264
518.085133	2521.068436
518.448651	2521.194464
518.812112	2520.970133
519.175516	2517.295132
519.538863	2521.630524
519.902152	2517.900070
520.265385	2520.292098
520.628560	2518.658764
520.991678	2521.628004
521.354739	2521.567510
521.717743	2519.031809
522.080690	2519.813188
522.443580	2519.402334
522.806413	2524.498941
523.169189	2519.452746
523.531908	2522.898374
523.894569	2522.043899
524.257174	2521.176820
524.619722	2519.603980
524.982213	2518.978877
525.344647	2520.927283
525.707025	2520.183713
526.069345	2522.341327
526.431608	2519.026768
526.793815	2521.746471
527.155964	2522.111954
527.518057	2519.994670
527.880093	2522.477438
528.242072	2518.638599
528.603995	2520.413086
528.965860	2520.912160
529.327669	2520.123219
529.689421	2523.152953
530.051117	2521.383508
530.412755	2519.435102
530.774337	2523.558766
531.135862	2522.490041
531.497331	2518.058867
531.858743	2516.780934
532.220098	2518.837725
532.581396	2515.971829
532.942638	2519.397293
533.303824	2522.490041
533.664953	2522.099352
534.026025	2516.791017
534.387040	2523.470545
534.747999	2520.420647
535.108902	2522.953827
535.469748	2520.607170
535.830537	2523.717562
536.191270	2523.042047
536.551947	2521.282685
536.912567	2520.831501
537.273131	2520.024917
537.633638	2521.123888
537.994089	2520.972654
538.354483	2520.644979
538.714821	2522.041378
539.075103	2523.745288
539.435328	2522.048940
539.795497	2519.959382
540.155609	2521.330576
540.515665	2521.257479
540.875665	2520.052643
541.235609	2522.116996
541.595496	2522.908457
541.955328	2521.020545
542.315102	2520.448374
542.674821	2520.229083
543.034483	2520.675226
543.394090	2522.190092
543.753640	2523.203364
544.113134	2521.496934
544.472571	2523.485669
544.831953	2520.191275
545.191278	2520.917201
545.550548	2522.288395
545.909761	2522.522808
546.268918	2521.670853
546.628019	2520.007273
546.987064	2520.849145
547.346053	2520.942407
547.704986	2522.961389
548.063863	2522.462315
548.422684	2522.154804
548.781449	2522.021214
549.140158	2521.494413
549.498811	2523.473066
549.857408	2522.220339
550.215949	2518.736902
550.574434	2516.702796
550.932864	2521.345699
551.291237	2517.458969
551.649555	2521.932993
552.007817	2521.927952
552.366022	2520.597088
552.724173	2521.103724
553.082267	2522.164887
553.440305	2522.268230
553.798288	2519.883764
554.156215	2525.161852
554.514086	2518.961233
554.871902	2525.774353
555.229661	2520.297139
555.587365	2522.074146
555.945014	2522.356450
556.302606	2522.691687
556.660143	2519.893847
557.017625	2523.843591
557.375050	2520.544156
557.732421	2523.508354
558.089735	2521.504495
558.446994	2522.931142
558.804197	2520.735719
559.161345	2523.100021
559.518437	2523.195802
559.875474	2521.960720
560.232455	2523.841070
560.589381	2522.530370
560.946251	2524.473735
561.303065	2522.837881
561.659825	2525.607995
562.016528	2521.738909
562.373177	2522.588343
562.729770	2522.898374
563.086307	2523.828467
563.442789	2521.411234
563.799216	2521.625483
564.155587	2524.740916
564.511904	2521.980884
564.868164	2522.845442
565.224370	2522.356450
565.580520	2523.863755
565.936615	2524.917357
566.292654	2521.179341
566.648638	2524.009949
567.004567	2521.693539
567.360441	2522.353930
567.716260	2518.525173
568.072023	2523.152953
568.427732	2519.099865
568.783385	2519.122550
569.138982	2518.903260
569.494525	2519.072139
569.850013	2516.077693
570.205445	2523.926770
570.560823	2520.201357
570.916145	2522.369053
571.271412	2522.898374
571.626625	2523.236132
571.981782	2523.888961
572.336884	2523.374763
572.691931	2523.440298
573.046923	2522.164887
573.401860	2521.950637
573.756743	2522.275792
574.111570	2522.333765
574.466342	2524.014990
574.821059	2523.044568
575.175722	2525.013138
575.530330	2521.756553
575.884882	2521.678415
576.239380	2520.856707
576.593823	2522.661440
576.948211	2522.931142
577.302544	2522.500123
577.656823	2523.077335
578.011047	2524.309898
578.365216	2522.406862
578.719330	2519.518281
579.073389	2522.936183
579.427394	2518.328568
579.781344	2522.348889
580.135239	2525.943231
580.489080	2520.256810
580.842866	2522.956348
581.196597	2522.263189
581.550273	2523.722603
581.903895	2521.869979
582.257463	2523.130267
582.610975	2518.628517
582.964434	2522.812675
583.317837	2522.250586
583.671186	2523.531039
584.024481	2521.819568
584.377721	2523.563807
584.730906	2520.765966
585.084037	2522.724455
585.437113	2521.743950
585.790135	2520.912160
586.143103	2522.505164
586.496016	2522.573220
586.848874	2517.544669
587.201679	2519.997190
587.554428	2518.336130
587.907124	2522.081708
588.259765	2515.558454
588.612352	2523.352078
588.964884	2520.899557
589.317362	2524.597243
589.669786	2522.474917
590.022155	2524.070443
590.374470	2523.624301
590.726731	2520.763446
591.078937	2523.891482
591.431090	2521.416275
591.783188	2520.249248
592.135232	2520.130781
592.487222	2521.789321
592.839157	2522.374094
593.191038	2522.376615
593.542866	2520.460977
593.894639	2522.681605
594.246358	2522.298477
594.598022	2521.872500
594.949633	2524.067922
595.301190	2521.325534
595.652692	2522.492562
596.004141	2518.643641
596.355535	2524.846780
596.706876	2522.318642
597.058162	2523.243693
597.409395	2521.615401
597.760573	2520.768487
598.111698	2522.240504
598.462768	2523.992305
598.813785	2523.079856
599.164748	2525.713859
599.515657	2521.464166
599.866511	2521.383508
600.217312	2520.546676
600.568060	2522.439629
600.918753	2522.984074
601.269392	2519.399814
601.619978	2523.520957
601.970510	2524.067922
602.320988	2523.626821
602.671412	2524.821575
603.021783	2521.509537
603.372100	2522.467356
603.722363	2520.934845
604.072572	2521.587674
604.422728	2524.294774
604.772830	2518.996521
605.122878	2520.828981
605.472872	2517.716068
605.822813	2517.219515
606.172701	2520.508868
606.522534	2522.883251
606.872314	2522.890813
607.222041	2523.573889
607.571714	2523.100021
607.921333	2522.880730
608.270899	2520.403003
608.620411	2522.605988
608.969870	2522.051461
609.319276	2522.948786
609.668627	2522.759743
610.017926	2522.046419
610.367171	2520.395442
610.716362	2523.694877
611.065500	2522.613549
611.414585	2520.788652
611.763616	2523.810823
612.112594	2521.446522
612.461518	2523.820906
612.810389	2523.347037
613.159207	2522.835360
613.507971	2525.791997
613.856682	2523.205885
614.205340	2520.269413
614.553945	2522.225380
614.902496	2521.297808
615.250994	2522.679084
615.599439	2519.457787
615.947830	2523.762932
616.296169	2522.583302
616.644454	2522.989115
616.992686	2523.208405
617.340864	2521.950637
617.688990	2521.514578
618.037063	2522.091790
618.385082	2522.570699
618.733048	2521.950637
619.080961	2522.195133
619.428821	2524.322500
619.776628	2523.019362
620.124382	2523.286543
620.472083	2520.889475
620.819731	2525.398787
621.167326	2520.909639
621.514868	2525.063550
621.862357	2521.000380
622.209793	2523.271420
622.557176	2521.754033
622.904506	2521.333096
623.251783	2519.094824
623.599007	2520.738240
623.946179	2520.355112
624.293297	2519.198168
624.640363	2521.025586
624.987376	2524.763601
625.334336	2521.118847
625.681243	2522.888292
626.028097	2520.944927
626.374899	2522.605987
626.721647	2523.936852
627.068343	2520.473579
627.414987	2523.515916
627.761577	2520.201357
628.108115	2521.862417
628.454600	2521.438960
628.801032	2522.449712
629.147412	2523.722603
629.493739	2520.826460
629.840014	2523.503313
630.186236	2521.416275
630.532405	2521.297808
630.878521	2520.080369
631.224585	2524.072963
631.570597	2521.726306
631.916556	2521.769156
632.262462	2524.070443
632.608316	2520.811337
632.954117	2521.328055
633.299866	2522.631193
633.645562	2523.155473
633.991206	2522.941224
634.336797	2521.922911
634.682336	2524.743437
635.027823	2521.728827
635.373257	2521.570030
635.718639	2519.072139
636.063968	2523.082377
636.409245	2521.277643
636.754470	2522.522808
637.099642	2525.958355
637.444762	2525.063550
637.789829	2521.123888
638.134845	2522.817716
638.479808	2522.784948
638.824719	2523.959537
639.169577	2520.425688
639.514383	2523.762932
639.859137	2521.007942
640.203839	2519.132632
640.548489	2520.781090
640.893086	2519.112468
641.237632	2520.939886
641.582125	2522.396780
641.926566	2515.845800
642.270955	2521.413755
642.615292	2521.774197
642.959576	2523.369722
643.303809	2522.134640
643.647990	2526.618746
643.992118	2519.538445
644.336195	2523.084897
