Dividing Wavelength (nm)	Counts (n)	Blue Motor Position (mm): 5.500000	Red Motor Position (mm): 0.000000	
326.493990	2143.170940
326.888308	2143.170940
327.282561	2143.170940
327.676750	2109.669953
328.070874	2106.844386
328.464933	2111.320930
328.858929	2118.035747
329.252859	2127.523199
329.646726	2138.389406
330.040528	2151.050264
330.434265	2169.027018
330.827938	2187.255831
331.221547	2202.812832
331.615091	2222.269165
332.008571	2242.529562
332.401986	2263.528488
332.795338	2282.689914
333.188625	2301.879066
333.581847	2317.534370
333.975006	2338.099757
334.368100	2357.412417
334.761129	2373.395395
335.154095	2389.166645
335.546996	2406.498132
335.939833	2422.629824
336.332606	2438.111208
336.725315	2451.387087
337.117960	2458.853035
337.510540	2466.906279
337.903056	2479.007568
338.295508	2486.818836
338.687896	2492.467449
339.080220	2500.351814
339.472480	2509.463699
339.864676	2513.347908
340.256807	2517.005266
340.648875	2521.960720
341.040879	2519.689680
341.432818	2525.318128
341.824694	2525.920546
342.216506	2526.016328
342.608253	2526.371729
342.999937	2525.981040
343.391557	2525.728982
343.783113	2523.677233
344.174605	2525.875176
344.566033	2522.222860
344.957397	2519.795544
345.348697	2517.453928
345.739934	2519.712365
346.131106	2517.285050
346.522215	2512.768176
346.913260	2511.127280
347.304241	2513.305059
347.695159	2512.022085
348.086012	2506.940602
348.476802	2507.540499
348.867528	2502.930364
349.258191	2502.196876
349.648789	2502.675786
350.039324	2501.239057
350.429796	2498.126144
350.820203	2496.707060
351.210548	2497.251504
351.600828	2493.838643
351.991045	2493.526092
352.381198	2494.899806
352.771288	2494.791421
353.161314	2495.696308
353.551276	2496.233191
353.941175	2492.636328
354.331010	2494.131030
354.720782	2492.326297
355.110490	2494.325114
355.500135	2495.265290
355.889717	2493.009373
356.279235	2492.890906
356.668689	2496.588593
357.058080	2495.262769
357.447408	2492.394352
357.836672	2492.835453
358.225873	2491.358395
358.615010	2491.865031
359.004084	2495.827378
359.393095	2497.957266
359.782043	2497.644714
360.170927	2496.553304
360.559748	2496.177738
360.948505	2497.188490
361.337199	2498.935250
361.725830	2502.597648
362.114398	2502.244767
362.502903	2499.910713
362.891344	2499.094046
363.279722	2497.649755
363.668037	2506.582680
364.056289	2502.287617
364.444478	2505.390447
364.832603	2501.039931
365.220665	2503.953718
365.608665	2501.677637
365.996601	2507.195180
366.384474	2504.830879
366.772284	2504.437669
367.160031	2502.741321
367.547715	2506.247443
367.935336	2505.115704
368.322893	2506.585201
368.710388	2507.777433
369.097820	2509.778772
369.485189	2507.331291
369.872495	2505.592093
370.259738	2504.684686
370.646918	2506.789367
371.034035	2508.692403
371.421090	2510.282887
371.808081	2508.677279
372.195010	2508.183246
372.581875	2508.268946
372.968678	2509.171313
373.355418	2508.546209
373.742096	2509.927486
374.128710	2510.300531
374.515262	2509.723319
374.901751	2511.472599
375.288177	2508.606703
375.674540	2511.928824
376.060841	2511.018895
376.447079	2513.557116
376.833254	2513.310100
377.219367	2507.114522
377.605417	2509.899759
377.991404	2507.222907
378.377329	2509.856909
378.763191	2511.580984
379.148991	2514.414112
379.534727	2512.979904
379.920402	2513.889833
380.306013	2513.632734
380.691563	2514.517456
381.077049	2514.378824
381.462474	2513.413443
381.847835	2514.250275
382.233134	2515.994514
382.618371	2515.571057
383.003545	2514.192302
383.388657	2513.279853
383.773706	2513.428567
384.158693	2514.993845
384.543618	2513.811695
384.928480	2514.633403
385.313280	2517.214473
385.698017	2514.787158
386.082692	2517.176665
386.467305	2517.010307
386.851856	2516.100378
387.236344	2515.548372
387.620770	2515.598784
388.005133	2519.540966
388.389435	2518.711696
388.773674	2517.809330
389.157851	2514.794720
389.541965	2516.150790
389.926018	2521.083559
390.310008	2519.276305
390.693936	2516.395286
391.077802	2518.328568
391.461606	2519.470390
391.845348	2518.900739
392.229027	2522.048940
392.612645	2518.978877
392.996200	2518.426871
393.379694	2518.681449
393.763125	2519.117509
394.146494	2520.019876
394.529801	2522.369053
394.913047	2523.019362
395.296230	2521.597757
395.679351	2523.435257
396.062410	2525.028262
396.445408	2522.419465
396.828343	2521.300329
397.211217	2519.062056
397.594028	2520.952489
397.976778	2517.955523
398.359466	2522.580782
398.742092	2521.459125
399.124656	2523.634383
399.507158	2523.362161
399.889598	2521.925432
400.271977	2524.357788
400.654294	2523.626821
401.036549	2525.625639
401.418742	2525.567665
401.800874	2523.152953
402.182944	2524.970289
402.564952	2524.882068
402.946898	2523.558766
403.328783	2525.638242
403.710606	2527.180835
404.092367	2525.696215
404.474067	2524.617408
404.855705	2526.112110
405.237282	2525.550021
405.618797	2525.071112
406.000250	2528.673016
406.381642	2525.832326
406.762972	2525.073632
407.144240	2525.161852
407.525447	2528.347862
407.906593	2525.996163
408.287677	2525.413910
408.668700	2525.797038
409.049661	2528.836854
409.430560	2527.014477
409.811399	2529.106555
410.192176	2528.259642
410.572891	2529.943387
410.953545	2524.403159
411.334138	2529.794673
411.714669	2528.483973
412.095139	2528.839374
412.475547	2526.359127
412.855894	2527.531195
413.236180	2529.998840
413.616405	2528.405835
413.996568	2527.629497
414.376670	2529.751823
414.756711	2526.898530
415.136691	2531.700229
415.516609	2529.209899
415.896466	2529.837523
416.276262	2532.126207
416.655997	2525.885258
417.035670	2527.327028
417.415283	2528.665454
417.794834	2524.561955
418.174324	2528.872142
418.553753	2527.475742
418.933121	2531.415404
419.312428	2529.681247
419.691674	2532.022863
420.070859	2532.078316
420.449983	2529.076308
420.829045	2534.135106
421.208047	2531.117976
421.586988	2532.221988
421.965867	2531.798532
422.344686	2531.110414
422.723444	2532.292565
423.102141	2533.073943
423.480777	2534.603934
423.859352	2532.557225
424.237866	2531.485980
424.616319	2530.928933
424.994712	2535.173584
425.373044	2534.853471
425.751314	2533.056299
426.129524	2535.728111
426.507673	2531.513706
426.885762	2532.912627
427.263789	2534.049407
427.641756	2533.051258
428.019662	2535.166022
428.397508	2534.770292
428.775292	2533.401618
429.153016	2533.058820
429.530679	2535.037473
429.908282	2537.121990
430.285824	2534.306506
430.663305	2533.878007
431.040726	2533.295754
431.418086	2535.160981
431.795385	2535.745755
432.172624	2537.215251
432.549802	2532.292565
432.926920	2534.611495
433.303977	2536.854809
433.680974	2532.458923
434.057910	2538.699871
434.434786	2535.155940
434.811601	2535.365148
435.188355	2533.812473
435.565050	2538.765406
435.941683	2535.039993
436.318257	2534.959335
436.694770	2532.927750
437.071222	2532.632843
437.447614	2531.002029
437.823946	2534.656866
438.200218	2535.110570
438.576429	2540.189532
438.952580	2536.118800
439.328670	2539.496373
439.704700	2536.489325
440.080670	2536.348173
440.456580	2537.351362
440.832429	2536.244829
441.208218	2537.419418
441.583947	2537.351362
441.959616	2538.896476
442.335224	2539.289686
442.710773	2536.769109
443.086261	2536.665766
443.461689	2538.898997
443.837057	2537.202648
444.212365	2538.843544
444.587612	2537.936136
444.962800	2540.055942
445.337927	2538.485622
445.712995	2534.666948
446.088002	2539.022505
446.462949	2540.093750
446.837837	2537.870601
447.212664	2539.093081
447.587431	2538.301620
447.962139	2538.231044
448.336786	2538.964532
448.711374	2539.216589
449.085901	2538.621733
449.460369	2538.102494
449.834776	2539.526620
450.209124	2537.984027
450.583412	2539.687937
450.957640	2537.608461
451.331808	2540.219779
451.705917	2538.263811
452.079965	2540.625592
452.453954	2536.396064
452.827883	2541.986703
453.201752	2538.800694
453.575562	2541.603576
453.949311	2537.507638
454.323001	2539.834131
454.696632	2538.694830
455.070202	2542.891591
455.443713	2539.093081
455.817164	2542.800850
456.190556	2534.230888
456.563888	2537.336239
456.937160	2537.921013
457.310373	2541.812784
457.683526	2541.406971
458.056619	2541.384286
458.429653	2539.009902
458.802628	2543.153731
459.175542	2541.908566
459.548398	2539.650129
459.921194	2541.001158
460.293930	2541.868236
460.666607	2540.880170
461.039224	2541.822866
461.411782	2542.480737
461.784280	2539.965201
462.156719	2541.918648
462.529099	2543.115922
462.901419	2542.228679
463.273680	2541.805222
463.645882	2546.064997
464.018024	2543.839328
464.390106	2541.563247
464.762130	2544.414019
465.134094	2544.507280
465.505999	2543.136087
465.877845	2541.288504
466.249631	2542.707588
466.621358	2543.559543
466.993026	2544.978628
467.364634	2548.353681
467.736184	2543.544420
468.107674	2541.205325
468.479105	2540.665921
468.850477	2543.509132
469.221790	2542.732794
469.593043	2542.967208
469.964238	2546.506098
470.335373	2542.944523
470.706449	2545.208001
471.077467	2543.458720
471.448425	2542.105171
471.819324	2544.345963
472.190164	2546.465769
472.560945	2543.993083
472.931667	2546.571633
473.302330	2544.252702
473.672934	2543.115922
474.043479	2545.470141
474.413965	2543.559543
474.784393	2537.968904
475.154761	2541.265818
475.525070	2538.427649
475.895321	2542.329502
476.265513	2539.382948
476.635645	2546.150697
477.005719	2546.962322
477.375734	2542.878988
477.745691	2541.686755
478.115588	2544.096426
478.485427	2543.141128
478.855207	2544.802188
479.224928	2544.776982
479.594591	2544.711447
479.964194	2545.908721
480.333739	2544.993752
480.703226	2544.434184
481.072653	2544.973587
481.442022	2545.419729
481.811333	2544.729091
482.180584	2545.245809
482.549777	2546.128011
482.918912	2548.252858
483.287988	2543.131045
483.657005	2542.561395
484.025964	2546.150697
484.394864	2547.307641
484.763706	2547.098433
485.132489	2548.313352
485.501213	2547.957950
485.869879	2546.183464
486.238487	2540.013092
486.607036	2546.987528
486.975527	2546.291849
487.343959	2542.531148
487.712333	2546.178423
488.080648	2543.350336
488.448905	2547.950388
488.817104	2545.349153
489.185244	2548.310831
489.553326	2544.247661
489.921350	2548.804864
490.289315	2545.933927
490.657222	2547.337888
491.025070	2545.611293
491.392861	2548.870399
491.760593	2546.203629
492.128267	2545.495347
492.495883	2545.548279
492.863440	2547.854607
493.230939	2546.891746
493.598380	2546.816129
493.965763	2538.989738
494.333088	2544.217414
494.700354	2546.203629
495.067563	2545.422250
495.434713	2542.609286
495.801805	2547.942827
496.168839	2546.385110
496.535815	2547.446273
496.902733	2547.030378
497.269593	2548.358722
497.636395	2545.271015
498.003139	2545.114739
498.369825	2547.670604
498.736453	2547.416026
499.103023	2549.016592
499.469535	2549.016592
499.835989	2545.717157
500.202385	2548.590615
500.568723	2548.509957
500.935003	2547.731098
501.301226	2549.331665
501.667390	2548.699000
502.033497	2550.171017
502.399546	2547.564740
502.765537	2545.639019
503.131470	2548.434339
503.497345	2547.678166
503.863163	2549.321582
504.228923	2546.574153
504.594625	2551.436346
504.960269	2545.752445
505.325856	2550.387786
505.691385	2548.678835
506.056856	2548.469627
506.422270	2548.446942
506.787625	2549.777807
507.152924	2548.762014
507.518164	2549.765204
507.883347	2544.618186
508.248472	2549.157745
508.613540	2548.013403
508.978550	2547.715975
509.343503	2549.019113
509.708398	2549.908877
510.073236	2551.726213
510.438016	2550.806202
510.802738	2549.084648
511.167403	2551.184289
511.532010	2547.993238
511.896561	2548.094061
512.261053	2547.940306
512.625488	2548.124308
512.989866	2546.296890
513.354186	2547.247148
513.718449	2542.702547
514.082655	2545.187836
514.446803	2548.933413
514.810894	2547.189174
515.174927	2548.207487
515.538904	2548.961140
515.902822	2545.265974
516.266684	2549.394679
516.630488	2547.458876
516.994235	2546.894267
517.357925	2550.377704
517.721558	2548.005841
518.085133	2549.324103
518.448651	2548.230172
518.812112	2551.254865
519.175516	2546.369987
519.538863	2548.116747
519.902152	2546.490974
520.265385	2547.715975
520.628560	2552.063970
520.991678	2548.925852
521.354739	2548.542724
521.717743	2545.271015
522.080690	2550.657488
522.443580	2547.786551
522.806413	2548.026006
523.169189	2549.109854
523.531908	2549.676984
523.894569	2549.676984
524.257174	2550.428116
524.619722	2548.489792
524.982213	2549.719833
525.344647	2550.183620
525.707025	2548.502395
526.069345	2550.314690
526.431608	2548.656150
526.793815	2547.660522
527.155964	2548.923331
527.518057	2547.842004
527.880093	2550.531459
528.242072	2550.133208
528.603995	2547.375697
528.965860	2548.625903
529.327669	2550.783517
529.689421	2547.857127
530.051117	2548.653629
530.412755	2549.815615
530.774337	2549.586243
531.135862	2548.988866
531.497331	2544.860161
531.858743	2545.039122
532.220098	2546.390151
532.581396	2544.782023
532.942638	2547.998279
533.303824	2550.589432
533.664953	2548.930893
534.026025	2548.116747
534.387040	2549.412323
534.747999	2549.099772
535.108902	2551.907694
535.469748	2548.744370
535.830537	2550.518856
536.191270	2546.654812
536.551947	2547.973074
536.912567	2548.590615
537.273131	2547.869730
537.633638	2549.167827
537.994089	2550.609597
538.354483	2550.435677
538.714821	2548.651109
539.075103	2550.196222
539.435328	2550.914587
539.795497	2550.259237
540.155609	2551.869886
540.515665	2550.216387
540.875665	2549.896274
541.235609	2550.581871
541.595496	2549.931562
541.955328	2549.293856
542.315102	2549.883671
542.674821	2550.418033
543.034483	2551.469114
543.394090	2551.708569
543.753640	2550.589432
544.113134	2547.567261
544.472571	2549.276212
544.831953	2551.764021
545.191278	2549.820657
545.550548	2548.701520
545.909761	2549.555996
546.268918	2553.667057
546.628019	2550.579350
546.987064	2547.622713
547.346053	2550.496171
547.704986	2549.069525
548.063863	2548.983825
548.422684	2548.149514
548.781449	2549.558517
549.140158	2550.604556
549.498811	2551.043136
549.857408	2552.520194
550.215949	2547.070707
550.574434	2545.023999
550.932864	2547.403423
551.291237	2546.473330
551.649555	2549.558517
552.007817	2550.082797
552.366022	2548.366284
552.724173	2550.244113
553.082267	2551.206974
553.440305	2549.220759
553.798288	2551.973229
554.156215	2548.671273
554.514086	2551.305276
554.871902	2548.784699
555.229661	2549.578681
555.587365	2551.300235
555.945014	2549.094730
556.302606	2551.012889
556.660143	2549.356870
557.017625	2551.496840
557.375050	2551.680842
557.732421	2551.547252
558.089735	2549.256047
558.446994	2548.807385
558.804197	2553.107489
559.161345	2549.676984
559.518437	2551.597663
559.875474	2548.451983
560.232455	2553.180586
560.589381	2549.437529
560.946251	2552.769732
561.303065	2549.883671
561.659825	2548.595656
562.016528	2550.849052
562.373177	2548.174720
562.729770	2549.873589
563.086307	2552.366439
563.442789	2550.677653
563.799216	2549.944165
564.155587	2550.589432
564.511904	2551.930379
564.868164	2552.827705
565.224370	2548.890564
565.580520	2548.094061
565.936615	2549.757642
566.292654	2550.647406
566.648638	2554.007335
567.004567	2550.770914
567.360441	2551.527087
567.716260	2550.866696
568.072023	2550.531459
568.427732	2547.761345
568.783385	2544.676159
569.138982	2546.977446
569.494525	2550.607077
569.850013	2546.211190
570.205445	2551.791748
570.560823	2550.705379
570.916145	2555.073539
571.271412	2550.912066
571.626625	2551.615307
571.981782	2551.864844
572.336884	2550.841490
572.691931	2547.658002
573.046923	2550.531459
573.401860	2550.234031
573.756743	2552.063970
574.111570	2550.886861
574.466342	2552.326110
574.821059	2550.052550
575.175722	2550.211346
575.530330	2550.581871
575.884882	2554.380380
576.239380	2550.854093
576.593823	2552.507592
576.948211	2550.899463
577.302544	2553.241079
577.656823	2550.312169
578.011047	2553.808209
578.365216	2549.903836
578.719330	2553.238559
579.073389	2550.130687
579.427394	2551.547252
579.781344	2551.406099
580.135239	2551.675801
580.489080	2551.353167
580.842866	2553.684701
581.196597	2557.178221
581.550273	2550.188661
581.903895	2552.247972
582.257463	2552.492468
582.610975	2552.855431
582.964434	2550.939793
583.317837	2551.453990
583.671186	2549.571119
584.024481	2552.903322
584.377721	2551.645554
584.730906	2550.372663
585.084037	2552.253013
585.437113	2553.281409
585.790135	2551.756460
586.143103	2550.944834
586.496016	2553.341903
586.848874	2547.428629
587.201679	2549.417364
587.554428	2546.692621
587.907124	2550.039947
588.259765	2544.091385
588.612352	2552.673950
588.964884	2553.084804
589.317362	2552.149670
589.669786	2551.539690
590.022155	2552.933569
590.374470	2551.252344
590.726731	2551.809392
591.078937	2550.445760
591.431090	2550.876778
591.783188	2552.429454
592.135232	2552.285781
592.487222	2552.502550
592.839157	2553.263765
593.191038	2551.965668
593.542866	2551.632951
593.894639	2549.787889
594.246358	2551.690925
594.598022	2551.461552
594.949633	2551.665719
595.301190	2547.194215
595.652692	2553.233518
596.004141	2551.194371
596.355535	2552.247972
596.706876	2551.222097
597.058162	2551.028013
597.409395	2551.272509
597.760573	2554.367777
598.111698	2549.573640
598.462768	2551.950544
598.813785	2551.582540
599.164748	2553.054557
599.515657	2550.551624
599.866511	2552.376522
600.217312	2550.886861
600.568060	2552.142108
600.918753	2553.004145
601.269392	2549.848383
601.619978	2552.651264
601.970510	2553.407438
602.320988	2552.431974
602.671412	2552.666388
603.021783	2553.062118
603.372100	2550.327292
603.722363	2549.792930
604.072572	2551.854762
604.422728	2552.976419
604.772830	2548.978784
605.122878	2549.505584
605.472872	2549.936603
605.822813	2547.111036
606.172701	2550.347457
606.522534	2551.254865
606.872314	2551.980791
607.222041	2550.896943
607.571714	2553.654454
607.921333	2551.358208
608.270899	2552.701676
608.620411	2552.918446
608.969870	2551.832077
609.319276	2553.707386
609.668627	2557.639486
610.017926	2556.084290
610.367171	2555.900288
610.716362	2557.883982
611.065500	2559.078736
611.414585	2554.251831
611.763616	2553.760318
612.112594	2556.422048
612.461518	2555.610422
612.810389	2551.005328
613.159207	2555.723848
613.507971	2555.368446
613.856682	2552.648744
614.205340	2555.570092
614.553945	2553.737633
614.902496	2552.875596
615.250994	2552.946172
615.599439	2550.740667
615.947830	2550.642365
616.296169	2549.603887
616.644454	2553.465411
616.992686	2552.444577
617.340864	2551.305276
617.688990	2549.520708
618.037063	2553.878785
618.385082	2550.423074
618.733048	2553.994732
619.080961	2552.810061
619.428821	2552.598332
619.776628	2551.660678
620.124382	2552.711758
620.472083	2552.852911
620.819731	2548.709082
621.167326	2553.016748
621.514868	2550.410472
621.862357	2552.111861
622.209793	2552.046326
622.557176	2551.282591
622.904506	2551.774104
623.251783	2545.255892
623.599007	2549.442570
623.946179	2547.335368
624.293297	2546.904349
624.640363	2551.043136
624.987376	2551.330482
625.334336	2551.038095
625.681243	2549.737477
626.028097	2553.606563
626.374899	2552.116902
626.721647	2550.072714
627.068343	2553.513302
627.414987	2550.234031
627.761577	2554.748384
628.108115	2552.500030
628.454600	2554.314845
628.801032	2548.900646
629.147412	2551.496840
629.493739	2550.445760
629.840014	2552.152190
630.186236	2552.406768
630.532405	2552.386604
630.878521	2550.712941
631.224585	2550.430636
631.570597	2551.481717
631.916556	2551.650595
632.262462	2551.280071
632.608316	2552.742005
632.954117	2551.832077
633.299866	2550.375183
633.645562	2548.814946
633.991206	2551.741336
634.336797	2551.622869
634.682336	2552.444577
635.027823	2549.399720
635.373257	2550.765873
635.718639	2549.694628
636.063968	2551.683363
636.409245	2550.954916
636.754470	2552.200081
637.099642	2550.770914
637.444762	2552.169834
637.789829	2550.901984
638.134845	2550.269319
638.479808	2551.088507
638.824719	2548.348640
639.169577	2552.686553
639.514383	2553.102448
639.859137	2548.754453
640.203839	2550.889381
640.548489	2551.312838
640.893086	2548.285625
641.237632	2545.908721
641.582125	2547.531973
641.926566	2548.169679
642.270955	2548.953578
642.615292	2551.733774
642.959576	2551.973229
643.303809	2551.083466
643.647990	2551.721172
643.992118	2551.658157
644.336195	2548.877961
