Dividing Wavelength (nm)	Counts (n)	Blue Motor Position (mm): 8.800000	Red Motor Position (mm): 0.000000	
326.493990	2063.193035
326.888308	2063.193035
327.282561	2063.193035
327.676750	2037.198325
328.070874	2040.888449
328.464933	2046.484130
328.858929	2052.735161
329.252859	2066.918447
329.646726	2075.853893
330.040528	2096.023549
330.434265	2110.264809
330.827938	2134.437141
331.221547	2153.641417
331.615091	2173.788388
332.008571	2193.721111
332.401986	2213.691642
332.795338	2236.028994
333.188625	2254.431726
333.581847	2275.612134
333.975006	2288.439350
334.368100	2309.919707
334.761129	2324.508806
335.154095	2341.406754
335.546996	2366.302492
335.939833	2413.724626
336.332606	2426.627459
336.725315	2438.859819
337.117960	2451.319031
337.510540	2459.543673
337.903056	2469.129428
338.295508	2473.527834
338.687896	2485.198105
339.080220	2484.509988
339.472480	2493.027017
339.864676	2494.294868
340.256807	2496.344097
340.648875	2498.824344
341.040879	2498.234529
341.432818	2503.908348
341.824694	2502.590086
342.216506	2502.408605
342.608253	2501.357524
342.999937	2501.859119
343.391557	2497.198572
343.783113	2498.562204
344.174605	2496.034066
344.566033	2494.042810
344.957397	2492.074239
345.348697	2492.275885
345.739934	2490.776142
346.131106	2486.536532
346.522215	2487.418734
346.913260	2487.060812
347.304241	2484.714155
347.695159	2480.272898
348.086012	2483.227014
348.476802	2476.676035
348.867528	2477.250726
349.258191	2469.898203
349.648789	2474.402474
350.039324	2466.765126
350.429796	2473.699233
350.820203	2470.941722
351.210548	2471.163533
351.600828	2473.185036
351.991045	2471.438276
352.381198	2471.458441
352.771288	2471.665128
353.161314	2471.057669
353.551276	2469.520117
353.941175	2468.211938
354.331010	2473.013637
354.720782	2470.888790
355.110490	2470.616568
355.500135	2471.017340
355.889717	2471.846609
356.279235	2470.223358
356.668689	2471.715539
357.058080	2470.399798
357.447408	2471.029942
357.836672	2470.921558
358.225873	2469.323512
358.615010	2474.122690
359.004084	2474.152937
359.393095	2472.426342
359.782043	2475.022536
360.170927	2473.154789
360.559748	2474.790643
360.948505	2475.274594
361.337199	2477.059162
361.725830	2476.237454
362.114398	2475.088071
362.502903	2478.579070
362.891344	2478.221148
363.279722	2477.734677
363.668037	2477.752321
364.056289	2476.325675
364.444478	2479.647795
364.832603	2480.141828
365.220665	2477.633854
365.608665	2481.553351
365.996601	2482.062508
366.384474	2481.187867
366.772284	2481.520584
367.160031	2479.877168
367.547715	2484.295739
367.935336	2479.730974
368.322893	2478.949595
368.710388	2479.844400
369.097820	2478.417753
369.485189	2481.946561
369.872495	2483.809268
370.259738	2484.164669
370.646918	2485.092241
371.034035	2482.957312
371.421090	2482.533856
371.808081	2485.540904
372.195010	2481.986890
372.581875	2484.089052
372.968678	2485.119968
373.355418	2487.133908
373.742096	2484.681387
374.128710	2485.092241
374.515262	2488.147180
374.901751	2486.518888
375.288177	2487.459063
375.674540	2487.857314
376.060841	2487.811944
376.447079	2486.720534
376.833254	2489.478045
377.219367	2487.759012
377.605417	2490.110710
377.991404	2485.256079
378.377329	2489.591471
378.763191	2485.561068
379.148991	2489.110041
379.534727	2488.101810
379.920402	2492.550628
380.306013	2487.002838
380.691563	2492.621204
381.077049	2487.292705
381.462474	2489.576348
381.847835	2488.989053
382.233134	2492.444764
382.618371	2489.677171
383.003545	2490.632469
383.388657	2491.542397
383.773706	2492.475011
384.158693	2489.178096
384.543618	2491.557521
384.928480	2492.197748
385.313280	2494.037769
385.698017	2491.194558
386.082692	2491.098776
386.467305	2492.883344
386.851856	2495.434168
387.236344	2490.403097
387.620770	2490.977788
388.005133	2490.725731
388.389435	2491.789414
388.773674	2489.644403
389.157851	2492.873262
389.541965	2493.001812
389.926018	2494.057933
390.310008	2494.113386
390.693936	2495.950887
391.077802	2494.549446
391.461606	2496.757471
391.845348	2495.865187
392.229027	2495.986175
392.612645	2495.333345
392.996200	2496.661689
393.379694	2497.054899
393.763125	2498.153871
394.146494	2495.592965
394.529801	2497.110352
394.913047	2491.348313
395.296230	2496.288644
395.679351	2497.720332
396.062410	2495.673623
396.445408	2499.913233
396.828343	2496.515496
397.211217	2498.695795
397.594028	2497.382574
397.976778	2497.874087
398.359466	2495.277893
398.742092	2496.883500
399.124656	2498.945332
399.507158	2497.758140
399.889598	2498.494149
400.271977	2500.855929
400.654294	2500.024139
401.036549	2498.363079
401.418742	2500.356855
401.800874	2498.814262
402.182944	2500.762668
402.564952	2500.024139
402.946898	2498.461381
403.328783	2501.153357
403.710606	2502.645539
404.092367	2504.006650
404.474067	2499.943480
404.855705	2499.963645
405.237282	2499.938439
405.618797	2500.162771
406.000250	2501.027328
406.381642	2502.708553
406.762972	2500.069509
407.144240	2497.064982
407.525447	2500.087153
407.906593	2497.407780
408.287677	2503.827689
408.668700	2502.010353
409.049661	2503.817607
409.430560	2503.472288
409.811399	2504.631753
410.192176	2505.715602
410.572891	2506.411281
410.953545	2505.871877
411.334138	2504.041938
411.714669	2504.427587
412.095139	2505.287103
412.475547	2505.287103
412.855894	2505.186280
413.236180	2502.307782
413.616405	2506.804491
413.996568	2503.696619
414.376670	2506.668380
414.756711	2504.054541
415.136691	2508.722650
415.516609	2506.759120
415.896466	2506.295334
416.276262	2504.551095
416.655997	2504.583862
417.035670	2504.190653
417.415283	2506.786847
417.794834	2506.756600
418.174324	2503.905827
418.553753	2505.692916
418.933121	2503.951198
419.312428	2509.239368
419.691674	2507.555623
420.070859	2505.052690
420.449983	2508.715088
420.829045	2507.167454
421.208047	2505.914727
421.586988	2505.438338
421.965867	2506.567557
422.344686	2506.267608
422.723444	2504.475478
423.102141	2508.878926
423.480777	2507.873215
423.859352	2507.848010
424.237866	2507.749707
424.616319	2507.225427
424.994712	2510.915552
425.373044	2504.755262
425.751314	2506.413801
426.129524	2503.532782
426.507673	2505.375324
426.885762	2503.588235
427.263789	2509.604852
427.641756	2506.839779
428.019662	2506.857423
428.397508	2509.630057
428.775292	2509.889677
429.153016	2507.036384
429.530679	2507.283400
429.908282	2509.123422
430.285824	2507.202742
430.663305	2508.815911
431.040726	2506.285252
431.418086	2505.607217
431.795385	2510.971004
432.172624	2507.006137
432.549802	2511.255830
432.926920	2507.195180
433.303977	2509.075531
433.680974	2507.323730
434.057910	2509.073010
434.434786	2509.453617
434.811601	2510.666015
435.188355	2508.339522
435.565050	2507.911024
435.941683	2510.855058
436.318257	2509.312465
436.694770	2509.284738
437.071222	2510.771879
437.447614	2508.067300
437.823946	2506.847341
438.200218	2507.898421
438.576429	2507.716940
438.952580	2507.101919
439.328670	2508.543689
439.704700	2511.147445
440.080670	2510.008144
440.456580	2508.210973
440.832429	2509.640140
441.208218	2510.262722
441.583947	2508.238699
441.959616	2511.336488
442.335224	2510.476971
442.710773	2509.546878
443.086261	2509.682990
443.461689	2510.572753
443.837057	2509.632578
444.212365	2509.322547
444.587612	2508.851199
444.962800	2506.444048
445.337927	2507.961436
445.712995	2506.123935
446.088002	2511.228103
446.462949	2510.524862
446.837837	2510.890346
447.212664	2506.812053
447.587431	2508.972187
447.962139	2509.937568
448.336786	2509.589728
448.711374	2512.022085
449.085901	2510.333298
449.460369	2513.708351
449.834776	2509.751045
450.209124	2509.882115
450.583412	2510.355984
450.957640	2510.930675
451.331808	2510.010665
451.705917	2512.621982
452.079965	2509.042763
452.453954	2511.676766
452.827883	2511.328926
453.201752	2510.976046
453.575562	2512.183402
453.949311	2511.447393
454.323001	2512.561488
454.696632	2511.187774
455.070202	2508.450427
455.443713	2510.827332
455.817164	2511.109636
456.190556	2512.974863
456.563888	2510.499657
456.937160	2512.122908
457.310373	2510.033350
457.683526	2511.699451
458.056619	2510.875223
458.429653	2510.799605
458.802628	2509.728360
459.175542	2510.464368
459.548398	2509.851868
459.921194	2512.503515
460.293930	2515.039216
460.666607	2511.122239
461.039224	2512.478309
461.411782	2512.271622
461.784280	2513.259688
462.156719	2514.293125
462.529099	2512.977384
462.901419	2511.505367
463.273680	2509.584687
463.645882	2509.209121
464.018024	2509.967815
464.390106	2507.265756
464.762130	2513.675583
465.134094	2510.348422
465.505999	2515.266068
465.877845	2514.124246
466.249631	2511.994359
466.621358	2513.791530
466.993026	2510.434122
467.364634	2518.719258
467.736184	2513.327744
468.107674	2513.627692
468.479105	2509.791374
468.850477	2512.132990
469.221790	2513.766324
469.593043	2514.063752
469.964238	2513.685666
470.335373	2511.896056
470.706449	2514.925790
471.077467	2515.717251
471.448425	2514.214987
471.819324	2513.844462
472.190164	2517.723630
472.560945	2513.670542
472.931667	2514.048629
473.302330	2513.466376
473.672934	2516.150790
474.043479	2513.453773
474.413965	2511.147445
474.784393	2512.175840
475.154761	2514.204905
475.525070	2513.337826
475.895321	2513.998217
476.265513	2513.330264
476.635645	2513.342867
477.005719	2514.971160
477.375734	2513.935203
477.745691	2515.321520
478.115588	2514.593073
478.485427	2512.541324
478.855207	2516.423012
479.224928	2515.994514
479.594591	2518.409227
479.964194	2513.945285
480.333739	2515.732374
480.703226	2515.182888
481.072653	2516.249093
481.442022	2515.261026
481.811333	2513.131139
482.180584	2513.584843
482.549777	2514.199863
482.918912	2513.662981
483.287988	2518.066428
483.657005	2516.954854
484.025964	2518.467200
484.394864	2517.847138
484.763706	2517.516943
485.132489	2517.426202
485.501213	2515.092148
485.869879	2516.163393
486.238487	2519.019207
486.607036	2516.072652
486.975527	2516.319669
487.343959	2517.295132
487.712333	2517.824453
488.080648	2517.887468
488.448905	2518.217663
488.817104	2517.153980
489.185244	2518.106758
489.553326	2518.205060
489.921350	2515.253465
490.289315	2517.191788
490.657222	2519.677077
491.025070	2517.680780
491.392861	2517.708507
491.760593	2523.120185
492.128267	2516.725482
492.495883	2518.018537
492.863440	2519.248579
493.230939	2515.931500
493.598380	2520.342509
493.965763	2515.281191
494.333088	2518.419309
494.700354	2516.349916
495.067563	2519.805627
495.434713	2517.209432
495.801805	2520.448374
496.168839	2518.399145
496.535815	2519.503157
496.902733	2517.184227
497.269593	2517.519463
497.636395	2520.130781
498.003139	2520.365195
498.369825	2519.979546
498.736453	2518.439474
499.103023	2518.104237
499.469535	2519.384690
499.835989	2523.102541
500.202385	2516.269257
500.568723	2514.666170
500.935003	2514.351098
501.301226	2509.599811
501.667390	2518.333610
502.033497	2520.324865
502.399546	2516.526356
502.765537	2519.936697
503.131470	2516.400327
503.497345	2519.462828
503.863163	2518.469721
504.228923	2519.296470
504.594625	2516.503671
504.960269	2517.821932
505.325856	2519.102386
505.691385	2517.176665
506.056856	2519.145235
506.422270	2515.535769
506.787625	2519.747653
507.152924	2519.097344
507.518164	2519.573733
507.883347	2519.840915
508.248472	2520.924763
508.613540	2515.253465
508.978550	2518.767149
509.343503	2517.582478
509.708398	2517.484175
510.073236	2521.685977
510.438016	2520.733199
510.802738	2518.580626
511.167403	2521.955679
511.532010	2519.919052
511.896561	2523.102541
512.261053	2517.015348
512.625488	2516.886798
512.989866	2522.132119
513.354186	2519.031809
513.718449	2519.026768
514.082655	2520.967612
514.446803	2518.401665
514.810894	2521.938035
515.174927	2519.969464
515.538904	2519.276305
515.902822	2519.561131
516.266684	2519.117509
516.630488	2520.723117
516.994235	2518.847807
517.357925	2521.529701
517.721558	2521.925432
518.085133	2519.024248
518.448651	2519.987108
518.812112	2516.848990
519.175516	2520.282016
519.538863	2517.821932
519.902152	2523.268899
520.265385	2524.327542
520.628560	2525.040865
520.991678	2523.548683
521.354739	2525.940711
521.717743	2523.876358
522.080690	2525.991122
522.443580	2526.359127
522.806413	2526.734693
523.169189	2525.991122
523.531908	2523.170597
523.894569	2525.706297
524.257174	2529.187214
524.619722	2528.506658
524.982213	2527.511030
525.344647	2528.695701
525.707025	2529.971113
526.069345	2532.307688
526.431608	2531.294416
526.793815	2529.545136
527.155964	2528.665454
527.518057	2534.104859
527.880093	2533.232740
528.242072	2532.269879
528.603995	2535.292051
528.965860	2536.373379
529.327669	2535.160981
529.689421	2537.747093
530.051117	2536.116280
530.412755	2536.985879
530.774337	2536.950591
531.135862	2539.057793
531.497331	2540.169368
531.858743	2540.776827
532.220098	2542.258926
532.581396	2541.953936
532.942638	2543.645243
533.303824	2545.069369
533.664953	2547.358053
534.026025	2544.681200
534.387040	2545.039122
534.747999	2544.630789
535.108902	2546.561551
535.469748	2544.812270
535.830537	2547.569781
536.191270	2548.141952
536.551947	2548.275543
536.912567	2544.850079
537.273131	2550.402910
537.633638	2542.561395
537.994089	2551.958106
538.354483	2551.297715
538.714821	2554.166131
539.075103	2554.425751
539.435328	2553.725030
539.795497	2555.587737
540.155609	2555.522202
540.515665	2559.192162
540.875665	2557.826009
541.235609	2560.006308
541.595496	2558.420865
541.955328	2560.661658
542.315102	2562.373130
542.674821	2560.689384
543.034483	2562.494117
543.394090	2562.131154
543.753640	2564.732390
544.113134	2567.104252
544.472571	2565.206258
544.831953	2568.551064
545.191278	2566.746331
545.550548	2570.184397
545.909761	2568.840930
546.268918	2571.893349
546.628019	2573.730849
546.987064	2570.733883
547.346053	2572.957032
547.704986	2574.224882
548.063863	2571.590879
548.422684	2575.840572
548.781449	2574.774368
549.140158	2573.995510
549.498811	2575.787640
549.857408	2574.524831
550.215949	2578.023392
550.574434	2576.226220
550.932864	2578.648495
551.291237	2580.057497
551.649555	2576.080027
552.007817	2577.892322
552.366022	2580.294432
552.724173	2579.444997
553.082267	2581.161510
553.440305	2583.341809
553.798288	2583.644278
554.156215	2582.719227
554.514086	2583.477920
554.871902	2579.137487
555.229661	2581.947930
555.587365	2579.376942
555.945014	2584.312231
556.302606	2583.858527
556.660143	2586.797520
557.017625	2585.098651
557.375050	2586.482448
557.732421	2586.421954
558.089735	2586.106882
558.446994	2586.439598
558.804197	2589.328179
559.161345	2588.761049
559.518437	2584.624783
559.875474	2586.737026
560.232455	2588.093097
560.589381	2589.819692
560.946251	2588.801379
561.303065	2591.730289
561.659825	2590.210381
562.016528	2590.583427
562.373177	2592.317583
562.729770	2590.311204
563.086307	2590.744743
563.442789	2594.694487
563.799216	2593.408993
564.155587	2591.218612
564.511904	2590.467480
564.868164	2591.022007
565.224370	2592.436051
565.580520	2589.865062
565.936615	2593.381267
566.292654	2595.813624
566.648638	2594.911257
567.004567	2594.260948
567.360441	2594.500403
567.716260	2594.288675
568.072023	2595.586772
568.427732	2592.551997
568.783385	2595.294385
569.138982	2595.652307
569.494525	2597.320929
569.850013	2591.815989
570.205445	2595.959817
570.560823	2592.877152
570.916145	2595.735486
571.271412	2595.107862
571.626625	2593.237594
571.981782	2598.210692
572.336884	2594.008891
572.691931	2591.715166
573.046923	2594.467636
573.401860	2592.456215
573.756743	2594.848243
574.111570	2597.792277
574.466342	2599.102977
574.821059	2596.131216
575.175722	2596.499221
575.530330	2596.267327
575.884882	2594.535691
576.239380	2595.455702
576.593823	2595.480907
576.948211	2594.878490
577.302544	2594.576020
577.656823	2594.848243
578.011047	2594.767584
578.365216	2596.186669
578.719330	2596.857142
579.073389	2591.253900
579.427394	2595.707759
579.781344	2593.164497
580.135239	2593.966041
580.489080	2593.865218
580.842866	2594.281113
581.196597	2595.790938
581.550273	2594.941504
581.903895	2592.476380
582.257463	2595.324632
582.610975	2593.625763
582.964434	2592.778849
583.317837	2593.983685
583.671186	2594.896134
584.024481	2595.740527
584.377721	2592.115937
584.730906	2592.856987
585.084037	2594.805393
585.437113	2592.360433
585.790135	2592.867069
586.143103	2592.486462
586.496016	2594.311360
586.848874	2592.025197
587.201679	2595.987543
587.554428	2593.792121
587.907124	2593.290526
588.259765	2591.165680
588.612352	2596.085846
588.964884	2592.443612
589.317362	2595.254056
589.669786	2592.423448
590.022155	2592.879672
590.374470	2591.395052
590.726731	2592.362954
591.078937	2591.183324
591.431090	2595.251535
591.783188	2595.208685
592.135232	2597.910744
592.487222	2594.240784
592.839157	2598.576176
593.191038	2595.788418
593.542866	2596.128696
593.894639	2594.465115
594.246358	2595.337235
594.598022	2597.177256
594.949633	2592.763726
595.301190	2595.599375
595.652692	2593.340938
596.004141	2594.699529
596.355535	2595.100300
596.706876	2596.239601
597.058162	2595.604416
597.409395	2596.887389
597.760573	2597.699015
598.111698	2595.531319
598.462768	2595.639704
598.813785	2597.023501
599.164748	2596.436206
599.515657	2601.968872
599.866511	2598.722369
600.217312	2596.705908
600.568060	2597.353696
600.918753	2603.272011
601.269392	2601.474839
601.619978	2601.923502
601.970510	2603.481219
602.320988	2605.187649
602.671412	2609.298710
603.021783	2607.229317
603.372100	2605.495160
603.722363	2606.352156
604.072572	2606.861312
604.422728	2608.217383
604.772830	2606.294182
605.122878	2608.567743
605.472872	2613.810543
605.822813	2611.980604
606.172701	2614.697786
606.522534	2613.954216
606.872314	2616.910852
607.222041	2616.265585
607.571714	2617.014196
607.921333	2615.685852
608.270899	2621.236162
608.620411	2625.001904
608.969870	2623.381173
609.319276	2626.181534
609.668627	2631.373923
610.017926	2632.508182
610.367171	2632.646814
610.716362	2636.561270
611.065500	2638.907927
611.414585	2642.605614
611.763616	2644.150727
612.112594	2645.920172
612.461518	2649.023002
612.810389	2651.790596
613.159207	2655.001811
613.507971	2656.864517
613.856682	2661.033552
614.205340	2666.248625
614.553945	2670.546209
614.902496	2670.858760
615.250994	2677.946623
615.599439	2680.376459
615.947830	2683.915349
616.296169	2687.794517
616.644454	2692.976823
616.992686	2698.943028
617.340864	2707.245809
617.688990	2707.137424
618.037063	2714.815101
618.385082	2724.047975
618.733048	2731.062740
619.080961	2737.137331
619.428821	2741.099677
619.776628	2747.776686
620.124382	2753.463107
620.472083	2758.320259
620.819731	2761.758326
621.167326	2761.057606
621.514868	2769.415839
621.862357	2765.743358
622.209793	2776.425563
622.557176	2774.963628
622.904506	2778.832714
623.251783	2782.585853
623.599007	2782.409413
623.946179	2785.628189
624.293297	2791.939714
624.640363	2792.532050
624.987376	2794.702266
625.334336	2797.805097
625.681243	2805.359266
626.028097	2808.013433
626.374899	2814.889567
626.721647	2825.097903
627.068343	2832.959583
627.414987	2837.405881
627.761577	2844.660101
628.108115	2855.128057
628.454600	2857.479755
628.801032	2864.920498
629.147412	2875.161602
629.493739	2883.129146
629.840014	2886.753736
630.186236	2902.048596
630.532405	2907.820718
630.878521	2920.864703
631.224585	2932.671085
631.570597	2937.929009
631.916556	2956.689663
632.262462	2964.969758
632.608316	2978.525421
632.954117	2987.294508
633.299866	2997.764984
633.645562	3007.479288
633.991206	3010.430883
634.336797	3013.589166
634.682336	3014.955319
635.027823	3024.326824
635.373257	3032.372506
635.718639	3033.037938
636.063968	3043.979762
636.409245	3043.591593
636.754470	3051.319682
637.099642	3057.842935
637.444762	3061.003739
637.789829	3073.649473
638.134845	3080.215576
638.479808	3088.334354
638.824719	3100.937239
639.169577	3106.023763
639.514383	3119.584467
639.859137	3122.752832
640.203839	3140.275883
640.548489	3149.344919
640.893086	3158.557628
641.237632	3168.372754
641.582125	3185.825229
641.926566	3195.738658
642.270955	3206.693085
642.615292	3218.461659
642.959576	3232.594533
643.303809	3242.878487
643.647990	3265.727517
643.992118	3281.576905
644.336195	3291.482772
