Dividing Wavelength (nm)	Counts (n)	Blue Motor Position (mm): 25.200000	Red Motor Position (mm): 0.000000	
326.493990	2132.070320
326.888308	2132.070320
327.282561	2132.070320
327.676750	2097.024218
328.070874	2098.148395
328.464933	2101.467995
328.858929	2109.702720
329.252859	2117.080449
329.646726	2128.755761
330.040528	2139.190949
330.434265	2159.330359
330.827938	2176.913904
331.221547	2192.584330
331.615091	2213.127032
332.008571	2232.573283
332.401986	2252.717734
332.795338	2271.916968
333.188625	2292.631070
333.581847	2308.359470
333.975006	2327.631801
334.368100	2347.002434
334.761129	2365.863912
335.154095	2379.288504
335.546996	2402.228275
335.939833	2424.132088
336.332606	2439.565581
336.725315	2450.923300
337.117960	2462.482666
337.510540	2468.688327
337.903056	2479.317599
338.295508	2488.525267
338.687896	2495.908037
339.080220	2504.077227
339.472480	2507.868174
339.864676	2512.150634
340.256807	2519.369567
340.648875	2522.482479
341.040879	2523.105062
341.432818	2526.495238
341.824694	2529.053623
342.216506	2527.127902
342.608253	2529.681247
342.999937	2528.141174
343.391557	2525.088756
343.783113	2526.021369
344.174605	2525.718900
344.566033	2525.439116
344.957397	2523.364681
345.348697	2521.955679
345.739934	2520.891995
346.131106	2517.557272
346.522215	2517.373270
346.913260	2513.080727
347.304241	2516.173475
347.695159	2511.444873
348.086012	2510.227434
348.476802	2507.051507
348.867528	2507.119563
349.258191	2502.549757
349.648789	2503.578152
350.039324	2500.157729
350.429796	2501.841475
350.820203	2501.037411
351.210548	2497.775784
351.600828	2494.710763
351.991045	2495.872749
352.381198	2495.189672
352.771288	2495.716473
353.161314	2495.489621
353.551276	2494.952738
353.941175	2493.619353
354.331010	2496.238232
354.720782	2492.396873
355.110490	2494.488952
355.500135	2495.308139
355.889717	2493.715135
356.279235	2497.185969
356.668689	2498.345435
357.058080	2494.864518
357.447408	2491.101297
357.836672	2496.444920
358.225873	2493.808396
358.615010	2492.941318
359.004084	2494.940135
359.393095	2498.108500
359.782043	2501.024808
360.170927	2499.709067
360.559748	2497.884169
360.948505	2500.624036
361.337199	2499.704026
361.725830	2504.122597
362.114398	2502.847185
362.502903	2500.573625
362.891344	2501.846516
363.279722	2501.733090
363.668037	2504.331805
364.056289	2502.083450
364.444478	2503.963801
364.832603	2505.120745
365.220665	2503.222751
365.608665	2505.206445
365.996601	2507.187618
366.384474	2505.559326
366.772284	2510.250119
367.160031	2508.911693
367.547715	2507.154851
367.935336	2506.859943
368.322893	2504.709891
368.710388	2508.926817
369.097820	2510.648371
369.485189	2511.485202
369.872495	2508.841117
370.259738	2507.618637
370.646918	2509.748525
371.034035	2506.318019
371.421090	2508.611744
371.808081	2510.817249
372.195010	2512.241375
372.581875	2512.995028
372.968678	2509.544358
373.355418	2513.133659
373.742096	2512.143073
374.128710	2511.586025
374.515262	2511.649040
374.901751	2510.234996
375.288177	2511.253309
375.674540	2512.682476
376.060841	2509.882115
376.447079	2512.584174
376.833254	2511.752383
377.219367	2507.573267
377.605417	2511.182733
377.991404	2511.976715
378.377329	2513.337826
378.763191	2510.177023
379.148991	2515.523166
379.534727	2512.488392
379.920402	2513.201715
380.306013	2516.634741
380.691563	2517.501819
381.077049	2514.983763
381.462474	2515.553413
381.847835	2516.816222
382.233134	2515.893691
382.618371	2513.605007
383.003545	2515.220697
383.388657	2519.162879
383.773706	2517.743795
384.158693	2518.081552
384.543618	2518.474762
384.928480	2518.333610
385.313280	2518.038702
385.698017	2516.992663
386.082692	2518.066428
386.467305	2518.426871
386.851856	2520.287057
387.236344	2519.803106
387.620770	2521.310411
388.005133	2520.251769
388.389435	2522.411903
388.773674	2521.416275
389.157851	2517.610204
389.541965	2520.276974
389.926018	2522.868127
390.310008	2517.516943
390.693936	2521.875020
391.077802	2521.643127
391.461606	2520.125740
391.845348	2523.221008
392.229027	2521.973323
392.612645	2522.046419
392.996200	2521.547345
393.379694	2521.786800
393.763125	2521.814526
394.146494	2522.537932
394.529801	2525.643283
394.913047	2523.344517
395.296230	2525.212264
395.679351	2525.292923
396.062410	2523.546163
396.445408	2523.218488
396.828343	2524.113293
397.211217	2524.398118
397.594028	2523.309228
397.976778	2522.469876
398.359466	2522.699249
398.742092	2523.412572
399.124656	2525.910464
399.507158	2524.922398
399.889598	2527.737882
400.271977	2525.865093
400.654294	2527.057326
401.036549	2526.570855
401.418742	2531.420445
401.800874	2527.211082
402.182944	2527.841226
402.564952	2525.368540
402.946898	2528.768798
403.328783	2528.811648
403.710606	2526.225536
404.092367	2530.303829
404.474067	2525.623118
404.855705	2528.292409
405.237282	2526.510361
405.618797	2525.673530
406.000250	2531.279293
406.381642	2529.227543
406.762972	2529.892975
407.144240	2529.754344
407.525447	2529.829961
407.906593	2526.747295
408.287677	2531.349869
408.668700	2530.911288
409.049661	2531.160826
409.430560	2529.260311
409.811399	2533.784746
410.192176	2532.889941
410.572891	2528.632687
410.953545	2532.431196
411.334138	2533.930940
411.714669	2532.400949
412.095139	2531.853984
412.475547	2530.908768
412.855894	2531.740558
413.236180	2532.116124
413.616405	2530.560928
413.996568	2534.737524
414.376670	2533.131917
414.756711	2535.347504
415.136691	2533.320960
415.516609	2534.130065
415.896466	2533.434386
416.276262	2533.265507
416.655997	2530.500434
417.035670	2529.714014
417.415283	2533.646114
417.794834	2531.347348
418.174324	2536.113759
418.553753	2537.868081
418.933121	2533.787267
419.312428	2534.377082
419.691674	2535.647453
420.070859	2535.733152
420.449983	2535.773481
420.829045	2536.630477
421.208047	2532.862215
421.586988	2536.451517
421.965867	2537.026208
422.344686	2536.423790
422.723444	2537.053934
423.102141	2537.119469
423.480777	2538.599048
423.859352	2537.283307
424.237866	2539.614841
424.616319	2536.446475
424.994712	2538.341949
425.373044	2538.846065
425.751314	2537.694161
426.129524	2537.283307
426.507673	2539.826569
426.885762	2537.033770
427.263789	2541.240613
427.641756	2538.757844
428.019662	2541.792619
428.397508	2539.597197
428.775292	2541.038967
429.153016	2540.408822
429.530679	2537.764737
429.908282	2539.791281
430.285824	2538.949408
430.663305	2541.853113
431.040726	2541.071734
431.418086	2541.948895
431.795385	2542.110212
432.172624	2540.749100
432.549802	2541.820345
432.926920	2540.993596
433.303977	2544.356046
433.680974	2541.873278
434.057910	2543.128525
434.434786	2543.751107
434.811601	2544.177085
435.188355	2544.482075
435.565050	2543.771272
435.941683	2546.669935
436.318257	2541.659028
436.694770	2540.469316
437.071222	2543.199101
437.447614	2544.146838
437.823946	2542.241282
438.200218	2545.180274
438.576429	2546.385110
438.952580	2543.413350
439.328670	2545.671787
439.704700	2546.427960
440.080670	2548.252858
440.456580	2545.868392
440.832429	2549.429967
441.208218	2549.273691
441.583947	2548.497354
441.959616	2551.360729
442.335224	2546.556509
442.710773	2547.385779
443.086261	2550.193702
443.461689	2547.317724
443.837057	2549.966850
444.212365	2548.255378
444.587612	2552.966337
444.962800	2551.655637
445.337927	2550.352498
445.712995	2551.159083
446.088002	2552.752088
446.462949	2556.359033
446.837837	2554.766028
447.212664	2556.069167
447.587431	2559.910526
447.962139	2561.029662
448.336786	2566.511917
448.711374	2567.273131
449.085901	2566.826989
449.460369	2567.174829
449.834776	2567.472257
450.209124	2574.739080
450.583412	2582.013465
450.957640	2583.578743
451.331808	2585.827098
451.705917	2585.315421
452.079965	2588.829105
452.453954	2597.169694
452.827883	2600.602720
453.201752	2606.820983
453.575562	2608.741663
453.949311	2618.513939
454.323001	2623.131636
454.696632	2631.126906
455.070202	2642.529996
455.443713	2655.271513
455.817164	2664.413645
456.190556	2674.874039
456.563888	2684.542972
456.937160	2694.902544
457.310373	2696.699715
457.683526	2708.690099
458.056619	2716.821481
458.429653	2726.339179
458.802628	2738.458113
459.175542	2752.212901
459.548398	2786.868313
459.921194	2809.757672
460.293930	2830.514623
460.666607	2889.226422
461.039224	2932.255190
461.411782	2960.407514
461.784280	2980.171358
462.156719	2988.920280
462.529099	3001.777743
462.901419	2992.446567
463.273680	3002.385202
463.645882	3023.409334
464.018024	3046.525545
464.390106	3084.268664
464.762130	3151.106802
465.134094	3248.786720
465.505999	3437.081378
465.877845	3646.337153
466.249631	3765.378960
466.621358	3746.255343
466.993026	3699.541491
467.364634	3696.998229
467.736184	3687.397351
468.107674	3686.189995
468.479105	3752.753390
468.850477	3747.989500
469.221790	3759.286726
469.593043	3743.144951
469.964238	3776.774488
470.335373	3826.722241
470.706449	3885.406312
471.077467	3938.955969
471.448425	4303.814520
471.819324	4630.269561
472.190164	4688.406667
472.560945	4444.256025
472.931667	4309.198472
473.302330	4327.981812
473.672934	4294.092655
474.043479	4451.694248
474.413965	4493.916432
474.784393	4526.018499
475.154761	4633.228718
475.525070	4730.061722
475.895321	4736.040530
476.265513	4859.135425
476.635645	4984.390454
477.005719	5067.632507
477.375734	5173.685781
477.745691	5335.476572
478.115588	5462.916942
478.485427	5649.167412
478.855207	5941.176248
479.224928	6388.808024
479.594591	6747.496203
479.964194	6756.973572
480.333739	6821.328942
480.703226	6897.034470
481.072653	7027.988523
481.442022	7249.101093
481.811333	7429.518948
482.180584	7431.847961
482.549777	7386.717031
482.918912	7378.084055
483.287988	7490.779049
483.657005	7576.589570
484.025964	7496.964545
484.394864	7660.983527
484.763706	7746.355467
485.132489	7680.268461
485.501213	7749.702793
485.869879	7873.778192
486.238487	7875.323306
486.607036	8010.615272
486.975527	7970.432235
487.343959	8164.322574
487.712333	8282.169627
488.080648	8307.052763
488.448905	8421.161800
488.817104	8452.555586
489.185244	8716.787665
489.553326	8910.940143
489.921350	9361.233649
490.289315	10184.630513
490.657222	10496.466207
491.025070	10531.817298
491.392861	10522.123160
491.760593	10342.353093
492.128267	10172.761116
492.495883	9992.544907
492.863440	9795.294639
493.230939	9604.943191
493.598380	9614.549109
493.965763	9570.658303
494.333088	9539.730824
494.700354	9541.228047
495.067563	9632.737592
495.434713	9549.538389
495.801805	9709.718532
496.168839	9689.049801
496.535815	9689.221201
496.902733	9733.101924
497.269593	9723.372497
497.636395	9848.761117
498.003139	9891.933558
498.369825	9806.405342
498.736453	9990.571295
499.103023	9958.655750
499.469535	10028.642089
499.835989	10051.284432
500.202385	10062.858921
500.568723	9951.711561
500.935003	10180.446355
501.301226	10043.967197
501.667390	10304.330190
502.033497	10428.481206
502.399546	10326.783489
502.765537	10264.492472
503.131470	10361.348161
503.497345	10546.035873
503.863163	10206.809069
504.228923	10518.032263
504.594625	10599.593091
504.960269	10389.024095
505.325856	10612.125400
505.691385	10435.775756
506.056856	10603.129461
506.422270	10643.625050
506.787625	10555.251102
507.152924	10677.665441
507.518164	10677.272231
507.883347	10605.834040
508.248472	10543.868177
508.613540	10786.025043
508.978550	10678.703919
509.343503	10674.378609
509.708398	10795.247834
510.073236	10917.929354
510.438016	10929.188771
510.802738	10892.262319
511.167403	10950.676689
511.532010	10848.086688
511.896561	11090.989645
512.261053	11167.506798
512.625488	11040.263034
512.989866	11025.570591
513.354186	11021.146979
513.718449	10931.227918
514.082655	11134.005811
514.446803	11023.165961
514.810894	11159.541775
515.174927	11026.477999
515.538904	11056.528317
515.902822	11205.622963
516.266684	11095.327558
516.630488	11038.554083
516.994235	11095.146076
517.357925	11155.760910
517.721558	11246.892369
518.085133	11273.933118
518.448651	11287.350149
518.812112	11170.347489
519.175516	11180.366782
519.538863	11304.222891
519.902152	11226.861344
520.265385	11386.040818
520.628560	11296.895574
520.991678	11283.544078
521.354739	11340.423417
521.717743	11278.669282
522.080690	11256.765468
522.443580	11389.773792
522.806413	11355.390602
523.169189	11386.126517
523.531908	11441.891761
523.894569	11262.426684
524.257174	11263.341654
524.619722	11386.980993
524.982213	11330.573002
525.344647	11388.344625
525.707025	11338.535504
526.069345	11434.715679
526.431608	11352.789367
526.793815	11455.951539
527.155964	11249.745662
527.518057	11308.961575
527.880093	11256.349573
528.242072	11314.234622
528.603995	11227.761190
528.965860	11144.221709
529.327669	11199.447549
529.689421	11154.493060
530.051117	11120.200611
530.412755	11230.831253
530.774337	11116.631474
531.135862	11102.546490
531.497331	11120.293872
531.858743	10972.666202
532.220098	11141.900258
532.581396	11011.566266
532.942638	10997.957671
533.303824	10962.460386
533.664953	10972.913219
534.026025	10888.310054
534.387040	10988.928965
534.747999	10985.498459
535.108902	11050.970445
535.469748	10812.705350
535.830537	10910.264279
536.191270	10886.308716
536.551947	10913.369630
536.912567	10914.730742
537.273131	10840.885400
537.633638	10817.736421
537.994089	10808.243928
538.354483	10756.095713
538.714821	10900.681046
539.075103	10909.303940
539.435328	10875.079546
539.795497	10701.356343
540.155609	10856.263439
540.515665	10944.647469
540.875665	10681.237098
541.235609	10750.411812
541.595496	10746.094063
541.955328	10902.526108
542.315102	10781.261153
542.674821	10736.168031
543.034483	10737.977806
543.394090	10739.079298
543.753640	10670.519605
544.113134	10892.968081
544.472571	10754.815259
544.831953	10886.366690
545.191278	10698.031702
545.550548	10722.486340
545.909761	10857.785868
546.268918	10835.564462
546.628019	10920.013871
546.987064	10780.492377
547.346053	10707.030162
547.704986	10804.395007
548.063863	10790.723398
548.422684	10785.578901
548.781449	10699.173524
549.140158	10801.869389
549.498811	10673.173773
549.857408	10538.489266
550.215949	10766.661971
550.574434	10613.191604
550.932864	10713.308919
551.291237	10767.266909
551.649555	10718.140865
552.007817	10735.555531
552.366022	10699.695283
552.724173	10690.926196
553.082267	10678.106542
553.440305	10813.461523
553.798288	10613.264701
554.156215	10765.620973
554.514086	10737.531663
554.871902	10589.868706
555.229661	10626.359098
555.587365	10605.897054
555.945014	10503.115489
556.302606	10625.040836
556.660143	10519.519404
557.017625	10667.852835
557.375050	10575.264483
557.732421	10706.677281
558.089735	10619.518252
558.446994	10623.992276
558.804197	10653.961936
559.161345	10652.840279
559.518437	10503.846456
559.875474	10597.342216
560.232455	10627.962185
560.589381	10575.239277
560.946251	10571.692825
561.303065	10675.175111
561.659825	10614.721594
562.016528	10542.675944
562.373177	10422.293190
562.729770	10533.012052
563.086307	10451.239495
563.442789	10544.173167
563.799216	10428.614797
564.155587	10468.477721
564.511904	10429.464231
564.868164	10420.551471
565.224370	10431.775600
565.580520	10355.785247
565.936615	10363.039468
566.292654	10233.617925
566.648638	10371.246466
567.004567	10319.257047
567.360441	10310.389657
567.716260	10218.476819
568.072023	10308.025356
568.427732	10268.643862
568.783385	10171.853708
569.138982	10239.201003
569.494525	10263.506926
569.850013	10135.275096
570.205445	10224.168282
570.560823	10108.937587
570.916145	10028.700062
571.271412	10097.315207
571.626625	10049.762003
571.981782	10023.343836
572.336884	9994.589095
572.691931	10003.385908
573.046923	9944.716960
573.401860	9905.007791
573.756743	9835.389456
574.111570	9887.003310
574.466342	9868.406493
574.821059	9900.725331
575.175722	9785.540007
575.530330	9799.335124
575.884882	9788.705851
576.239380	9717.197084
576.593823	9695.961223
576.948211	9714.386641
577.302544	9586.147248
577.656823	9609.225651
578.011047	9609.679355
578.365216	9584.818904
578.719330	9503.805042
579.073389	9520.322382
579.427394	9473.636256
579.781344	9442.149209
580.135239	9394.308659
580.489080	9400.438702
580.842866	9301.125451
581.196597	9306.408580
581.550273	9347.277215
581.903895	9317.239499
582.257463	9380.974807
582.610975	9263.087425
582.964434	9281.868243
583.317837	9211.345022
583.671186	9190.774593
584.024481	9188.133029
584.377721	9105.649670
584.730906	9082.200742
585.084037	9108.558415
585.437113	9048.656905
585.790135	9072.617509
586.143103	8969.737641
586.496016	8941.504659
586.848874	8999.283844
587.201679	8986.028130
587.554428	8879.294300
587.907124	8924.304242
588.259765	8894.006908
588.612352	8896.782063
588.964884	8774.045090
589.317362	8790.685939
589.669786	8790.201988
590.022155	8834.095315
590.374470	8851.346143
590.726731	8790.393552
591.078937	8641.450141
591.431090	8760.902802
591.783188	8627.556721
592.135232	8619.957182
592.487222	8616.105740
592.839157	8678.356428
593.191038	8604.894214
593.542866	8550.149804
593.894639	8449.888816
594.246358	8501.011157
594.598022	8518.728292
594.949633	8416.153414
595.301190	8391.613077
595.652692	8420.181296
596.004141	8527.232718
596.355535	8310.311868
596.706876	8287.724979
597.058162	8221.453970
597.409395	8297.159498
597.760573	8360.431020
598.111698	8269.675127
598.462768	8251.466480
598.813785	8218.262920
599.164748	8188.764608
599.515657	8174.152824
599.866511	8089.814320
600.217312	8221.229639
600.568060	8077.239162
600.918753	8176.449069
601.269392	8151.538208
601.619978	8061.135196
601.970510	8125.271275
602.320988	8124.469732
602.671412	8175.219028
603.021783	8116.358515
603.372100	8087.203002
603.722363	8094.038807
604.072572	8065.914209
604.422728	8079.573216
604.772830	8007.048656
605.122878	8013.952516
605.472872	8011.479830
605.822813	8043.294552
606.172701	7978.190571
606.522534	8057.409783
606.872314	8054.639669
607.222041	8029.890124
607.571714	8078.489368
607.921333	8039.516207
608.270899	8047.771097
608.620411	8135.028429
608.969870	8042.195581
609.319276	8034.265846
609.668627	8045.676497
610.017926	8083.502795
610.367171	8130.486349
610.716362	8106.074562
611.065500	8097.411339
611.414585	8126.629866
611.763616	8114.682332
612.112594	8098.107018
612.461518	8107.440714
612.810389	8171.657453
613.159207	8115.055377
613.507971	8060.678971
613.856682	8178.616765
614.205340	8136.281155
614.553945	8211.225469
614.902496	8111.541693
615.250994	8168.093357
615.599439	8145.249368
615.947830	8156.460894
616.296169	8127.144064
616.644454	8147.187692
616.992686	8146.151735
617.340864	8198.360444
617.688990	8104.350487
618.037063	8198.045372
618.385082	8139.497412
618.733048	8226.321204
619.080961	8164.259559
619.428821	8189.230915
619.776628	8191.391049
620.124382	8138.859706
620.472083	8128.759754
620.819731	8154.338568
621.167326	8047.637506
621.514868	8055.801655
621.862357	7936.855630
622.209793	7959.974361
622.557176	7903.357162
622.904506	7863.950463
623.251783	7798.435627
623.599007	7749.733040
623.946179	7757.045234
624.293297	7715.916980
624.640363	7630.542519
624.987376	7616.397042
625.334336	7564.263949
625.681243	7513.996083
626.028097	7499.848085
626.374899	7475.501833
626.721647	7473.687017
627.068343	7405.699496
627.414987	7377.688325
627.761577	7331.816345
628.108115	7365.501335
628.454600	7263.259173
628.801032	7320.685478
629.147412	7275.229393
629.493739	7261.396467
629.840014	7198.200563
630.186236	7256.710715
630.532405	7139.166130
630.878521	7189.890220
631.224585	7150.493603
631.570597	7072.943013
631.916556	7105.284535
632.262462	7097.518638
632.608316	7060.367855
632.954117	7043.888323
633.299866	7026.405601
633.645562	7023.070878
633.991206	6938.495440
634.336797	6882.016873
634.682336	6846.532191
635.027823	6810.896274
635.373257	6801.159286
635.718639	6730.676393
636.063968	6742.386993
636.409245	6641.165665
636.754470	6641.397558
637.099642	6597.627740
637.444762	6537.151538
637.789829	6554.183076
638.134845	6493.149827
638.479808	6476.075439
638.824719	6480.151212
639.169577	6405.262351
639.514383	6428.953253
639.859137	6362.241144
640.203839	6368.804726
640.548489	6352.383167
640.893086	6326.837120
641.237632	6303.350384
