Dividing Wavelength (nm)	Counts (n)	Blue Motor Position (mm): 3.800000	Red Motor Position (mm): 0.000000	
326.493990	2143.110447
326.888308	2143.110447
327.282561	2143.110447
327.676750	2109.395210
328.070874	2108.495364
328.464933	2112.762700
328.858929	2117.274533
329.252859	2131.268776
329.646726	2141.744294
330.040528	2154.342137
330.434265	2169.248829
330.827938	2189.718434
331.221547	2204.972966
331.615091	2225.306460
332.008571	2242.431260
332.401986	2263.347007
332.795338	2282.465583
333.188625	2300.661628
333.581847	2319.422282
333.975006	2339.523883
334.368100	2359.229753
334.761129	2375.857999
335.154095	2390.653786
335.546996	2409.795047
335.939833	2422.922211
336.332606	2438.481733
336.725315	2449.975563
337.117960	2457.191975
337.510540	2468.093470
337.903056	2480.537559
338.295508	2485.737509
338.687896	2492.386791
339.080220	2502.801815
339.472480	2508.460510
339.864676	2515.109792
340.256807	2518.711696
340.648875	2522.918539
341.040879	2524.002387
341.432818	2524.410721
341.824694	2527.120341
342.216506	2524.587161
342.608253	2528.675537
342.999937	2529.308202
343.391557	2524.932480
343.783113	2523.760412
344.174605	2524.067922
344.566033	2523.576410
344.957397	2522.313601
345.348697	2520.992818
345.739934	2519.225894
346.131106	2517.234638
346.522215	2517.408558
346.913260	2512.059894
347.304241	2514.129287
347.695159	2508.097547
348.086012	2510.492095
348.476802	2508.011847
348.867528	2504.329284
349.258191	2503.820128
349.648789	2506.093688
350.039324	2500.984479
350.429796	2499.194869
350.820203	2497.795949
351.210548	2497.831237
351.600828	2497.322080
351.991045	2497.007008
352.381198	2491.423930
352.771288	2491.577686
353.161314	2494.110865
353.551276	2494.297388
353.941175	2495.618170
354.331010	2496.308808
354.720782	2493.800834
355.110490	2493.556338
355.500135	2495.192193
355.889717	2493.863849
356.279235	2492.245638
356.668689	2495.497183
357.058080	2493.972234
357.447408	2492.006184
357.836672	2491.547439
358.225873	2495.560197
358.615010	2490.942500
359.004084	2499.063799
359.393095	2499.081443
359.782043	2500.248470
360.170927	2500.661845
360.559748	2500.303923
360.948505	2498.098418
361.337199	2502.370796
361.725830	2500.606392
362.114398	2500.714777
362.502903	2499.502379
362.891344	2501.113028
363.279722	2501.503718
363.668037	2501.571773
364.056289	2503.767196
364.444478	2502.748882
364.832603	2504.460354
365.220665	2503.626043
365.608665	2507.013699
365.996601	2504.064624
366.384474	2504.079747
366.772284	2506.174347
367.160031	2503.936074
367.547715	2504.329284
367.935336	2507.679131
368.322893	2508.498318
368.710388	2508.710047
369.097820	2511.162568
369.485189	2507.628719
369.872495	2507.631240
370.259738	2509.562002
370.646918	2506.285252
371.034035	2507.989162
371.421090	2509.100736
371.808081	2507.048987
372.195010	2509.201559
372.581875	2509.564523
372.968678	2508.967146
373.355418	2508.901611
373.742096	2510.963443
374.128710	2511.049142
374.515262	2510.809688
374.901751	2511.230624
375.288177	2510.940758
375.674540	2511.424708
376.060841	2513.652898
376.447079	2512.528721
376.833254	2514.013341
377.219367	2507.127125
377.605417	2507.777433
377.991404	2508.798267
378.377329	2511.563340
378.763191	2510.028309
379.148991	2515.936541
379.534727	2516.680111
379.920402	2513.718433
380.306013	2514.918228
380.691563	2515.719771
381.077049	2514.220028
381.462474	2515.860924
381.847835	2511.797754
382.233134	2513.249606
382.618371	2516.387724
383.003545	2515.588701
383.388657	2516.327230
383.773706	2517.373270
384.158693	2515.399658
384.543618	2517.201871
384.928480	2517.063239
385.313280	2516.430574
385.698017	2515.442508
386.082692	2519.863600
386.467305	2516.430574
386.851856	2519.190606
387.236344	2518.709176
387.620770	2518.489885
388.005133	2519.296470
388.389435	2517.648013
388.773674	2517.869823
389.157851	2519.409896
389.541965	2520.614732
389.926018	2516.730523
390.310008	2518.802437
390.693936	2520.216481
391.077802	2518.840246
391.461606	2520.254289
391.845348	2520.488703
392.229027	2521.350740
392.612645	2517.297653
392.996200	2519.742612
393.379694	2522.313601
393.763125	2521.920391
394.146494	2517.380832
394.529801	2523.689836
394.913047	2521.771677
395.296230	2523.750329
395.679351	2522.200175
396.062410	2522.122037
396.445408	2519.477952
396.828343	2522.621111
397.211217	2521.373425
397.594028	2521.522139
397.976778	2522.328724
398.359466	2520.834022
398.742092	2517.322858
399.124656	2524.302336
399.507158	2521.481810
399.889598	2523.798220
400.271977	2523.253776
400.654294	2524.987933
401.036549	2523.392408
401.418742	2525.728982
401.800874	2524.332583
402.182944	2523.384846
402.564952	2527.889117
402.946898	2527.473222
403.328783	2525.459281
403.710606	2525.665968
404.092367	2526.548170
404.474067	2527.022038
404.855705	2525.918026
405.237282	2527.500948
405.618797	2528.841895
406.000250	2525.877696
406.381642	2526.434744
406.762972	2529.973634
407.144240	2524.700587
407.525447	2530.268541
407.906593	2527.939528
408.287677	2526.094466
408.668700	2529.262831
409.049661	2528.115969
409.430560	2530.374406
409.811399	2529.827440
410.192176	2529.363654
410.572891	2528.604961
410.953545	2527.616894
411.334138	2528.763757
411.714669	2532.088398
412.095139	2530.407173
412.475547	2530.127389
412.855894	2528.829292
413.236180	2528.768798
413.616405	2530.064375
413.996568	2527.725279
414.376670	2530.674354
414.756711	2529.472039
415.136691	2531.332225
415.516609	2530.409694
415.896466	2532.022863
416.276262	2531.206196
416.655997	2528.010104
417.035670	2525.701256
417.415283	2530.422297
417.794834	2526.006246
418.174324	2529.645959
418.553753	2530.339117
418.933121	2529.293078
419.312428	2531.342307
419.691674	2531.773326
420.070859	2535.619726
420.449983	2531.846422
420.829045	2531.639735
421.208047	2533.328522
421.586988	2531.833820
421.965867	2534.286341
422.344686	2532.670651
422.723444	2532.337935
423.102141	2531.498583
423.480777	2533.802390
423.859352	2532.920188
424.237866	2534.303985
424.616319	2533.290713
424.994712	2532.166536
425.373044	2534.777853
425.751314	2536.721218
426.129524	2535.385313
426.507673	2534.941691
426.885762	2537.235416
427.263789	2537.076620
427.641756	2533.525127
428.019662	2536.328008
428.397508	2535.675179
428.775292	2534.767771
429.153016	2535.183666
429.530679	2535.677699
429.908282	2533.021011
430.285824	2535.493697
430.663305	2533.908254
431.040726	2536.794315
431.418086	2537.555529
431.795385	2534.755168
432.172624	2538.359593
432.549802	2535.960004
432.926920	2539.231713
433.303977	2536.978317
433.680974	2535.846578
434.057910	2537.875642
434.434786	2537.648791
434.811601	2537.028729
435.188355	2536.522093
435.565050	2536.716177
435.941683	2537.343801
436.318257	2535.231557
436.694770	2533.446989
437.071222	2535.042514
437.447614	2533.084026
437.823946	2536.645601
438.200218	2534.598892
438.576429	2539.045190
438.952580	2535.826413
439.328670	2542.221117
439.704700	2536.385982
440.080670	2536.501928
440.456580	2538.072247
440.832429	2537.764737
441.208218	2538.059645
441.583947	2538.039480
441.959616	2538.536034
442.335224	2540.731456
442.710773	2537.827752
443.086261	2539.110725
443.461689	2539.428318
443.837057	2537.933616
444.212365	2540.895294
444.587612	2540.862526
444.962800	2540.476878
445.337927	2540.854964
445.712995	2538.699871
446.088002	2541.036446
446.462949	2541.220448
446.837837	2540.905376
447.212664	2539.398071
447.587431	2542.828576
447.962139	2542.190870
448.336786	2541.926210
448.711374	2540.504604
449.085901	2541.560726
449.460369	2538.548637
449.834776	2539.826569
450.209124	2539.884542
450.583412	2541.129707
450.957640	2538.488143
451.331808	2540.282793
451.705917	2541.989224
452.079965	2542.798329
452.453954	2541.608617
452.827883	2541.928730
453.201752	2539.761034
453.575562	2541.331353
453.949311	2543.347815
454.323001	2541.296065
454.696632	2541.550644
455.070202	2544.630789
455.443713	2540.363452
455.817164	2540.822197
456.190556	2538.825900
456.563888	2538.581404
456.937160	2535.750796
457.310373	2540.010571
457.683526	2543.751107
458.056619	2542.402599
458.429653	2541.948895
458.802628	2543.403268
459.175542	2544.101468
459.548398	2540.902855
459.921194	2542.190870
460.293930	2544.028371
460.666607	2543.186498
461.039224	2541.326312
461.411782	2539.690458
461.784280	2542.556354
462.156719	2542.155582
462.529099	2542.362269
462.901419	2543.224307
463.273680	2545.518032
463.645882	2543.015099
464.018024	2542.488298
464.390106	2541.510314
464.762130	2542.604245
465.134094	2541.164995
465.505999	2545.465100
465.877845	2544.424101
466.249631	2544.600542
466.621358	2545.069369
466.993026	2546.629606
467.364634	2546.397713
467.736184	2546.339740
468.107674	2542.548792
468.479105	2544.338402
468.850477	2545.202960
469.221790	2543.123484
469.593043	2546.128011
469.964238	2541.285983
470.335373	2542.563916
470.706449	2545.666746
471.077467	2542.614327
471.448425	2545.550799
471.819324	2544.434184
472.190164	2547.325285
472.560945	2547.335368
472.931667	2546.339740
473.302330	2543.521735
473.672934	2548.048691
474.043479	2547.446273
474.413965	2545.341591
474.784393	2541.187681
475.154761	2541.822866
475.525070	2544.938299
475.895321	2544.870243
476.265513	2541.313709
476.635645	2547.746222
477.005719	2547.171530
477.375734	2547.032898
477.745691	2547.642878
478.115588	2546.407795
478.485427	2545.419729
478.855207	2546.329658
479.224928	2544.277908
479.594591	2545.371838
479.964194	2544.267826
480.333739	2545.250851
480.703226	2547.305121
481.072653	2548.610780
481.442022	2544.847558
481.811333	2547.685728
482.180584	2544.146838
482.549777	2545.752445
482.918912	2548.373845
483.287988	2546.848896
483.657005	2548.983825
484.025964	2547.337888
484.394864	2546.710265
484.763706	2548.575492
485.132489	2550.196222
485.501213	2545.442414
485.869879	2546.576674
486.238487	2544.892929
486.607036	2546.236396
486.975527	2546.128011
487.343959	2546.052394
487.712333	2549.142621
488.080648	2548.091541
488.448905	2549.276212
488.817104	2548.512477
489.185244	2546.869061
489.553326	2549.049360
489.921350	2545.447456
490.289315	2548.099102
490.657222	2550.075235
491.025070	2549.888712
491.392861	2547.945347
491.760593	2545.949050
492.128267	2548.109185
492.495883	2548.830070
492.863440	2550.062632
493.230939	2547.234545
493.598380	2547.201777
493.965763	2544.560212
494.333088	2545.686910
494.700354	2545.109698
495.067563	2546.750594
495.434713	2543.347815
495.801805	2545.472661
496.168839	2548.164637
496.535815	2550.881819
496.902733	2548.983825
497.269593	2546.299411
497.636395	2548.267981
498.003139	2547.471479
498.369825	2546.377548
498.736453	2547.988197
499.103023	2550.450801
499.469535	2548.739329
499.835989	2549.283774
500.202385	2550.274360
500.568723	2549.278733
500.935003	2548.822508
501.301226	2549.238403
501.667390	2548.086500
502.033497	2546.793444
502.399546	2549.150183
502.765537	2548.772097
503.131470	2545.644061
503.497345	2550.536500
503.863163	2550.844011
504.228923	2546.707744
504.594625	2548.169679
504.960269	2548.361243
505.325856	2548.020965
505.691385	2550.402910
506.056856	2550.052550
506.422270	2551.280071
506.787625	2550.629762
507.152924	2548.746891
507.518164	2551.048178
507.883347	2548.288146
508.248472	2548.696479
508.613540	2549.119936
508.978550	2550.286963
509.343503	2551.355688
509.708398	2550.130687
510.073236	2549.152704
510.438016	2552.172355
510.802738	2545.157589
511.167403	2549.654298
511.532010	2550.002138
511.896561	2548.252858
512.261053	2552.048847
512.625488	2547.746222
512.989866	2545.301262
513.354186	2547.524411
513.718449	2544.179605
514.082655	2545.553320
514.446803	2552.207643
514.810894	2549.634134
515.174927	2549.467776
515.538904	2548.928372
515.902822	2550.579350
516.266684	2548.020965
516.630488	2546.440563
516.994235	2548.603218
517.357925	2548.325954
517.721558	2549.530790
518.085133	2547.683207
518.448651	2550.692776
518.812112	2549.349309
519.175516	2548.426778
519.538863	2549.137580
519.902152	2549.699669
520.265385	2548.651109
520.628560	2552.142108
520.991678	2550.806202
521.354739	2551.254865
521.717743	2552.202602
522.080690	2550.183620
522.443580	2547.829401
522.806413	2550.032385
523.169189	2552.046326
523.531908	2551.945503
523.894569	2550.836449
524.257174	2552.003476
524.619722	2549.757642
524.982213	2552.351316
525.344647	2549.747560
525.707025	2549.845862
526.069345	2551.043136
526.431608	2551.738816
526.793815	2549.165307
527.155964	2553.246121
527.518057	2550.327293
527.880093	2550.251675
528.242072	2550.866696
528.603995	2550.269319
528.965860	2549.303938
529.327669	2552.772252
529.689421	2550.536500
530.051117	2552.449618
530.412755	2551.567416
530.774337	2548.774617
531.135862	2553.074721
531.497331	2550.604556
531.858743	2545.437373
532.220098	2549.601366
532.581396	2547.859648
532.942638	2545.417209
533.303824	2547.937786
533.664953	2551.668239
534.026025	2550.433157
534.387040	2553.208312
534.747999	2552.346275
535.108902	2552.492468
535.469748	2551.166645
535.830537	2551.900132
536.191270	2549.634134
536.551947	2549.061963
536.912567	2550.234031
537.273131	2550.087838
537.633638	2553.480534
537.994089	2552.028682
538.354483	2549.492982
538.714821	2551.572458
539.075103	2547.587425
539.435328	2551.348126
539.795497	2551.141439
540.155609	2551.781665
540.515665	2553.593960
540.875665	2551.650595
541.235609	2553.520863
541.595496	2552.454659
541.955328	2548.595656
542.315102	2552.101779
542.674821	2549.208156
543.034483	2550.680173
543.394090	2552.951213
543.753640	2552.253013
544.113134	2551.262427
544.472571	2551.900132
544.831953	2553.452808
545.191278	2550.692776
545.550548	2551.804351
545.909761	2551.338044
546.268918	2552.089176
546.628019	2551.532128
546.987064	2550.244113
547.346053	2551.756460
547.704986	2551.199412
548.063863	2551.852242
548.422684	2551.945503
548.781449	2553.309135
549.140158	2552.956254
549.498811	2553.838456
549.857408	2551.968188
550.215949	2549.606407
550.574434	2546.140614
550.932864	2549.399720
551.291237	2543.995603
551.649555	2553.919115
552.007817	2551.123795
552.366022	2553.094886
552.724173	2550.526418
553.082267	2551.519525
553.440305	2553.757798
553.798288	2551.582540
554.156215	2550.798640
554.514086	2552.794937
554.871902	2550.944834
555.229661	2552.779814
555.587365	2550.975081
555.945014	2550.576830
556.302606	2551.269988
556.660143	2551.985832
557.017625	2550.355019
557.375050	2552.631100
557.732421	2549.225800
558.089735	2552.928528
558.446994	2549.387117
558.804197	2551.083466
559.161345	2553.702345
559.518437	2553.107489
559.875474	2551.307797
560.232455	2550.944834
560.589381	2551.590102
560.946251	2555.822150
561.303065	2553.115051
561.659825	2554.516491
562.016528	2551.504402
562.373177	2551.655637
562.729770	2553.896429
563.086307	2550.632282
563.442789	2551.474155
563.799216	2552.295863
564.155587	2550.609597
564.511904	2549.172868
564.868164	2554.418189
565.224370	2552.331151
565.580520	2552.757129
565.936615	2551.915256
566.292654	2550.730585
566.648638	2554.793755
567.004567	2551.940462
567.360441	2551.615307
567.716260	2552.137067
568.072023	2552.114382
568.427732	2550.218908
568.783385	2548.890564
569.138982	2546.203629
569.494525	2547.998279
569.850013	2547.902498
570.205445	2554.592109
570.560823	2552.169834
570.916145	2552.265616
571.271412	2550.309648
571.626625	2549.792930
571.981782	2548.951058
572.336884	2551.653116
572.691931	2551.262427
573.046923	2551.053219
573.401860	2554.009855
573.756743	2552.041285
574.111570	2552.434495
574.466342	2551.892571
574.821059	2552.346275
575.175722	2553.271326
575.530330	2552.527756
575.884882	2551.063301
576.239380	2552.003476
576.593823	2552.628579
576.948211	2551.451470
577.302544	2552.883158
577.656823	2550.274360
578.011047	2554.685370
578.365216	2552.575647
578.719330	2552.016079
579.073389	2552.051367
579.427394	2550.085317
579.781344	2550.539021
580.135239	2551.612787
580.489080	2551.955585
580.842866	2553.475493
581.196597	2555.660833
581.550273	2554.758467
581.903895	2550.647406
582.257463	2553.183106
582.610975	2552.121943
582.964434	2550.546583
583.317837	2554.483724
583.671186	2553.331820
584.024481	2551.607746
584.377721	2551.569937
584.730906	2552.860472
585.084037	2551.496840
585.437113	2548.358722
585.790135	2552.046326
586.143103	2555.139074
586.496016	2553.220915
586.848874	2549.485420
587.201679	2549.619010
587.554428	2548.681356
587.907124	2549.276212
588.259765	2545.243289
588.612352	2553.402396
588.964884	2553.334341
589.317362	2553.843497
589.669786	2553.334341
590.022155	2554.062788
590.374470	2553.173024
590.726731	2550.712941
591.078937	2550.123126
591.431090	2553.273847
591.783188	2553.614125
592.135232	2551.368291
592.487222	2552.237890
592.839157	2552.492468
593.191038	2551.176727
593.542866	2555.539846
593.894639	2552.651264
594.246358	2554.642520
594.598022	2551.897612
594.949633	2551.675801
595.301190	2552.026161
595.652692	2553.563713
596.004141	2551.418702
596.355535	2555.267623
596.706876	2551.116233
597.058162	2553.677139
597.409395	2551.552293
597.760573	2551.874927
598.111698	2548.681356
598.462768	2554.892057
598.813785	2551.229659
599.164748	2553.359547
599.515657	2555.484393
599.866511	2550.869217
600.217312	2549.601366
600.568060	2552.489947
600.918753	2554.100596
601.269392	2551.499361
601.619978	2547.438711
601.970510	2552.021120
602.320988	2554.869372
602.671412	2552.918446
603.021783	2554.156049
603.372100	2554.627397
603.722363	2552.895760
604.072572	2553.052036
604.422728	2553.175544
604.772830	2551.287632
605.122878	2548.071376
605.472872	2551.068342
605.822813	2547.975594
606.172701	2552.187478
606.522534	2550.284443
606.872314	2554.186296
607.222041	2552.147149
607.571714	2553.205791
607.921333	2551.431305
608.270899	2550.365101
608.620411	2552.855431
608.969870	2553.911553
609.319276	2553.399876
609.668627	2556.049002
610.017926	2559.108982
610.367171	2558.758622
610.716362	2558.015052
611.065500	2560.427244
611.414585	2555.736451
611.763616	2552.356357
612.112594	2554.519012
612.461518	2555.507078
612.810389	2552.880637
613.159207	2554.569423
613.507971	2552.290822
613.856682	2552.404248
614.205340	2550.896943
614.553945	2555.118909
614.902496	2552.139587
615.250994	2553.442726
615.599439	2551.174206
615.947830	2552.419371
616.296169	2552.343754
616.644454	2552.840308
616.992686	2551.927859
617.340864	2550.357539
617.688990	2552.618497
618.037063	2550.385266
618.385082	2552.230328
618.733048	2552.232849
619.080961	2552.837787
619.428821	2551.632951
619.776628	2551.151521
620.124382	2554.496327
620.472083	2552.623538
620.819731	2553.309135
621.167326	2551.262427
621.514868	2554.546738
621.862357	2550.549103
622.209793	2552.517674
622.557176	2552.348795
622.904506	2549.286294
623.251783	2550.034906
623.599007	2553.276368
623.946179	2552.195040
624.293297	2548.890564
624.640363	2552.827705
624.987376	2552.653785
625.334336	2553.097407
625.681243	2554.574465
626.028097	2551.184289
626.374899	2552.621017
626.721647	2552.404248
627.068343	2550.029864
627.414987	2552.484906
627.761577	2553.173024
628.108115	2551.819474
628.454600	2551.282591
628.801032	2554.450956
629.147412	2551.547252
629.493739	2553.407438
629.840014	2555.108827
630.186236	2551.917777
630.532405	2550.896943
630.878521	2552.671429
631.224585	2551.756460
631.570597	2554.080432
631.916556	2553.571275
632.262462	2550.249155
632.608316	2551.620348
632.954117	2549.626572
633.299866	2553.689742
633.645562	2550.357539
633.991206	2554.834084
634.336797	2549.581202
634.682336	2553.631769
635.027823	2549.064483
635.373257	2549.984494
635.718639	2549.805533
636.063968	2550.846531
636.409245	2550.503733
636.754470	2552.326110
637.099642	2552.036244
637.444762	2551.774104
637.789829	2552.595812
638.134845	2551.343085
638.479808	2552.686552
638.824719	2551.277550
639.169577	2552.610935
639.514383	2552.883157
639.859137	2550.546583
640.203839	2552.774773
640.548489	2551.083466
640.893086	2548.835111
641.237632	2548.174720
641.582125	2549.160265
641.926566	2548.081458
642.270955	2551.522046
642.615292	2552.847869
642.959576	2550.692776
643.303809	2552.860472
643.647990	2553.367108
643.992118	2550.990204
644.336195	2552.028682
