Dividing Wavelength (nm)	Counts (n)	Blue Motor Position (mm): 44.300000	Red Motor Position (mm): 0.000000	
326.493990	2129.514455
326.888308	2129.514455
327.282561	2129.514455
327.676750	2096.275607
328.070874	2094.463312
328.464933	2098.181163
328.858929	2104.817842
329.252859	2115.495006
329.646726	2125.141254
330.040528	2138.848151
330.434265	2157.906233
330.827938	2173.551454
331.221547	2189.171469
331.615091	2211.675180
332.008571	2227.988354
332.401986	2250.441653
332.795338	2266.565784
333.188625	2287.315173
333.581847	2306.622792
333.975006	2325.915288
334.368100	2341.527741
334.761129	2360.951307
335.154095	2376.679707
335.546996	2397.897924
335.939833	2425.392377
336.332606	2438.937957
336.725315	2450.588064
337.117960	2462.520475
337.510540	2469.235292
337.903056	2479.229379
338.295508	2485.924032
338.687896	2498.998264
339.080220	2502.912720
339.472480	2508.609224
339.864676	2515.195491
340.256807	2521.297808
340.648875	2523.256296
341.040879	2525.698735
341.432818	2527.889117
341.824694	2528.670496
342.216506	2529.325846
342.608253	2529.257790
342.999937	2530.568490
343.391557	2528.456247
343.783113	2524.443488
344.174605	2527.700073
344.566033	2524.272089
344.957397	2522.845442
345.348697	2522.406862
345.739934	2519.069618
346.131106	2519.634227
346.522215	2516.173475
346.913260	2512.432939
347.304241	2513.378155
347.695159	2512.138032
348.086012	2509.602331
348.476802	2507.268277
348.867528	2507.001096
349.258191	2505.309789
349.648789	2505.798781
350.039324	2502.078409
350.429796	2502.650580
350.820203	2497.904334
351.210548	2499.396515
351.600828	2499.593120
351.991045	2499.204951
352.381198	2499.378871
352.771288	2496.797800
353.161314	2494.917450
353.551276	2495.169508
353.941175	2497.458192
354.331010	2498.723521
354.720782	2497.584220
355.110490	2496.664210
355.500135	2496.603716
355.889717	2495.713952
356.279235	2497.990033
356.668689	2498.257214
357.058080	2497.105311
357.447408	2496.802842
357.836672	2497.823675
358.225873	2496.679333
358.615010	2492.979126
359.004084	2500.561022
359.393095	2498.925167
359.782043	2500.487925
360.170927	2500.687051
360.559748	2502.998420
360.948505	2503.242916
361.337199	2503.126969
361.725830	2504.009171
362.114398	2506.955725
362.502903	2508.241220
362.891344	2507.454800
363.279722	2507.046466
363.668037	2508.289111
364.056289	2509.136024
364.444478	2507.459841
364.832603	2508.054697
365.220665	2507.550582
365.608665	2511.407064
365.996601	2509.509070
366.384474	2511.427229
366.772284	2512.891684
367.160031	2510.028309
367.547715	2511.820439
367.935336	2512.579133
368.322893	2513.778927
368.710388	2512.022085
369.097820	2515.455111
369.485189	2513.899915
369.872495	2514.209946
370.259738	2516.173475
370.646918	2515.185409
371.034035	2517.690863
371.421090	2517.353105
371.808081	2513.700789
372.195010	2517.837056
372.581875	2518.356295
372.968678	2519.457787
373.355418	2518.689011
373.742096	2519.460307
374.128710	2521.237314
374.515262	2518.568023
374.901751	2520.435771
375.288177	2522.434588
375.674540	2527.271575
376.060841	2523.888961
376.447079	2525.734023
376.833254	2530.598737
377.219367	2532.363141
377.605417	2541.943854
377.991404	2540.867567
378.377329	2548.711603
378.763191	2556.779969
379.148991	2570.015519
379.534727	2578.875347
379.920402	2590.457398
380.306013	2602.357041
380.691563	2621.425206
381.077049	2633.644963
381.462474	2648.007210
381.847835	2666.624191
382.233134	2685.644465
382.618371	2697.728110
383.003545	2729.305898
383.388657	2745.273753
383.773706	2775.671911
384.158693	2795.433234
384.543618	2820.848211
384.928480	2852.685618
385.313280	2890.501833
385.698017	2908.503794
386.082692	2952.505505
386.467305	2976.876963
386.851856	3014.090761
387.236344	3043.480688
387.620770	3081.803540
388.005133	3122.699900
388.389435	3157.751043
388.773674	3188.229859
389.157851	3238.031418
389.541965	3272.898558
389.926018	3270.677930
390.310008	3340.278621
390.693936	3376.262377
391.077802	3427.974533
391.461606	3445.568160
391.845348	3511.307327
392.229027	3530.418341
392.612645	3559.425140
392.996200	3641.691730
393.379694	3692.493958
393.763125	3768.673354
394.146494	3759.400152
394.529801	3827.899350
394.913047	3892.355543
395.296230	3875.931464
395.679351	3942.935960
396.062410	3977.177998
396.445408	3975.103563
396.828343	4017.358514
397.211217	4050.045356
397.594028	3983.101353
397.976778	4057.939803
398.359466	4094.803240
398.742092	4129.892192
399.124656	4058.678332
399.507158	4143.336949
399.889598	4171.872400
400.271977	4237.535950
400.654294	4214.639029
401.036549	4225.840473
401.418742	4195.273437
401.800874	4301.392246
402.182944	4326.429136
402.564952	4392.566554
402.946898	4380.606417
403.328783	4378.229513
403.710606	4292.683652
404.092367	4485.061645
404.474067	4450.360862
404.855705	4463.137667
405.237282	4392.982449
405.618797	4497.951875
406.000250	4535.286661
406.381642	4615.060400
406.762972	4572.727310
407.144240	4585.395730
407.525447	4586.262808
407.906593	4646.272704
408.287677	4689.364487
408.668700	4618.415287
409.049661	4664.841794
409.430560	4708.939287
409.811399	4634.738544
410.192176	4800.055622
410.572891	4737.532712
410.953545	4841.466181
411.334138	4721.728694
411.714669	4792.279642
412.095139	4683.678065
412.475547	4830.330272
412.855894	4805.850429
413.236180	4817.011543
413.616405	4769.957413
413.996568	4860.471331
414.376670	4799.329696
414.756711	4753.611472
415.136691	4786.358807
415.516609	4862.732288
415.896466	4900.755191
416.276262	4938.667188
416.655997	4916.748252
417.035670	5098.244913
417.415283	5190.167833
417.794834	5129.006034
418.174324	5087.855095
418.553753	4995.183564
418.933121	5178.172408
419.312428	5245.698663
419.691674	5186.699519
420.070859	5315.926978
420.449983	5223.613368
420.829045	5337.916491
421.208047	5246.570783
421.586988	5318.482843
421.965867	5327.193957
422.344686	5463.229493
422.723444	5318.495446
423.102141	5135.244462
423.480777	5431.281181
423.859352	5203.917580
424.237866	5458.780675
424.616319	5448.907575
424.994712	5559.818001
425.373044	5440.022541
425.751314	5580.408594
426.129524	5381.386360
426.507673	5577.179735
426.885762	5661.319113
427.263789	5592.540130
427.641756	5475.171987
428.019662	5595.138845
428.397508	5602.773673
428.775292	5549.130755
429.153016	5652.552546
429.530679	5577.991360
429.908282	5665.747767
430.285824	5537.420154
430.663305	5807.192461
431.040726	5540.931318
431.418086	5541.455598
431.795385	5646.246063
432.172624	5660.043701
432.549802	5654.087578
432.926920	5667.025699
433.303977	5668.585936
433.680974	5712.701073
434.057910	5733.387448
434.434786	5737.634620
434.811601	5705.252769
435.188355	5942.058450
435.565050	5812.294109
435.941683	5792.053876
436.318257	6009.110837
436.694770	5997.047356
437.071222	6025.272777
437.447614	5963.412778
437.823946	5873.564293
438.200218	6027.264032
438.576429	5895.203446
438.952580	5994.481409
439.328670	6033.764600
439.704700	5943.371671
440.080670	5928.172592
440.456580	6201.456062
440.832429	6083.208237
441.208218	5928.744763
441.583947	6084.322332
441.959616	6087.309216
442.335224	6014.288102
442.710773	6153.434031
443.086261	6178.435633
443.461689	5970.079704
443.837057	6122.723322
444.212365	6273.486589
444.587612	6165.376524
444.962800	6320.709598
445.337927	6303.715868
445.712995	5915.930150
446.088002	6490.641853
446.462949	6322.877294
446.837837	6255.751810
447.212664	6424.451503
447.587431	6570.622279
447.962139	7112.448015
448.336786	8039.906897
448.711374	7777.943337
449.085901	6856.024683
449.460369	6772.696931
449.834776	6708.765018
450.209124	7096.762465
450.583412	7250.893223
450.957640	7393.998978
451.331808	7161.178329
451.705917	6712.485389
452.079965	6631.622761
452.453954	6846.270051
452.827883	6724.110290
453.201752	6816.713766
453.575562	6618.367047
453.949311	6821.170146
454.323001	6713.123095
454.696632	6782.091121
455.070202	6921.703356
455.443713	7075.682880
455.817164	7177.723396
456.190556	7261.391426
456.563888	7337.013775
456.937160	7379.271247
457.310373	7031.678648
457.683526	7060.372896
458.056619	6948.761750
458.429653	6938.843279
458.802628	6876.237190
459.175542	6979.563200
459.548398	7338.427818
459.921194	7499.631316
460.293930	7503.371852
460.666607	8028.579424
461.039224	8334.862288
461.411782	8466.128893
461.784280	8482.343764
462.156719	8367.833954
462.529099	8257.213395
462.901419	7843.261567
463.273680	7732.734269
463.645882	7747.608194
464.018024	7617.170859
464.390106	7777.008203
464.762130	8160.708066
465.134094	8633.104511
465.505999	9660.718517
465.877845	10883.127748
466.249631	11532.602283
466.621358	11143.231122
466.993026	10513.046562
467.364634	10261.566082
467.736184	9899.951514
468.107674	9568.130165
468.479105	9599.483621
468.850477	9362.972847
469.221790	9135.505903
469.593043	8802.835120
469.964238	8665.375457
470.335373	8678.802571
470.706449	8736.768278
471.077467	8719.920742
471.448425	10029.098313
471.819324	11095.660274
472.190164	11122.948040
472.560945	9876.298420
472.931667	9081.515146
473.302330	8952.242317
473.672934	8594.645548
474.043479	8954.939334
474.413965	8895.678050
474.784393	8781.407695
475.154761	8935.969472
475.525070	9026.306949
475.895321	8846.463786
476.265513	9032.782311
476.635645	9192.728041
477.005719	9194.822640
477.375734	9309.450917
477.745691	9547.027895
478.115588	9675.862143
478.485427	9926.919166
478.855207	10460.795002
479.224928	11271.520926
479.594591	11907.187741
479.964194	11713.831764
480.333739	11653.020325
480.703226	11570.015207
481.072653	11660.398054
481.442022	11900.178016
481.811333	12084.855646
482.180584	11890.894731
482.549777	11602.535690
482.918912	11429.125039
483.287988	11446.670775
483.657005	11452.989861
484.025964	11138.283230
484.394864	11270.792479
484.763706	11245.919426
485.132489	10998.461787
485.501213	10964.444080
485.869879	11038.526357
486.238487	10879.593899
486.607036	10989.617082
486.975527	10777.616398
487.343959	10964.643206
487.712333	11012.201451
488.080648	10940.682602
488.448905	10983.776905
488.817104	10922.662997
489.185244	11191.757269
489.553326	11346.472801
489.921350	11878.180941
490.289315	12945.466307
490.657222	13288.242084
491.025070	13201.927448
491.392861	13074.038416
491.760593	12687.994416
492.128267	12338.574399
492.495883	12003.922442
492.863440	11672.665702
493.230939	11335.992242
493.598380	11269.527149
493.965763	11137.345575
494.333088	11037.901254
494.700354	10963.191354
495.067563	11019.342246
495.434713	10849.097439
495.801805	10976.074022
496.168839	10898.162990
496.535815	10842.077633
496.902733	10842.687612
497.269593	10772.965934
497.636395	10873.375636
498.003139	10856.550785
498.369825	10730.869779
498.736453	10881.433921
499.103023	10820.408233
499.469535	10839.355409
499.835989	10826.238327
500.202385	10791.582915
500.568723	10646.674948
500.935003	10865.269461
501.301226	10672.130254
501.667390	10930.930490
502.033497	11030.216015
502.399546	10880.491225
502.765537	10791.572833
503.131470	10871.137364
503.497345	11043.517099
503.863163	10652.636112
504.228923	10961.328647
504.594625	11025.237875
504.960269	10771.940059
505.325856	10993.496250
505.691385	10788.974118
506.056856	10940.322159
506.422270	10966.604215
506.787625	10856.999448
507.152924	10973.026645
507.518164	10958.959305
507.883347	10872.473270
508.248472	10792.792792
508.613540	11027.869357
508.978550	10910.571790
509.343503	10890.220652
509.708398	11007.021666
510.073236	11123.270673
510.438016	11128.372321
510.802738	11072.062633
511.167403	11120.180446
511.532010	11020.970538
511.896561	11256.848648
512.261053	11324.624440
512.625488	11202.668847
512.989866	11186.753924
513.354186	11170.667602
513.718449	11067.913763
514.082655	11258.245047
514.446803	11155.682772
514.810894	11277.923191
515.174927	11136.007149
515.538904	11164.887919
515.902822	11318.577576
516.266684	11204.430730
516.630488	11147.077522
516.994235	11199.974350
517.357925	11259.737229
517.721558	11350.563698
518.085133	11366.776048
518.448651	11376.974302
518.812112	11258.323185
519.175516	11274.661565
519.538863	11395.271170
519.902152	11313.612040
520.265385	11476.005249
520.628560	11385.516538
520.991678	11369.110102
521.354739	11433.452870
521.717743	11357.971673
522.080690	11342.951555
522.443580	11474.757564
522.806413	11429.873650
523.169189	11470.102058
523.531908	11523.235820
523.894569	11342.094559
524.257174	11347.884324
524.619722	11465.771707
524.982213	11412.264900
525.344647	11456.380037
525.707025	11410.702142
526.069345	11509.050013
526.431608	11419.745972
526.793815	11533.910463
527.155964	11318.834675
527.518057	11374.040351
527.880093	11322.786940
528.242072	11395.094730
528.603995	11297.971860
528.965860	11216.728625
529.327669	11273.386153
529.689421	11222.132742
530.051117	11192.389934
530.412755	11282.755137
530.774337	11182.060610
531.135862	11162.816005
531.497331	11187.522700
531.858743	11038.546521
532.220098	11207.407531
532.581396	11072.249155
532.942638	11062.164327
533.303824	11016.655311
533.664953	11038.695235
534.026025	10945.363313
534.387040	11044.094311
534.747999	11053.715353
535.108902	11104.751995
535.469748	10872.289268
535.830537	10978.085443
536.191270	10956.678183
536.551947	10972.159566
536.912567	10977.019239
537.273131	10903.103320
537.633638	10874.167097
537.994089	10861.428102
538.354483	10817.527213
538.714821	10958.586260
539.075103	10966.533639
539.435328	10931.127095
539.795497	10763.899419
540.155609	10923.179716
540.515665	11006.202478
540.875665	10740.228681
541.235609	10809.347941
541.595496	10802.522219
541.955328	10959.889398
542.315102	10844.656183
542.674821	10788.570826
543.034483	10790.047884
543.394090	10792.034098
543.753640	10724.044056
544.113134	10947.233581
544.472571	10800.026848
544.831953	10941.065729
545.191278	10751.437686
545.550548	10775.141192
545.909761	10920.719633
546.268918	10892.857175
546.628019	10970.054885
546.987064	10837.505306
547.346053	10756.347770
547.704986	10854.499036
548.063863	10851.567605
548.422684	10839.052940
548.781449	10752.697975
549.140158	10856.691937
549.498811	10732.578730
549.857408	10590.488768
550.215949	10818.905969
550.574434	10673.173773
550.932864	10771.937538
551.291237	10832.953144
551.649555	10773.827971
552.007817	10792.180292
552.366022	10748.891904
552.724173	10746.782181
553.082267	10731.510005
553.440305	10868.825995
553.798288	10668.170428
554.156215	10824.662967
554.514086	10799.868051
554.871902	10652.694085
555.229661	10687.846051
555.587365	10658.776237
555.945014	10551.918899
556.302606	10684.765906
556.660143	10569.444471
557.017625	10728.823070
557.375050	10621.257450
557.732421	10756.471278
558.089735	10676.606799
558.446994	10668.921560
558.804197	10708.945801
559.161345	10711.647859
559.518437	10555.644312
559.875474	10648.134362
560.232455	10680.299444
560.589381	10626.333892
560.946251	10626.470003
561.303065	10736.397404
561.659825	10665.362505
562.016528	10600.077042
562.373177	10473.748247
562.729770	10599.565365
563.086307	10511.415749
563.442789	10603.855387
563.799216	10485.254681
564.155587	10535.431806
564.511904	10480.480708
564.868164	10477.181273
565.224370	10486.401543
565.580520	10412.704915
565.936615	10415.704402
566.292654	10289.675556
566.648638	10414.663404
567.004567	10379.332477
567.360441	10359.608962
567.716260	10271.295509
568.072023	10370.109686
568.427732	10316.305451
568.783385	10227.480320
569.138982	10305.096445
569.494525	10306.442433
569.850013	10188.870123
570.205445	10270.811558
570.560823	10164.246607
570.916145	10081.654863
571.271412	10153.050204
571.626625	10100.024828
571.981782	10073.420138
572.336884	10046.880984
572.691931	10056.368435
573.046923	10002.319704
573.401860	9958.610380
573.756743	9892.241069
574.111570	9934.833778
574.466342	9922.520759
574.821059	9948.303741
575.175722	9832.712604
575.530330	9842.174849
575.884882	9841.857257
576.239380	9766.958313
576.593823	9738.155681
576.948211	9760.387169
577.302544	9640.427872
577.656823	9653.875150
578.011047	9655.765583
578.365216	9633.776070
578.719330	9555.698679
579.073389	9567.358868
579.427394	9514.832566
579.781344	9495.388835
580.135239	9439.694167
580.489080	9450.071383
580.842866	9351.068162
581.196597	9361.160552
581.550273	9401.406604
581.903895	9360.974030
582.257463	9434.020349
582.610975	9312.790681
582.964434	9338.669444
583.317837	9264.834185
583.671186	9243.941123
584.024481	9231.504596
584.377721	9153.878388
584.730906	9130.245459
585.084037	9163.847270
585.437113	9098.650028
585.790135	9115.497564
586.143103	9015.380248
586.496016	8993.670519
586.848874	9046.774034
587.201679	9038.635091
587.554428	8922.280219
587.907124	8968.069019
588.259765	8941.461809
588.612352	8939.909134
588.964884	8818.825660
589.317362	8834.589348
589.669786	8829.535591
590.022155	8881.081389
590.374470	8896.691322
590.726731	8830.148091
591.078937	8689.527625
591.431090	8797.158781
591.783188	8672.165892
592.135232	8667.351590
592.487222	8661.224067
592.839157	8714.446049
593.191038	8648.399372
593.542866	8598.350796
593.894639	8497.772215
594.246358	8548.085451
594.598022	8562.956855
594.949633	8457.170762
595.301190	8431.972555
595.652692	8462.264848
596.004141	8577.104853
596.355535	8353.015483
596.706876	8331.550250
597.058162	8267.996423
597.409395	8341.937547
597.760573	8412.327178
598.111698	8315.287487
598.462768	8305.429511
598.813785	8263.575331
599.164748	8232.945280
599.515657	8222.129485
599.866511	8136.916341
600.217312	8254.410513
600.568060	8120.341027
600.918753	8219.250986
601.269392	8193.876338
601.619978	8102.777647
601.970510	8169.094026
602.320988	8166.820465
602.671412	8218.083959
603.021783	8158.003487
603.372100	8131.839899
603.722363	8132.626319
604.072572	8106.253522
604.422728	8118.579144
604.772830	8048.807054
605.122878	8056.174700
605.472872	8045.104326
605.822813	8083.530522
606.172701	8025.486676
606.522534	8101.867719
606.872314	8102.933923
607.222041	8066.713232
607.571714	8123.189279
607.921333	8082.502126
608.270899	8085.569668
608.620411	8176.643154
608.969870	8083.838032
609.319276	8076.437618
609.668627	8093.459074
610.017926	8123.113662
610.367171	8172.582504
610.716362	8153.355543
611.065500	8144.341960
611.414585	8165.146802
611.763616	8158.731934
612.112594	8138.920199
612.461518	8154.560379
612.810389	8210.723874
613.159207	8155.190523
613.507971	8101.935774
613.856682	8226.953869
614.205340	8178.571395
614.553945	8259.255062
614.902496	8152.644741
615.250994	8211.522897
615.599439	8187.776542
615.947830	8201.758182
616.296169	8177.177516
616.644454	8187.761418
616.992686	8189.644289
617.340864	8242.120180
617.688990	8146.363463
618.037063	8246.188392
618.385082	8186.307046
618.733048	8272.820807
619.080961	8213.748567
619.428821	8229.968479
619.776628	8237.867967
620.124382	8183.552055
620.472083	8171.360024
620.819731	8199.555198
621.167326	8088.959844
621.514868	8101.615661
621.862357	7989.190368
622.209793	8002.635126
622.557176	7934.995444
622.904506	7905.726505
623.251783	7841.802153
623.599007	7795.542005
623.946179	7802.455948
624.293297	7753.753360
624.640363	7678.478851
624.987376	7656.128896
625.334336	7603.516893
625.681243	7552.754995
626.028097	7542.929786
626.374899	7513.426433
626.721647	7517.076228
627.068343	7445.648120
627.414987	7416.190137
627.761577	7366.411263
628.108115	7405.636482
628.454600	7299.726880
628.801032	7354.811568
629.147412	7306.235010
629.493739	7304.604197
629.840014	7236.052066
630.186236	7291.812269
630.532405	7172.682242
630.878521	7227.870273
631.224585	7187.364602
631.570597	7108.992304
631.916556	7138.026830
632.262462	7138.130173
632.608316	7097.382527
632.954117	7078.132881
633.299866	7066.812970
633.645562	7055.931639
633.991206	6977.082952
634.336797	6917.771256
634.682336	6876.816923
635.027823	6842.244689
635.373257	6834.020047
635.718639	6766.781137
636.063968	6779.300843
636.409245	6676.035327
636.754470	6673.973495
637.099642	6628.746783
637.444762	6578.030255
637.789829	6582.436223
638.134845	6529.892277
638.479808	6511.144225
638.824719	6512.006263
639.169577	6439.549758
639.514383	6462.532379
639.859137	6386.302571
640.203839	6395.888325
640.548489	6380.911057
