Dividing Wavelength (nm)	Counts (n)	Blue Motor Position (mm): 7.000000	Red Motor Position (mm): 0.000000	
326.493990	2143.241517
326.888308	2143.241517
327.282561	2143.241517
327.676750	2109.702720
328.070874	2107.207349
328.464933	2111.653647
328.858929	2118.113885
329.252859	2126.681326
329.646726	2138.200363
330.040528	2150.581437
330.434265	2168.527944
330.827938	2185.672908
331.221547	2203.150589
331.615091	2223.131202
332.008571	2239.348594
332.401986	2261.101173
332.795338	2281.041457
333.188625	2301.095167
333.581847	2320.947231
333.975006	2338.850889
334.368100	2354.062570
334.761129	2373.607124
335.154095	2392.783673
335.546996	2408.461662
335.939833	2422.279464
336.332606	2440.120108
336.725315	2449.635286
337.117960	2456.967644
337.510540	2467.778398
337.903056	2481.568475
338.295508	2485.046871
338.687896	2495.020794
339.080220	2503.920951
339.472480	2509.360356
339.864676	2512.022085
340.256807	2518.124402
340.648875	2518.356295
341.040879	2522.797551
341.432818	2525.570186
341.824694	2526.815351
342.216506	2524.067922
342.608253	2529.608150
342.999937	2527.110258
343.391557	2524.690505
343.783113	2525.328211
344.174605	2525.320649
344.566033	2524.009949
344.957397	2522.553055
345.348697	2518.008455
345.739934	2518.550379
346.131106	2517.953003
346.522215	2514.570388
346.913260	2517.491737
347.304241	2509.677948
347.695159	2513.191633
348.086012	2509.446055
348.476802	2505.576970
348.867528	2504.069665
349.258191	2501.392812
349.648789	2504.125118
350.039324	2500.679489
350.429796	2502.448934
350.820203	2498.552122
351.210548	2497.221257
351.600828	2496.553304
351.991045	2499.840137
352.381198	2496.384426
352.771288	2496.470125
353.161314	2492.366626
353.551276	2494.788901
353.941175	2496.719663
354.331010	2495.537512
354.720782	2496.109683
355.110490	2495.986175
355.500135	2492.054075
355.889717	2492.666575
356.279235	2492.878303
356.668689	2494.836792
357.058080	2494.572131
357.447408	2494.234374
357.836672	2490.826554
358.225873	2493.299240
358.615010	2489.667088
359.004084	2497.198572
359.393095	2496.452481
359.782043	2497.064982
360.170927	2496.391987
360.559748	2498.776453
360.948505	2497.952225
361.337199	2500.374499
361.725830	2498.630260
362.114398	2501.760816
362.502903	2499.189828
362.891344	2500.901300
363.279722	2501.470950
363.668037	2502.033039
364.056289	2505.766013
364.444478	2501.793584
364.832603	2503.454644
365.220665	2504.087309
365.608665	2505.453462
365.996601	2510.156858
366.384474	2504.694768
366.772284	2505.415653
367.160031	2504.445231
367.547715	2506.214676
367.935336	2508.768020
368.322893	2508.087464
368.710388	2508.014368
369.097820	2507.560664
369.485189	2508.513442
369.872495	2507.721981
370.259738	2508.614265
370.646918	2504.467916
371.034035	2507.147289
371.421090	2508.899090
371.808081	2510.547548
372.195010	2509.632578
372.581875	2510.469410
372.968678	2512.087620
373.355418	2510.393792
373.742096	2512.178361
374.128710	2508.236178
374.515262	2509.040243
374.901751	2509.322547
375.288177	2512.564009
375.674540	2511.931344
376.060841	2512.836231
376.447079	2511.850686
376.833254	2512.533762
377.219367	2507.177536
377.605417	2510.194667
377.991404	2507.784995
378.377329	2511.059225
378.763191	2506.471775
379.148991	2513.557116
379.534727	2511.956550
379.920402	2513.582322
380.306013	2511.054183
380.691563	2514.381345
381.077049	2512.891684
381.462474	2513.073166
381.847835	2513.877230
382.233134	2517.416120
382.618371	2514.124246
383.003545	2512.932013
383.388657	2516.748167
383.773706	2520.312263
384.158693	2514.565347
384.543618	2514.703979
384.928480	2517.640451
385.313280	2515.820594
385.698017	2518.053826
386.082692	2516.405368
386.467305	2516.201202
386.851856	2516.831346
387.236344	2515.190450
387.620770	2518.767149
388.005133	2517.360667
388.389435	2516.249093
388.773674	2517.337982
389.157851	2517.390914
389.541965	2519.215812
389.926018	2518.154649
390.310008	2516.337313
390.693936	2521.290246
391.077802	2518.794875
391.461606	2520.700431
391.845348	2521.456604
392.229027	2521.164218
392.612645	2520.929804
392.996200	2519.213291
393.379694	2521.605318
393.763125	2518.873013
394.146494	2523.659589
394.529801	2519.750174
394.913047	2520.750843
395.296230	2522.540452
395.679351	2520.859228
396.062410	2520.521470
396.445408	2521.968282
396.828343	2522.815195
397.211217	2518.094155
397.594028	2521.191944
397.976778	2519.838394
398.359466	2521.469207
398.742092	2520.022396
399.124656	2523.452901
399.507158	2520.707993
399.889598	2521.875020
400.271977	2525.149250
400.654294	2524.372912
401.036549	2523.911646
401.418742	2523.309228
401.800874	2524.496420
402.182944	2525.113962
402.564952	2523.248735
402.946898	2525.270237
403.328783	2522.948786
403.710606	2526.364168
404.092367	2524.009949
404.474067	2527.137985
404.855705	2526.205371
405.237282	2523.868797
405.618797	2526.497758
406.000250	2528.123530
406.381642	2527.551359
406.762972	2525.252593
407.144240	2527.952131
407.525447	2527.735362
407.906593	2527.710156
408.287677	2527.924405
408.668700	2523.629342
409.049661	2526.737213
409.430560	2525.613036
409.811399	2527.069929
410.192176	2528.831813
410.572891	2529.961031
410.953545	2526.727131
411.334138	2528.423479
411.714669	2527.692512
412.095139	2530.412214
412.475547	2529.706453
412.855894	2527.609333
413.236180	2531.659900
413.616405	2530.225692
413.996568	2529.817358
414.376670	2531.256608
414.756711	2527.314425
415.136691	2530.941535
415.516609	2531.309540
415.896466	2532.491690
416.276262	2531.110414
416.655997	2526.719569
417.035670	2528.594878
417.415283	2526.475073
417.794834	2529.335928
418.174324	2531.090249
418.553753	2533.207534
418.933121	2531.090249
419.312428	2530.039169
419.691674	2532.312729
420.070859	2531.944725
420.449983	2530.089580
420.829045	2531.932122
421.208047	2533.978831
421.586988	2531.690147
421.965867	2529.464477
422.344686	2534.475384
422.723444	2532.554705
423.102141	2533.973789
423.480777	2531.480939
423.859352	2529.981196
424.237866	2534.092257
424.616319	2534.160312
424.994712	2533.625950
425.373044	2534.934129
425.751314	2531.780887
426.129524	2535.166022
426.507673	2537.116949
426.885762	2532.063192
427.263789	2533.714170
427.641756	2534.568646
428.019662	2534.442617
428.397508	2533.459592
428.775292	2533.260466
429.153016	2536.448996
429.530679	2536.549819
429.908282	2533.232740
430.285824	2534.281300
430.663305	2535.718029
431.040726	2532.184180
431.418086	2535.758358
431.795385	2535.065199
432.172624	2534.951773
432.549802	2535.637370
432.926920	2537.321116
433.303977	2536.718698
433.680974	2538.054603
434.057910	2536.895138
434.434786	2536.675848
434.811601	2533.855322
435.188355	2536.476722
435.565050	2537.646270
435.941683	2538.581404
436.318257	2534.470343
436.694770	2533.515044
437.071222	2534.992103
437.447614	2533.593182
437.823946	2534.122503
438.200218	2536.600231
438.576429	2540.156765
438.952580	2536.769109
439.328670	2537.076620
439.704700	2536.683410
440.080670	2535.304654
440.456580	2537.147196
440.832429	2538.160468
441.208218	2537.522762
441.583947	2538.546116
441.959616	2537.643749
442.335224	2541.081816
442.710773	2537.946219
443.086261	2539.390509
443.461689	2538.573842
443.837057	2538.389840
444.212365	2540.633154
444.587612	2538.992258
444.962800	2541.051569
445.337927	2538.760365
445.712995	2540.040818
446.088002	2541.041487
446.462949	2538.231044
446.837837	2540.111394
447.212664	2538.972093
447.587431	2539.811446
447.962139	2539.340098
448.336786	2542.301776
448.711374	2539.002340
449.085901	2540.958308
449.460369	2541.376724
449.834776	2540.199614
450.209124	2540.880170
450.583412	2541.220448
450.957640	2543.710778
451.331808	2540.870088
451.705917	2539.811446
452.079965	2538.548637
452.453954	2541.172557
452.827883	2540.176929
453.201752	2541.840510
453.575562	2542.266488
453.949311	2541.462423
454.323001	2541.865716
454.696632	2542.006868
455.070202	2541.296065
455.443713	2540.678524
455.817164	2539.146013
456.190556	2537.530323
456.563888	2538.505787
456.937160	2540.255067
457.310373	2541.296065
457.683526	2542.090047
458.056619	2541.303627
458.429653	2541.943854
458.802628	2540.938143
459.175542	2541.722043
459.548398	2543.292362
459.921194	2543.350336
460.293930	2545.172713
460.666607	2544.411498
461.039224	2545.185316
461.411782	2543.710778
461.784280	2542.148020
462.156719	2539.718184
462.529099	2542.364790
462.901419	2542.266487
463.273680	2542.934440
463.645882	2541.298586
464.018024	2542.936961
464.390106	2542.279090
464.762130	2544.174564
465.134094	2543.231868
465.505999	2542.505942
465.877845	2543.851930
466.249631	2545.520552
466.621358	2542.261446
466.993026	2545.644061
467.364634	2544.744215
467.736184	2542.876467
468.107674	2543.925027
468.479105	2542.397558
468.850477	2542.218597
469.221790	2546.170861
469.593043	2542.148020
469.964238	2543.186498
470.335373	2544.666077
470.706449	2545.802857
471.077467	2542.810932
471.448425	2542.752959
471.819324	2545.875954
472.190164	2546.548948
472.560945	2545.253371
472.931667	2546.450645
473.302330	2545.442414
473.672934	2544.789585
474.043479	2543.005017
474.413965	2545.470141
474.784393	2540.542413
475.154761	2543.516694
475.525070	2540.277752
475.895321	2541.522917
476.265513	2539.526620
476.635645	2548.986346
477.005719	2544.913093
477.375734	2545.639019
477.745691	2545.528114
478.115588	2543.625078
478.485427	2543.788916
478.855207	2546.538865
479.224928	2544.282949
479.594591	2544.575336
479.964194	2546.223793
480.333739	2545.346632
480.703226	2545.384441
481.072653	2544.502239
481.442022	2545.835624
481.811333	2544.809750
482.180584	2546.233876
482.549777	2546.233876
482.918912	2545.744884
483.287988	2545.734801
483.657005	2546.997610
484.025964	2548.497354
484.394864	2545.790254
484.763706	2548.477189
485.132489	2544.802188
485.501213	2548.441901
485.869879	2546.473330
486.238487	2545.533155
486.607036	2547.300080
486.975527	2547.594987
487.343959	2546.929555
487.712333	2545.626417
488.080648	2545.507949
488.448905	2547.068187
488.817104	2547.151366
489.185244	2547.105995
489.553326	2544.149358
489.921350	2548.348640
490.289315	2545.109698
490.657222	2548.494833
491.025070	2548.467107
491.392861	2548.691438
491.760593	2546.380069
492.128267	2548.762014
492.495883	2548.172199
492.863440	2546.208670
493.230939	2546.039791
493.598380	2547.844524
493.965763	2543.052908
494.333088	2547.340409
494.700354	2544.847558
495.067563	2545.412167
495.434713	2544.779503
495.801805	2549.523228
496.168839	2546.720347
496.535815	2547.746222
496.902733	2550.433157
497.269593	2547.118598
497.636395	2549.145142
498.003139	2549.308979
498.369825	2548.585574
498.736453	2548.923331
499.103023	2545.785213
499.469535	2548.189843
499.835989	2550.226469
500.202385	2549.117416
500.568723	2549.815615
500.935003	2548.020965
501.301226	2550.546583
501.667390	2545.031560
502.033497	2551.862324
502.399546	2549.709751
502.765537	2547.625234
503.131470	2549.689587
503.497345	2548.167158
503.863163	2551.975750
504.228923	2547.191695
504.594625	2549.606408
504.960269	2546.344781
505.325856	2547.259750
505.691385	2547.267312
506.056856	2550.959957
506.422270	2550.476007
506.787625	2549.659340
507.152924	2548.232693
507.518164	2549.495502
507.883347	2548.315872
508.248472	2550.334854
508.613540	2546.773279
508.978550	2550.428116
509.343503	2548.946016
509.708398	2549.961809
510.073236	2550.435677
510.438016	2549.563558
510.802738	2548.260419
511.167403	2550.596994
511.532010	2548.494833
511.896561	2550.269319
512.261053	2547.796633
512.625488	2544.867723
512.989866	2544.648433
513.354186	2547.443752
513.718449	2544.522404
514.082655	2547.272353
514.446803	2549.518187
514.810894	2549.268650
515.174927	2551.912735
515.538904	2549.939124
515.902822	2548.356201
516.266684	2551.433826
516.630488	2547.819318
516.994235	2550.249155
517.357925	2548.169679
517.721558	2550.100441
518.085133	2549.475338
518.448651	2551.179247
518.812112	2549.934083
519.175516	2547.219421
519.538863	2550.158414
519.902152	2548.830070
520.265385	2551.673281
520.628560	2550.402910
520.991678	2551.136398
521.354739	2550.319731
521.717743	2550.281922
522.080690	2549.888712
522.443580	2549.041798
522.806413	2549.929041
523.169189	2549.555996
523.531908	2551.073383
523.894569	2551.645554
524.257174	2550.541542
524.619722	2549.853424
524.982213	2548.562889
525.344647	2549.702189
525.707025	2549.591284
526.069345	2547.468958
526.431608	2550.924669
526.793815	2548.842673
527.155964	2552.313507
527.518057	2548.149514
527.880093	2551.106151
528.242072	2551.728733
528.603995	2553.800647
528.965860	2552.278219
529.327669	2553.049516
529.689421	2550.758311
530.051117	2550.846531
530.412755	2550.710420
530.774337	2548.807385
531.135862	2550.259237
531.497331	2547.925183
531.858743	2545.210521
532.220098	2548.295707
532.581396	2546.085162
532.942638	2549.182951
533.303824	2549.742519
533.664953	2549.089689
534.026025	2550.123126
534.387040	2551.118754
534.747999	2549.001469
535.108902	2551.680842
535.469748	2549.934082
535.830537	2550.541542
536.191270	2550.788558
536.551947	2553.198230
536.912567	2548.572971
537.273131	2554.196378
537.633638	2549.712272
537.994089	2550.854093
538.354483	2551.600184
538.714821	2552.663867
539.075103	2550.841490
539.435328	2551.789227
539.795497	2551.733774
540.155609	2552.101779
540.515665	2550.223949
540.875665	2551.035575
541.235609	2551.534649
541.595496	2552.996583
541.955328	2552.938610
542.315102	2550.864175
542.674821	2552.081614
543.034483	2553.263765
543.394090	2548.167158
543.753640	2552.121943
544.113134	2549.140101
544.472571	2551.234700
544.831953	2551.557334
545.191278	2551.519525
545.550548	2551.678322
545.909761	2552.817622
546.268918	2553.798127
546.628019	2551.925338
546.987064	2552.888199
547.346053	2554.370298
547.704986	2551.930379
548.063863	2552.941131
548.422684	2552.494989
548.781449	2553.316697
549.140158	2552.762170
549.498811	2555.517160
549.857408	2553.659495
550.215949	2550.102961
550.574434	2548.683876
550.932864	2550.634803
551.291237	2551.025492
551.649555	2552.991542
552.007817	2552.966337
552.366022	2554.662685
552.724173	2551.232180
553.082267	2550.450801
553.440305	2551.338044
553.798288	2554.191337
554.156215	2555.456667
554.514086	2553.596481
554.871902	2553.697304
555.229661	2554.602191
555.587365	2552.593291
555.945014	2554.430792
556.302606	2554.977757
556.660143	2553.651933
557.017625	2551.643034
557.375050	2552.278219
557.732421	2554.277037
558.089735	2553.518343
558.446994	2555.277706
558.804197	2552.734443
559.161345	2551.685883
559.518437	2556.351471
559.875474	2551.683363
560.232455	2551.874927
560.589381	2554.524053
560.946251	2555.088662
561.303065	2555.902809
561.659825	2552.739485
562.016528	2554.609753
562.373177	2552.502550
562.729770	2553.551110
563.086307	2554.541697
563.442789	2552.840308
563.799216	2553.674619
564.155587	2552.787376
564.511904	2554.932387
564.868164	2553.813250
565.224370	2555.227294
565.580520	2553.586398
565.936615	2553.223435
566.292654	2554.826522
566.648638	2555.885165
567.004567	2551.154042
567.360441	2552.779814
567.716260	2556.164949
568.072023	2554.052705
568.427732	2550.438198
568.783385	2551.103630
569.138982	2549.538352
569.494525	2552.361398
569.850013	2548.635985
570.205445	2556.911039
570.560823	2550.405430
570.916145	2555.514640
571.271412	2553.858621
571.626625	2555.141594
571.981782	2552.926007
572.336884	2557.064795
572.691931	2552.061449
573.046923	2553.167983
573.401860	2551.680842
573.756743	2553.687222
574.111570	2553.503219
574.466342	2549.639175
574.821059	2554.350133
575.175722	2553.702345
575.530330	2554.798796
575.884882	2551.201933
576.239380	2553.357026
576.593823	2553.309135
576.948211	2555.312994
577.302544	2549.888712
577.656823	2552.817622
578.011047	2554.395504
578.365216	2552.069011
578.719330	2552.852911
579.073389	2551.577499
579.427394	2549.868547
579.781344	2551.476676
580.135239	2554.982798
580.489080	2553.455328
580.842866	2552.794937
581.196597	2557.261400
581.550273	2554.284598
581.903895	2553.099927
582.257463	2550.476007
582.610975	2552.389124
582.964434	2554.093034
583.317837	2551.194371
583.671186	2554.224104
584.024481	2553.125133
584.377721	2553.906512
584.730906	2553.452808
585.084037	2554.191337
585.437113	2553.104968
585.790135	2553.228477
586.143103	2551.955585
586.496016	2553.132695
586.848874	2549.750080
587.201679	2551.199412
587.554428	2550.682694
587.907124	2552.560524
588.259765	2548.930893
588.612352	2553.543549
588.964884	2551.025492
589.317362	2553.079762
589.669786	2553.967006
590.022155	2554.196378
590.374470	2551.020451
590.726731	2551.761501
591.078937	2550.483568
591.431090	2550.516336
591.783188	2551.141439
592.135232	2555.134033
592.487222	2553.273847
592.839157	2553.442726
593.191038	2551.625390
593.542866	2553.422561
593.894639	2552.893240
594.246358	2554.329969
594.598022	2551.055739
594.949633	2552.240410
595.301190	2553.747715
595.652692	2552.762170
596.004141	2552.593291
596.355535	2553.205791
596.706876	2553.044474
597.058162	2552.860472
597.409395	2548.726726
597.760573	2554.428271
598.111698	2550.962478
598.462768	2553.735113
598.813785	2553.674619
599.164748	2551.186809
599.515657	2552.129505
599.866511	2555.444064
600.217312	2552.406768
600.568060	2551.406099
600.918753	2552.195040
601.269392	2551.532128
601.619978	2554.251831
601.970510	2554.884496
602.320988	2553.599001
602.671412	2554.087993
603.021783	2550.922149
603.372100	2552.792417
603.722363	2554.115720
604.072572	2554.697973
604.422728	2553.480534
604.772830	2549.185471
605.122878	2547.453835
605.472872	2550.937272
605.822813	2548.799823
606.172701	2550.775955
606.522534	2552.666388
606.872314	2554.667726
607.222041	2551.053219
607.571714	2550.869217
607.921333	2553.016748
608.270899	2554.314845
608.620411	2555.237376
608.969870	2555.781821
609.319276	2552.671429
609.668627	2557.490772
610.017926	2557.533622
610.367171	2560.454971
610.716362	2558.975392
611.065500	2558.572100
611.414585	2556.573282
611.763616	2558.415824
612.112594	2555.055895
612.461518	2554.599670
612.810389	2551.852242
613.159207	2555.171841
613.507971	2554.007335
613.856682	2555.496996
614.205340	2552.023641
614.553945	2554.221584
614.902496	2554.478683
615.250994	2555.570092
615.599439	2553.901471
615.947830	2552.497509
616.296169	2552.847869
616.644454	2552.888199
616.992686	2552.421892
617.340864	2553.041954
617.688990	2554.506409
618.037063	2552.890719
618.385082	2553.856100
618.733048	2553.278888
619.080961	2553.788045
619.428821	2554.125802
619.776628	2553.407437
620.124382	2553.891388
620.472083	2550.758311
620.819731	2555.204609
621.167326	2552.005997
621.514868	2551.317879
621.862357	2553.659495
622.209793	2553.528425
622.557176	2553.374670
622.904506	2551.597663
623.251783	2547.917621
623.599007	2552.547921
623.946179	2549.518187
624.293297	2550.813764
624.640363	2551.227138
624.987376	2553.094886
625.334336	2551.595143
625.681243	2554.075390
626.028097	2551.506922
626.374899	2553.019269
626.721647	2552.074052
627.068343	2552.792417
627.414987	2553.488096
627.761577	2554.723179
628.108115	2552.552962
628.454600	2553.563713
628.801032	2553.248641
629.147412	2552.401727
629.493739	2553.044474
629.840014	2552.008517
630.186236	2552.386604
630.532405	2555.068498
630.878521	2553.223435
631.224585	2553.631769
631.570597	2552.439536
631.916556	2553.432643
632.262462	2551.877447
632.608316	2553.447767
632.954117	2551.625390
633.299866	2553.057077
633.645562	2550.143290
633.991206	2553.346944
634.336797	2552.618497
634.682336	2549.951727
635.027823	2550.823846
635.373257	2552.036244
635.718639	2554.324927
636.063968	2553.339382
636.409245	2551.567416
636.754470	2551.206974
637.099642	2554.690411
637.444762	2552.134546
637.789829	2551.453990
638.134845	2552.671429
638.479808	2554.544218
638.824719	2553.273847
639.169577	2550.493651
639.514383	2553.024310
639.859137	2553.742674
640.203839	2553.914073
640.548489	2552.676470
640.893086	2549.750080
641.237632	2551.547252
641.582125	2551.345606
641.926566	2545.470141
642.270955	2553.430123
642.615292	2552.661347
642.959576	2554.793755
643.303809	2552.671429
643.647990	2552.981460
643.992118	2550.864175
644.336195	2553.195709
