Dividing Wavelength (nm)	Counts (n)	Blue Motor Position (mm): 18.700000	Red Motor Position (mm): 0.000000	
326.493990	2133.426390
326.888308	2133.426390
327.282561	2133.426390
327.676750	2103.176946
328.070874	2098.367686
328.464933	2101.261308
328.858929	2109.188522
329.252859	2118.345778
329.646726	2130.507562
330.040528	2142.631537
330.434265	2161.969403
330.827938	2178.804336
331.221547	2196.889476
331.615091	2213.492516
332.008571	2230.617316
332.401986	2252.309401
332.795338	2273.477206
333.188625	2293.755247
333.581847	2310.771662
333.975006	2327.198262
334.368100	2348.386231
334.761129	2364.613705
335.154095	2381.244472
335.546996	2403.843965
335.939833	2421.956830
336.332606	2438.655653
336.725315	2446.930707
337.117960	2458.873200
337.510540	2468.111114
337.903056	2477.031436
338.295508	2487.368322
338.687896	2493.274034
339.080220	2502.138903
339.472480	2508.112670
339.864676	2513.625172
340.256807	2518.013496
340.648875	2520.597088
341.040879	2526.215454
341.432818	2525.139167
341.824694	2524.410721
342.216506	2526.989271
342.608253	2527.687471
342.999937	2525.381143
343.391557	2526.265865
343.783113	2526.223015
344.174605	2526.853160
344.566033	2523.445340
344.957397	2520.816378
345.348697	2519.689680
345.739934	2517.360667
346.131106	2516.508712
346.522215	2516.675070
346.913260	2515.402179
347.304241	2509.423370
347.695159	2508.722650
348.086012	2508.175685
348.476802	2504.757782
348.867528	2505.246774
349.258191	2505.511435
349.648789	2503.051352
350.039324	2499.366268
350.429796	2503.379027
350.820203	2496.810403
351.210548	2495.570279
351.600828	2498.186638
351.991045	2492.565752
352.381198	2495.131699
352.771288	2492.008704
353.161314	2492.338900
353.551276	2495.560197
353.941175	2495.557677
354.331010	2492.104486
354.720782	2494.078098
355.110490	2495.456853
355.500135	2493.054744
355.889717	2492.716986
356.279235	2491.023159
356.668689	2495.610609
357.058080	2493.846205
357.447408	2494.788901
357.836672	2489.888899
358.225873	2493.589106
358.615010	2492.152377
359.004084	2497.145640
359.393095	2495.633294
359.782043	2497.619508
360.170927	2498.194200
360.559748	2496.812924
360.948505	2498.269817
361.337199	2499.305774
361.725830	2500.346773
362.114398	2499.847698
362.502903	2499.615805
362.891344	2500.510610
363.279722	2502.554798
363.668037	2501.939777
364.056289	2500.394664
364.444478	2504.031856
364.832603	2501.720487
365.220665	2503.361383
365.608665	2503.608399
365.996601	2505.347597
366.384474	2503.759634
366.772284	2504.722494
367.160031	2504.399860
367.547715	2504.795591
367.935336	2506.242402
368.322893	2507.351456
368.710388	2506.991013
369.097820	2506.638133
369.485189	2510.292969
369.872495	2505.249295
370.259738	2509.355315
370.646918	2507.036384
371.034035	2506.464213
371.421090	2507.109481
371.808081	2507.424553
372.195010	2509.819101
372.581875	2510.418998
372.968678	2508.236178
373.355418	2509.161230
373.742096	2511.979235
374.128710	2509.642660
374.515262	2510.093844
374.901751	2510.156858
375.288177	2512.606859
375.674540	2508.911693
376.060841	2511.555778
376.447079	2511.787671
376.833254	2511.757424
377.219367	2507.527896
377.605417	2509.670387
377.991404	2507.931189
378.377329	2508.147958
378.763191	2508.508401
379.148991	2513.993176
379.534727	2513.383197
379.920402	2513.007631
380.306013	2513.408402
380.691563	2514.222549
381.077049	2514.514936
381.462474	2513.126098
381.847835	2512.750532
382.233134	2514.525018
382.618371	2515.500481
383.003545	2512.586694
383.388657	2515.205574
383.773706	2513.257168
384.158693	2516.128105
384.543618	2515.376973
384.928480	2519.046933
385.313280	2516.299504
385.698017	2518.479803
386.082692	2515.646675
386.467305	2519.296470
386.851856	2518.792355
387.236344	2517.534587
387.620770	2520.019876
388.005133	2519.243538
388.389435	2518.492406
388.773674	2518.968795
389.157851	2519.026768
389.541965	2519.235976
389.926018	2518.520132
390.310008	2518.706655
390.693936	2517.521984
391.077802	2516.392765
391.461606	2521.895185
391.845348	2518.913342
392.229027	2521.307890
392.612645	2521.895185
392.996200	2520.067767
393.379694	2519.359484
393.763125	2519.896367
394.146494	2519.939217
394.529801	2521.481810
394.913047	2518.260513
395.296230	2522.306039
395.679351	2522.984074
396.062410	2524.446009
396.445408	2523.377284
396.828343	2522.492562
397.211217	2519.243538
397.594028	2519.503157
397.976778	2517.055677
398.359466	2520.082890
398.742092	2516.531397
399.124656	2522.694208
399.507158	2521.877541
399.889598	2522.762263
400.271977	2523.520957
400.654294	2524.544311
401.036549	2522.371574
401.418742	2526.228057
401.800874	2521.769156
402.182944	2525.131606
402.564952	2524.844260
402.946898	2524.907274
403.328783	2524.763601
403.710606	2524.390556
404.092367	2525.290402
404.474067	2527.332069
404.855705	2525.499610
405.237282	2527.072450
405.618797	2523.626821
406.000250	2527.112779
406.381642	2522.666481
406.762972	2527.264014
407.144240	2527.082532
407.525447	2527.546318
407.906593	2528.052954
408.287677	2529.282996
408.668700	2525.900382
409.049661	2526.162522
409.430560	2526.961544
409.811399	2529.308202
410.192176	2527.808458
410.572891	2528.826771
410.953545	2528.136133
411.334138	2528.499096
411.714669	2526.248221
412.095139	2528.118489
412.475547	2527.659744
412.855894	2528.020187
413.236180	2530.155115
413.616405	2530.142513
413.996568	2531.783408
414.376670	2532.262318
414.756711	2531.576721
415.136691	2531.589324
415.516609	2531.354910
415.896466	2534.465302
416.276262	2531.392719
416.655997	2527.637059
417.035670	2529.653521
417.415283	2530.704601
417.794834	2527.178314
418.174324	2531.077647
418.553753	2529.961031
418.933121	2530.860877
419.312428	2532.416073
419.691674	2531.032276
420.070859	2531.301978
420.449983	2530.944056
420.829045	2528.110928
421.208047	2531.352389
421.586988	2532.403470
421.965867	2531.271731
422.344686	2532.088398
422.723444	2532.060672
423.102141	2532.068233
423.480777	2532.254756
423.859352	2533.517565
424.237866	2532.559746
424.616319	2531.990095
424.994712	2534.664427
425.373044	2535.728111
425.751314	2533.721732
426.129524	2530.709642
426.507673	2532.501772
426.885762	2534.946732
427.263789	2535.334901
427.641756	2535.697864
428.019662	2537.280786
428.397508	2534.089736
428.775292	2532.569828
429.153016	2535.551671
429.530679	2536.290200
429.908282	2536.091074
430.285824	2535.024870
430.663305	2534.253573
431.040726	2532.761392
431.418086	2533.240302
431.795385	2536.542257
432.172624	2536.058307
432.549802	2535.123173
432.926920	2537.416897
433.303977	2535.692823
433.680974	2534.825744
434.057910	2538.576363
434.434786	2535.753317
434.811601	2535.075282
435.188355	2535.463450
435.565050	2536.559901
435.941683	2537.520241
436.318257	2537.928575
436.694770	2532.292565
437.071222	2530.994468
437.447614	2532.206865
437.823946	2535.133255
438.200218	2538.793132
438.576429	2537.058976
438.952580	2537.550488
439.328670	2539.806404
439.704700	2537.157278
440.080670	2538.019315
440.456580	2538.220962
440.832429	2539.100643
441.208218	2537.553009
441.583947	2540.371014
441.959616	2536.995961
442.335224	2537.313554
442.710773	2538.281455
443.086261	2541.958977
443.461689	2538.304141
443.837057	2537.752134
444.212365	2539.461085
444.587612	2538.830941
444.962800	2540.920499
445.337927	2542.357228
445.712995	2537.061496
446.088002	2541.177598
446.462949	2537.711805
446.837837	2542.125335
447.212664	2541.585932
447.587431	2541.114584
447.962139	2538.415046
448.336786	2540.257588
448.711374	2542.195911
449.085901	2543.632640
449.460369	2542.553833
449.834776	2541.268339
450.209124	2539.861857
450.583412	2542.054759
450.957640	2541.207845
451.331808	2542.231199
451.705917	2536.998482
452.079965	2541.074255
452.453954	2541.661549
452.827883	2540.542413
453.201752	2542.765562
453.575562	2544.046015
453.949311	2543.816642
454.323001	2541.200283
454.696632	2543.360418
455.070202	2543.753628
455.443713	2542.102650
455.817164	2542.571477
456.190556	2539.647608
456.563888	2539.952598
456.937160	2538.183153
457.310373	2543.378062
457.683526	2545.346632
458.056619	2543.609955
458.429653	2545.843186
458.802628	2544.013247
459.175542	2542.304296
459.548398	2542.148020
459.921194	2544.643392
460.293930	2546.027188
460.666607	2545.782692
461.039224	2544.744215
461.411782	2543.410829
461.784280	2546.690100
462.156719	2545.129863
462.529099	2547.171530
462.901419	2547.698331
463.273680	2545.144986
463.645882	2545.823022
464.018024	2546.687579
464.390106	2545.891077
464.762130	2546.611962
465.134094	2546.032229
465.505999	2547.073228
465.877845	2546.846376
466.249631	2547.791592
466.621358	2548.862837
466.993026	2549.797971
467.364634	2551.433826
467.736184	2546.886705
468.107674	2548.378887
468.479105	2545.074410
468.850477	2546.785882
469.221790	2547.295038
469.593043	2546.831252
469.964238	2547.537014
470.335373	2547.902497
470.706449	2547.017775
471.077467	2549.377035
471.448425	2548.822508
471.819324	2550.801161
472.190164	2549.697148
472.560945	2546.816129
472.931667	2547.111036
473.302330	2548.293187
473.672934	2548.174720
474.043479	2550.176058
474.413965	2549.901315
474.784393	2545.243289
475.154761	2547.383259
475.525070	2547.010213
475.895321	2543.675490
476.265513	2546.284287
476.635645	2552.283260
477.005719	2547.995759
477.375734	2552.628579
477.745691	2549.742519
478.115588	2551.438867
478.485427	2550.261758
478.855207	2551.942982
479.224928	2553.707386
479.594591	2554.224104
479.964194	2553.049516
480.333739	2554.415668
480.703226	2555.461708
481.072653	2553.702345
481.442022	2554.496327
481.811333	2554.471121
482.180584	2555.542366
482.549777	2553.278888
482.918912	2554.516491
483.287988	2555.673436
483.657005	2554.072870
484.025964	2555.542366
484.394864	2551.640513
484.763706	2555.320555
485.132489	2555.481872
485.501213	2556.880793
485.869879	2556.434650
486.238487	2553.409958
486.607036	2555.801986
486.975527	2557.924311
487.343959	2553.853580
487.712333	2558.289795
488.080648	2557.616801
488.448905	2558.740978
488.817104	2554.435833
489.185244	2558.559497
489.553326	2557.493293
489.921350	2560.369271
490.289315	2560.386915
490.657222	2566.610219
491.025070	2561.057388
491.392861	2559.434137
491.760593	2564.523182
492.128267	2563.262893
492.495883	2561.707697
492.863440	2564.482852
493.230939	2561.364899
493.598380	2565.874211
493.965763	2560.386915
494.333088	2562.161401
494.700354	2558.814075
495.067563	2565.349931
495.434713	2558.194013
495.801805	2567.341187
496.168839	2568.740107
496.535815	2569.559294
496.902733	2569.125755
497.269593	2571.356466
497.636395	2574.418967
498.003139	2574.360993
498.369825	2573.345201
498.736453	2578.068762
499.103023	2577.136149
499.469535	2580.420460
499.835989	2582.079000
500.202385	2584.430698
500.568723	2584.357602
500.935003	2589.237438
501.301226	2589.239959
501.667390	2596.403439
502.033497	2598.097266
502.399546	2602.117587
502.765537	2604.363421
503.131470	2606.757969
503.497345	2612.411623
503.863163	2617.092334
504.228923	2617.838425
504.594625	2629.251597
504.960269	2630.479118
505.325856	2635.878194
505.691385	2642.119142
506.056856	2646.351191
506.422270	2654.386790
506.787625	2657.368633
507.152924	2666.420024
507.518164	2674.415294
507.883347	2679.320337
508.248472	2686.682942
508.613540	2695.731813
508.978550	2700.853626
509.343503	2710.608258
509.708398	2723.546380
510.073236	2735.206569
510.438016	2742.047414
510.802738	2750.211563
511.167403	2763.106835
511.532010	2771.223092
511.896561	2786.608694
512.261053	2802.231230
512.625488	2805.954122
512.989866	2819.469455
513.354186	2833.120900
513.718449	2843.364524
514.082655	2868.277907
514.446803	2879.600338
514.810894	2902.434245
515.174927	2913.207190
515.538904	2927.035075
515.902822	2951.482151
516.266684	2961.690488
516.630488	2981.860144
516.994235	3000.779594
517.357925	3025.705580
517.721558	3044.683003
518.085133	3066.319636
518.448651	3086.327975
518.812112	3100.866663
519.175516	3126.238790
519.538863	3156.621824
519.902152	3169.469205
520.265385	3212.455124
520.628560	3223.825446
520.991678	3256.955909
521.354739	3282.660753
521.717743	3304.607416
522.080690	3325.976867
522.443580	3375.395298
522.806413	3398.072929
523.169189	3428.380346
523.531908	3464.787559
523.894569	3479.850527
524.257174	3512.612986
524.619722	3561.794482
524.982213	3580.121597
525.344647	3631.755616
525.707025	3654.433246
526.069345	3705.399312
526.431608	3739.545567
526.793815	3785.261271
527.155964	3795.383908
527.518057	3833.444619
527.880093	3868.805793
528.242072	3910.501176
528.603995	3944.783543
528.965860	3973.979386
529.327669	4020.761293
529.689421	4050.872105
530.051117	4088.282508
530.412755	4155.400430
530.774337	4171.133871
531.135862	4221.752097
531.497331	4255.764762
531.858743	4279.047331
532.220098	4350.450234
532.581396	4369.268862
532.942638	4413.794853
533.303824	4447.789874
533.664953	4508.992002
534.026025	4528.574364
534.387040	4599.508440
534.747999	4641.430675
535.108902	4710.529771
535.469748	4692.096792
535.830537	4767.245272
536.191270	4808.865039
536.551947	4870.672105
536.912567	4919.475516
537.273131	4948.159681
537.633638	4983.732583
537.994089	5034.408782
538.354483	5072.479576
538.714821	5158.007792
539.075103	5215.663469
539.435328	5256.884984
539.795497	5241.632973
540.155609	5356.515828
540.515665	5428.604328
540.875665	5398.180964
541.235609	5472.459846
541.595496	5518.719994
541.955328	5635.039578
542.315102	5641.106607
542.674821	5677.208830
543.034483	5729.659515
543.394090	5785.235716
543.753640	5810.673378
544.113134	5956.312313
544.472571	5942.963337
544.831953	6064.969342
545.191278	6033.547831
545.550548	6097.373879
545.909761	6205.544438
546.268918	6255.658548
546.628019	6338.381362
546.987064	6337.320200
547.346053	6338.499830
547.704986	6450.612571
548.063863	6492.514641
548.422684	6526.996134
548.781449	6560.270270
549.140158	6654.683519
549.498811	6647.033568
549.857408	6621.222861
550.215949	6795.470343
550.574434	6772.054184
550.932864	6886.163222
551.291237	6948.542459
551.649555	6994.636250
552.007817	7041.904629
552.366022	7064.330202
552.724173	7121.607792
553.082267	7158.130951
553.440305	7302.086140
553.798288	7217.034313
554.156215	7374.141873
554.514086	7409.049343
554.871902	7368.740277
555.229661	7432.289062
555.587365	7470.148127
555.945014	7449.088707
556.302606	7590.261179
556.660143	7556.273720
557.017625	7723.072898
557.375050	7694.673558
557.732421	7835.415012
558.089735	7830.653642
558.446994	7872.830455
558.804197	7946.695962
559.161345	7990.901840
559.518437	7931.161647
559.875474	8047.703041
560.232455	8112.479347
560.589381	8108.489274
560.946251	8173.099222
561.303065	8269.614633
561.659825	8287.573744
562.016528	8268.734952
562.373177	8216.682518
562.729770	8356.440947
563.086307	8332.344231
563.442789	8427.130527
563.799216	8394.083243
564.155587	8463.237791
564.511904	8474.852609
564.868164	8502.195828
565.224370	8548.516470
565.580520	8539.661683
565.936615	8564.781753
566.292654	8513.472889
566.648638	8638.458216
567.004567	8646.022468
567.360441	8665.808997
567.716260	8631.768605
568.072023	8738.537723
568.427732	8741.194411
568.783385	8683.884054
569.138982	8787.308366
569.494525	8821.507554
569.850013	8759.030013
570.205445	8858.784366
570.560823	8797.539388
570.916145	8766.067464
571.271412	8851.182306
571.626625	8833.563473
571.981782	8836.618412
572.336884	8846.869599
572.691931	8874.119556
573.046923	8860.692442
573.401860	8848.893622
573.756743	8819.080238
574.111570	8884.673211
574.466342	8887.796206
574.821059	8938.437117
575.175722	8867.649235
575.530330	8907.693640
575.884882	8915.366277
576.239380	8883.148262
576.593823	8883.138180
576.948211	8921.317359
577.302544	8824.002925
577.656823	8865.360551
578.011047	8886.714879
578.365216	8881.023416
578.719330	8828.870159
579.073389	8851.706586
579.427394	8823.168614
579.781344	8814.502870
580.135239	8793.166187
580.489080	8817.719127
580.842866	8743.041994
581.196597	8764.855067
581.550273	8813.509763
581.903895	8800.347310
582.257463	8874.149803
582.610975	8774.760934
582.964434	8815.501019
583.317837	8752.854600
583.671186	8746.243127
584.024481	8755.594467
584.377721	8692.491824
584.730906	8683.727778
585.084037	8722.267399
585.437113	8671.099687
585.790135	8707.398516
586.143103	8619.939538
586.496016	8604.995037
586.848874	8674.240326
587.201679	8667.465016
587.554428	8570.778205
587.907124	8627.816341
588.259765	8602.355993
588.612352	8620.426009
588.964884	8501.336311
589.317362	8522.872120
589.669786	8531.777319
590.022155	8585.435360
590.374470	8605.352959
590.726731	8554.611225
591.078937	8432.731248
591.431090	8537.274697
591.783188	8423.357223
592.135232	8424.211698
592.487222	8430.472812
592.839157	8488.294846
593.191038	8423.725227
593.542866	8373.545582
593.894639	8287.830843
594.246358	8340.326898
594.598022	8363.438068
594.949633	8267.394005
595.301190	8247.602435
595.652692	8279.943958
596.004141	8391.285402
596.355535	8184.048609
596.706876	8169.615785
597.058162	8106.815611
597.409395	8190.503806
597.760573	8253.056964
598.111698	8164.312491
598.462768	8157.426275
598.813785	8119.995708
599.164748	8093.640556
599.515657	8086.507323
599.866511	7998.551791
600.217312	8129.026935
600.568060	7996.230340
600.918753	8092.889424
601.269392	8070.501659
601.619978	7986.516036
601.970510	8048.597846
602.320988	8048.660860
602.671412	8108.645550
603.021783	8044.126342
603.372100	8020.468207
603.722363	8025.637911
604.072572	8007.938420
604.422728	8018.330758
604.772830	7953.768701
605.122878	7955.215512
605.472872	7950.575130
605.822813	7985.568299
606.172701	7936.240609
606.522534	8009.662494
606.872314	8007.252823
607.222041	7976.920200
607.571714	8036.342801
607.921333	8002.027667
608.270899	8003.744180
608.620411	8096.246832
608.969870	7994.425607
609.319276	7989.654155
609.668627	8007.232658
610.017926	8045.169861
610.367171	8095.102490
610.716362	8070.468892
611.065500	8058.629742
611.414585	8088.460770
611.763616	8078.754028
612.112594	8062.292140
612.461518	8079.858041
612.810389	8137.518759
613.159207	8083.291067
613.507971	8026.893158
613.856682	8141.705437
614.205340	8099.551308
614.553945	8180.418978
614.902496	8079.525325
615.250994	8134.826782
615.599439	8113.709389
615.947830	8129.541133
616.296169	8102.263449
616.644454	8113.031354
616.992686	8109.038760
617.340864	8176.421343
617.688990	8077.763442
618.037063	8171.995210
618.385082	8120.502344
618.733048	8205.712967
619.080961	8142.721229
619.428821	8161.171852
619.776628	8166.480188
620.124382	8116.371118
620.472083	8104.647915
620.819731	8128.106924
621.167326	8019.127261
621.514868	8034.049076
621.862357	7924.343486
622.209793	7939.381248
622.557176	7875.046043
622.904506	7843.911876
623.251783	7780.174048
623.599007	7739.590239
623.946179	7737.583859
624.293297	7699.190432
624.640363	7618.887372
624.987376	7596.789474
625.334336	7549.143008
625.681243	7496.233578
626.028097	7491.096642
626.374899	7472.235165
626.721647	7454.359233
627.068343	7388.005046
627.414987	7363.288269
627.761577	7315.853532
628.108115	7352.560693
628.454600	7246.744353
628.801032	7296.591283
629.147412	7260.821776
629.493739	7247.838284
629.840014	7188.231681
630.186236	7243.250834
630.532405	7129.623226
630.878521	7174.144176
631.224585	7134.553475
631.570597	7060.357772
631.916556	7089.069664
632.262462	7089.392298
632.608316	7053.915178
632.954117	7030.264604
633.299866	7015.151225
633.645562	7007.435739
633.991206	6930.905983
634.336797	6875.027313
634.682336	6830.899573
635.027823	6797.993441
635.373257	6784.732686
635.718639	6724.233798
636.063968	6727.840744
636.409245	6628.346011
636.754470	6625.890969
637.099642	6589.781184
637.444762	6531.908738
637.789829	6539.992228
638.134845	6485.267983
638.479808	6471.835828
638.824719	6473.396065
639.169577	6398.151803
639.514383	6423.145844
639.859137	6351.357292
640.203839	6357.424321
640.548489	6343.808165
640.893086	6323.749413
641.237632	6291.203724
641.582125	6312.868083
641.926566	6286.722138
642.270955	6297.464837
642.615292	6293.242871
642.959576	6306.264171
643.303809	6297.227903
643.647990	6300.857534
643.992118	6289.777078
644.336195	6240.540128
