Dividing Wavelength (nm)	Counts (n)	Blue Motor Position (mm): 3.400000	Red Motor Position (mm): 0.000000	
326.493990	2063.303940
326.888308	2063.303940
327.282561	2063.303940
327.676750	2040.820394
328.070874	2041.770651
328.464933	2047.678884
328.858929	2056.803372
329.252859	2066.673951
329.646726	2079.400344
330.040528	2095.879876
330.434265	2111.038626
330.827938	2134.217851
331.221547	2157.061840
331.615091	2174.564726
332.008571	2197.333097
332.401986	2216.532332
332.795338	2237.453120
333.188625	2257.068250
333.581847	2274.692124
333.975006	2292.106790
334.368100	2308.450210
334.761129	2327.863694
335.154095	2343.420695
335.546996	2356.842767
335.939833	2372.926568
336.332606	2385.600029
336.725315	2397.373644
337.117960	2409.570715
337.510540	2413.908628
337.903056	2425.954465
338.295508	2434.446289
338.687896	2437.738162
339.080220	2444.200922
339.472480	2448.906839
339.864676	2452.100410
340.256807	2454.116871
340.648875	2454.684001
341.040879	2458.288426
341.432818	2459.876390
341.824694	2461.350927
342.216506	2458.742130
342.608253	2460.201544
342.999937	2460.045268
343.391557	2456.385391
343.783113	2456.352623
344.174605	2457.212140
344.566033	2451.961778
344.957397	2450.368773
345.348697	2447.263423
345.739934	2448.690069
346.131106	2446.545058
346.522215	2444.417691
346.913260	2440.641867
347.304241	2440.926692
347.695159	2437.113059
348.086012	2437.823862
348.476802	2436.092226
348.867528	2433.380085
349.258191	2430.168870
349.648789	2430.463777
350.039324	2429.137954
350.429796	2429.551329
350.820203	2428.908582
351.210548	2429.032090
351.600828	2426.942532
351.991045	2429.873962
352.381198	2430.584765
352.771288	2431.313212
353.161314	2425.770463
353.551276	2427.456729
353.941175	2430.625094
354.331010	2427.386153
354.720782	2430.952769
355.110490	2428.694333
355.500135	2426.708118
355.889717	2428.401946
356.279235	2431.277924
356.668689	2432.155085
357.058080	2429.407656
357.447408	2428.427151
357.836672	2432.076947
358.225873	2431.865218
358.615010	2432.076947
359.004084	2434.768923
359.393095	2432.142482
359.782043	2434.630291
360.170927	2429.505958
360.559748	2434.416042
360.948505	2433.445620
361.337199	2436.586259
361.725830	2434.831937
362.114398	2438.534665
362.502903	2434.305137
362.891344	2437.435693
363.279722	2435.802359
363.668037	2437.039963
364.056289	2439.154727
364.444478	2439.888215
364.832603	2439.074068
365.220665	2438.201949
365.608665	2437.097936
365.996601	2441.362752
366.384474	2439.129521
366.772284	2439.709254
367.160031	2437.599531
367.547715	2442.146652
367.935336	2441.667742
368.322893	2436.477874
368.710388	2441.350149
369.097820	2438.975766
369.485189	2437.649942
369.872495	2441.992896
370.259738	2443.908535
370.646918	2443.500201
371.034035	2444.972218
371.421090	2442.255036
371.808081	2440.785540
372.195010	2443.227979
372.581875	2443.023812
372.968678	2445.783844
373.355418	2443.868206
373.742096	2443.336364
374.128710	2444.624379
374.515262	2445.831735
374.901751	2445.443566
375.288177	2445.367949
375.674540	2445.884667
376.060841	2446.534976
376.447079	2446.958433
376.833254	2448.576643
377.219367	2445.272167
377.605417	2446.497167
377.991404	2447.986828
378.377329	2448.374997
378.763191	2445.829214
379.148991	2450.527570
379.534727	2445.740994
379.920402	2449.083279
380.306013	2449.403393
380.691563	2448.800975
381.077049	2448.904318
381.462474	2450.053701
381.847835	2449.516818
382.233134	2450.439350
382.618371	2449.098403
383.003545	2448.077569
383.388657	2451.432457
383.773706	2452.886830
384.158693	2451.384566
384.543618	2452.372632
384.928480	2451.994546
385.313280	2449.657971
385.698017	2450.613269
386.082692	2450.930862
386.467305	2453.448918
386.851856	2451.813064
387.236344	2451.908846
387.620770	2449.804164
388.005133	2445.975408
388.389435	2448.793413
388.773674	2450.837601
389.157851	2452.642334
389.541965	2454.414299
389.926018	2457.265072
390.310008	2453.509412
390.693936	2453.481686
391.077802	2456.788683
391.461606	2453.990842
391.845348	2452.571758
392.229027	2453.728702
392.612645	2455.233487
392.996200	2454.384052
393.379694	2453.877417
393.763125	2455.246090
394.146494	2458.056533
394.529801	2456.392952
394.913047	2457.970833
395.296230	2454.870524
395.679351	2456.634928
396.062410	2457.814558
396.445408	2458.036368
396.828343	2459.049640
397.211217	2457.224743
397.594028	2460.720783
397.976778	2457.441512
398.359466	2455.979578
398.742092	2458.490072
399.124656	2456.977726
399.507158	2457.771708
399.889598	2460.766153
400.271977	2458.951338
400.654294	2460.062912
401.036549	2458.215329
401.418742	2458.190124
401.800874	2461.330763
402.182944	2459.566359
402.564952	2457.408745
402.946898	2460.103242
403.328783	2459.762964
403.710606	2460.723303
404.092367	2457.406224
404.474067	2461.056020
404.855705	2461.676082
405.237282	2460.884620
405.618797	2459.382357
406.000250	2463.569035
406.381642	2459.851184
406.762972	2461.398818
407.144240	2457.403704
407.525447	2464.030300
407.906593	2454.842797
408.287677	2462.298664
408.668700	2462.913685
409.049661	2462.328911
409.430560	2464.110959
409.811399	2462.790177
410.192176	2462.374281
410.572891	2464.252111
410.953545	2462.039045
411.334138	2465.671196
411.714669	2464.811679
412.095139	2464.955352
412.475547	2464.171453
412.855894	2466.266052
413.236180	2466.954170
413.616405	2464.907461
413.996568	2465.961062
414.376670	2462.833026
414.756711	2464.594910
415.136691	2466.369396
415.516609	2463.027111
415.896466	2465.456947
416.276262	2464.965434
416.655997	2466.757565
417.035670	2466.775209
417.415283	2465.260342
417.794834	2466.331587
418.174324	2464.940229
418.553753	2466.031638
418.933121	2465.532564
419.312428	2465.109107
419.691674	2466.984417
420.070859	2467.997688
420.449983	2465.338480
420.829045	2466.089612
421.208047	2470.364510
421.586988	2467.491052
421.965867	2467.826289
422.344686	2464.975517
422.723444	2467.919551
423.102141	2467.422997
423.480777	2468.481639
423.859352	2468.942905
424.237866	2468.814355
424.616319	2468.590024
424.994712	2469.550364
425.373044	2467.375106
425.751314	2467.370065
426.129524	2464.799076
426.507673	2466.692030
426.885762	2460.904785
427.263789	2467.657411
427.641756	2468.297637
428.019662	2470.432566
428.397508	2469.752010
428.775292	2469.149592
429.153016	2467.586834
429.530679	2468.358131
429.908282	2471.546661
430.285824	2468.700929
430.663305	2469.681434
431.040726	2471.133286
431.418086	2469.010960
431.795385	2471.413070
432.172624	2471.677731
432.549802	2472.539768
432.926920	2470.253605
433.303977	2470.314099
433.680974	2472.033132
434.057910	2469.923409
434.434786	2471.644963
434.811601	2470.732514
435.188355	2471.801239
435.565050	2471.082875
435.941683	2473.913483
436.318257	2470.009109
436.694770	2472.330560
437.071222	2473.663945
437.447614	2473.248050
437.823946	2473.106898
438.200218	2473.842906
438.576429	2472.096147
438.952580	2473.248050
439.328670	2472.534727
439.704700	2473.288379
440.080670	2473.918524
440.456580	2472.403657
440.832429	2473.744604
441.208218	2473.200159
441.583947	2470.702268
441.959616	2473.343832
442.335224	2473.605972
442.710773	2472.968266
443.086261	2470.694706
443.461689	2474.392392
443.837057	2475.607310
444.212365	2473.880715
444.587612	2473.994141
444.962800	2467.057513
445.337927	2472.612865
445.712995	2469.870477
446.088002	2473.411888
446.462949	2471.352576
446.837837	2475.637557
447.212664	2473.517752
447.587431	2473.091774
447.962139	2473.852989
448.336786	2477.459934
448.711374	2474.888946
449.085901	2475.783751
449.460369	2474.110087
449.834776	2475.798874
450.209124	2473.414408
450.583412	2475.471199
450.957640	2475.163689
451.331808	2475.340129
451.705917	2473.462299
452.079965	2476.045891
452.453954	2473.769810
452.827883	2476.582773
453.201752	2473.850468
453.575562	2475.652681
453.949311	2475.151086
454.323001	2477.245685
454.696632	2475.846765
455.070202	2473.916003
455.443713	2473.951291
455.817164	2476.234934
456.190556	2474.692341
456.563888	2477.061683
456.937160	2472.769141
457.310373	2477.903556
457.683526	2476.434059
458.056619	2477.916159
458.429653	2479.123515
458.802628	2478.654688
459.175542	2474.904069
459.548398	2475.035139
459.921194	2477.361632
460.293930	2475.251909
460.666607	2478.979842
461.039224	2475.342650
461.411782	2477.654019
461.784280	2476.444142
462.156719	2474.273925
462.529099	2476.393730
462.901419	2475.325006
463.273680	2477.096971
463.645882	2473.369038
464.018024	2475.927423
464.390106	2474.505818
464.762130	2477.086889
465.134094	2480.391365
465.505999	2477.071765
465.877845	2478.430356
466.249631	2479.955305
466.621358	2478.362301
466.993026	2476.111426
467.364634	2482.599391
467.736184	2480.504791
468.107674	2482.301962
468.479105	2477.656539
468.850477	2478.722743
469.221790	2476.202166
469.593043	2480.920686
469.964238	2478.891622
470.335373	2478.866416
470.706449	2477.001189
471.077467	2478.679893
471.448425	2479.330202
471.819324	2476.955819
472.190164	2479.156282
472.560945	2476.310551
472.931667	2479.947744
473.302330	2476.842393
473.672934	2482.571664
474.043479	2477.744759
474.413965	2481.414719
474.784393	2477.616210
475.154761	2480.172075
475.525070	2480.749287
475.895321	2478.745428
476.265513	2478.175778
476.635645	2478.964719
477.005719	2478.768114
477.375734	2483.569813
477.745691	2477.296097
478.115588	2481.364308
478.485427	2481.278608
478.855207	2480.950933
479.224928	2479.284832
479.594591	2478.135449
479.964194	2484.245327
480.333739	2479.488999
480.703226	2480.701396
481.072653	2481.686942
481.442022	2481.467652
481.811333	2479.163844
482.180584	2475.025057
482.549777	2479.829277
482.918912	2477.540593
483.287988	2482.806078
483.657005	2479.209215
484.025964	2482.440594
484.394864	2479.708289
484.763706	2480.464462
485.132489	2480.401448
485.501213	2483.519401
485.869879	2484.794813
486.238487	2481.875985
486.607036	2482.049905
486.975527	2482.924545
487.343959	2480.114102
487.712333	2480.310707
488.080648	2480.910604
488.448905	2484.061325
488.817104	2480.625779
489.185244	2482.241469
489.553326	2479.478916
489.921350	2482.979998
490.289315	2483.249699
490.657222	2482.420430
491.025070	2483.353043
491.392861	2481.223156
491.760593	2480.797178
492.128267	2483.116109
492.495883	2483.305152
492.863440	2481.316417
493.230939	2482.795996
493.598380	2484.814978
493.965763	2483.721047
494.333088	2480.209884
494.700354	2479.423464
495.067563	2481.402117
495.434713	2482.574185
495.801805	2482.995121
496.168839	2482.276757
496.535815	2482.843887
496.902733	2484.015955
497.269593	2484.028558
497.636395	2483.116109
498.003139	2482.264154
498.369825	2482.586788
498.736453	2481.475213
499.103023	2481.487816
499.469535	2482.748105
499.835989	2482.133084
500.202385	2480.177116
500.568723	2475.554378
500.935003	2481.094606
501.301226	2474.987248
501.667390	2485.054433
502.033497	2484.220122
502.399546	2483.156438
502.765537	2481.863382
503.131470	2485.571151
503.497345	2483.232055
503.863163	2484.424288
504.228923	2484.620893
504.594625	2485.528301
504.960269	2483.577374
505.325856	2484.293218
505.691385	2482.491006
506.056856	2483.642909
506.422270	2481.860862
506.787625	2481.157621
507.152924	2478.679893
507.518164	2484.411685
507.883347	2484.832622
508.248472	2482.622076
508.613540	2484.557879
508.978550	2483.504278
509.343503	2482.801037
509.708398	2484.459576
510.073236	2483.166520
510.438016	2482.932107
510.802738	2485.072077
511.167403	2483.978146
511.532010	2484.930924
511.896561	2482.385142
512.261053	2484.383959
512.625488	2483.547128
512.989866	2484.295739
513.354186	2483.963023
513.718449	2484.726757
514.082655	2485.127529
514.446803	2482.624596
514.810894	2482.654843
515.174927	2483.839514
515.538904	2484.895636
515.902822	2483.716006
516.266684	2482.541417
516.630488	2485.934114
516.994235	2482.932107
517.357925	2483.315234
517.721558	2483.315234
518.085133	2483.368167
518.448651	2481.916314
518.812112	2479.998155
519.175516	2480.202322
519.538863	2479.730974
519.902152	2480.993783
520.265385	2484.368836
520.628560	2485.694659
520.991678	2484.502426
521.354739	2484.136943
521.717743	2483.791623
522.080690	2482.556541
522.443580	2482.256592
522.806413	2485.112406
523.169189	2483.627786
523.531908	2484.066366
523.894569	2483.451346
524.257174	2488.981491
524.619722	2485.450163
524.982213	2484.499906
525.344647	2481.964205
525.707025	2484.152066
526.069345	2485.971923
526.431608	2484.721716
526.793815	2487.098620
527.155964	2485.581233
527.518057	2482.775831
527.880093	2484.625934
528.242072	2486.249186
528.603995	2487.007880
528.965860	2485.162817
529.327669	2485.510657
529.689421	2486.198774
530.051117	2485.989567
530.412755	2486.518888
530.774337	2484.361274
531.135862	2484.746922
531.497331	2483.332878
531.858743	2483.557210
532.220098	2482.143166
532.581396	2485.311531
532.942638	2486.589464
533.303824	2485.278764
533.664953	2486.844042
534.026025	2485.011583
534.387040	2483.852117
534.747999	2485.245996
535.108902	2486.092910
535.469748	2484.542755
535.830537	2488.769763
536.191270	2483.829432
536.551947	2485.301449
536.912567	2482.493526
537.273131	2482.569144
537.633638	2479.337764
537.994089	2485.984525
538.354483	2486.357571
538.714821	2484.963692
539.075103	2486.854124
539.435328	2483.181644
539.795497	2484.731799
540.155609	2483.012765
540.515665	2484.968733
540.875665	2487.655668
541.235609	2486.912098
541.595496	2484.885554
541.955328	2483.090903
542.315102	2486.271871
542.674821	2482.017137
543.034483	2486.425626
543.394090	2483.877323
543.753640	2488.021152
544.113134	2488.827736
544.472571	2486.410503
544.831953	2484.210039
545.191278	2484.699031
545.550548	2485.813126
545.909761	2485.689618
546.268918	2483.446304
546.628019	2486.564258
546.987064	2486.455873
547.346053	2484.925883
547.704986	2485.339258
548.063863	2487.814464
548.422684	2486.571820
548.781449	2482.969915
549.140158	2485.674494
549.498811	2487.872437
549.857408	2485.245996
550.215949	2487.935452
550.574434	2485.067035
550.932864	2487.015441
551.291237	2489.553662
551.649555	2486.559217
552.007817	2484.555358
552.366022	2487.398569
552.724173	2488.515185
553.082267	2485.460245
553.440305	2486.198774
553.798288	2484.802375
554.156215	2486.234063
554.514086	2484.562920
554.871902	2483.640389
555.229661	2483.839514
555.587365	2478.619400
555.945014	2485.009062
556.302606	2487.171717
556.660143	2486.932262
557.017625	2486.460914
557.375050	2486.433188
557.732421	2487.302787
558.089735	2483.395893
558.446994	2486.400421
558.804197	2487.138950
559.161345	2486.483600
559.518437	2486.292036
559.875474	2484.038640
560.232455	2486.496203
560.589381	2483.141315
560.946251	2486.203816
561.303065	2486.458394
561.659825	2486.133239
562.016528	2486.435709
562.373177	2486.375215
562.729770	2486.723054
563.086307	2485.127529
563.442789	2483.776500
563.799216	2486.541573
564.155587	2485.661892
564.511904	2486.367653
564.868164	2487.990905
565.224370	2486.591984
565.580520	2487.363281
565.936615	2488.852942
566.292654	2486.082828
566.648638	2486.274392
567.004567	2486.037458
567.360441	2487.126347
567.716260	2488.187510
568.072023	2488.048878
568.427732	2484.996459
568.783385	2484.550317
569.138982	2487.569968
569.494525	2485.684577
569.850013	2488.908395
570.205445	2483.859679
570.560823	2488.429485
570.916145	2485.402272
571.271412	2486.435709
571.626625	2485.319093
571.981782	2485.268682
572.336884	2483.695842
572.691931	2484.484782
573.046923	2482.821201
573.401860	2481.611324
573.756743	2488.505102
574.111570	2486.972592
574.466342	2486.599546
574.821059	2487.564927
575.175722	2487.179279
575.530330	2490.720689
575.884882	2487.023003
576.239380	2486.108034
576.593823	2488.280771
576.948211	2488.384115
577.302544	2487.590133
577.656823	2484.111737
578.011047	2486.811275
578.365216	2487.454022
578.719330	2485.644248
579.073389	2487.824547
579.427394	2485.132570
579.781344	2485.291367
580.135239	2486.833960
580.489080	2485.971922
580.842866	2487.297746
581.196597	2487.867396
581.550273	2485.321614
581.903895	2486.012252
582.257463	2485.654330
582.610975	2488.028713
582.964434	2487.280102
583.317837	2487.423775
583.671186	2488.406800
584.024481	2487.418734
584.377721	2487.638024
584.730906	2488.142139
585.084037	2488.933600
585.437113	2488.384115
585.790135	2486.498723
586.143103	2486.554176
586.496016	2485.364463
586.848874	2488.384115
587.201679	2489.798158
587.554428	2485.727427
587.907124	2489.838487
588.259765	2487.176758
588.612352	2485.898826
588.964884	2485.888743
589.317362	2488.671460
589.669786	2484.210039
590.022155	2485.132570
590.374470	2482.218783
590.726731	2483.819350
591.078937	2484.966212
591.431090	2487.083497
591.783188	2483.920173
592.135232	2485.195585
592.487222	2486.602067
592.839157	2486.687766
593.191038	2487.431337
593.542866	2487.879999
593.894639	2484.497385
594.246358	2489.387304
594.598022	2485.480410
594.949633	2487.716162
595.301190	2487.552324
595.652692	2487.247334
596.004141	2488.202633
596.355535	2487.990905
596.706876	2484.590646
597.058162	2486.591984
597.409395	2486.196254
597.760573	2486.559217
598.111698	2487.486789
598.462768	2483.844556
598.813785	2486.070225
599.164748	2484.946048
599.515657	2487.471666
599.866511	2487.070894
600.217312	2485.402272
600.568060	2488.469814
600.918753	2486.612149
601.269392	2488.527788
601.619978	2482.473362
601.970510	2484.018475
602.320988	2487.638024
602.671412	2484.933445
603.021783	2490.294712
603.372100	2486.481079
603.722363	2487.685915
604.072572	2484.638537
604.422728	2486.317242
604.772830	2488.558034
605.122878	2488.303456
605.472872	2487.509474
605.822813	2483.567292
606.172701	2485.785400
606.522534	2488.333703
606.872314	2486.176089
607.222041	2486.143322
607.571714	2486.491161
607.921333	2482.327168
608.270899	2484.673825
608.620411	2482.511170
608.969870	2485.687097
609.319276	2489.420072
609.668627	2485.629124
610.017926	2484.026037
610.367171	2488.142139
610.716362	2483.569813
611.065500	2487.932931
611.414585	2486.256748
611.763616	2489.750267
612.112594	2485.734988
612.461518	2486.982674
612.810389	2487.396048
613.159207	2487.171717
613.507971	2487.748929
613.856682	2486.607108
614.205340	2486.239104
614.553945	2487.433857
614.902496	2488.348827
615.250994	2486.778507
615.599439	2487.156594
615.947830	2488.694146
616.296169	2488.280771
616.644454	2487.413692
616.992686	2485.266161
617.340864	2485.447642
617.688990	2486.108034
618.037063	2488.043837
618.385082	2486.783548
618.733048	2487.033085
619.080961	2485.056953
619.428821	2486.534011
619.776628	2485.566110
620.124382	2488.202633
620.472083	2485.929073
620.819731	2486.246665
621.167326	2487.461583
621.514868	2485.094762
621.862357	2484.814978
622.209793	2485.966881
622.557176	2483.179123
622.904506	2485.787920
623.251783	2487.708600
623.599007	2488.104331
623.946179	2487.078456
624.293297	2486.483600
624.640363	2486.075266
624.987376	2483.756335
625.334336	2482.546458
625.681243	2483.131232
626.028097	2479.108392
626.374899	2484.883033
626.721647	2484.550317
627.068343	2486.042499
627.414987	2484.512508
627.761577	2485.172900
628.108115	2486.705410
628.454600	2487.517036
628.801032	2483.211891
629.147412	2485.417396
629.493739	2489.140288
629.840014	2486.360091
630.186236	2486.085348
630.532405	2484.452015
630.878521	2485.225832
631.224585	2487.552324
631.570597	2485.782879
631.916556	2486.513847
632.262462	2487.781697
632.608316	2484.230204
632.954117	2486.745740
633.299866	2485.450163
633.645562	2487.925370
633.991206	2486.082828
634.336797	2484.671305
634.682336	2486.980153
635.027823	2485.205667
635.373257	2485.664412
635.718639	2485.482931
636.063968	2486.090390
636.409245	2485.273723
636.754470	2487.529639
637.099642	2486.418065
637.444762	2488.724392
637.789829	2485.351861
638.134845	2483.015286
638.479808	2485.359422
638.824719	2485.394710
639.169577	2484.522591
639.514383	2486.435709
639.859137	2486.077787
640.203839	2483.615183
640.548489	2488.061481
640.893086	2485.382108
641.237632	2485.152735
641.582125	2487.801861
641.926566	2485.795482
642.270955	2484.328506
642.615292	2481.679380
642.959576	2481.291211
643.303809	2483.539566
643.647990	2487.312869
643.992118	2487.171717
644.336195	2486.644917
