Dividing Wavelength (nm)	Counts (n)	Blue Motor Position (mm): 4.600000	Red Motor Position (mm): 0.000000	
326.493990	2064.838971
326.888308	2064.838971
327.282561	2064.838971
327.676750	2041.180836
328.070874	2041.821063
328.464933	2047.973791
328.858929	2056.417724
329.252859	2065.582542
329.646726	2081.207598
330.040528	2097.203179
330.434265	2114.305293
330.827938	2134.212810
331.221547	2155.080666
331.615091	2174.547082
332.008571	2196.375278
332.401986	2215.584595
332.795338	2236.023953
333.188625	2257.766450
333.581847	2276.025509
333.975006	2293.490586
334.368100	2307.313430
334.761129	2328.687923
335.154095	2342.190653
335.546996	2358.266893
335.939833	2373.135776
336.332606	2385.731099
336.725315	2395.977244
337.117960	2408.267577
337.510540	2414.599266
337.903056	2425.866245
338.295508	2434.138779
338.687896	2436.109870
339.080220	2445.085644
339.472480	2446.424071
339.864676	2450.025975
340.256807	2454.507561
340.648875	2455.641820
341.040879	2458.797583
341.432818	2461.227419
341.824694	2459.221040
342.216506	2458.911009
342.608253	2459.904116
342.999937	2458.689198
343.391557	2456.405555
343.783113	2459.747840
344.174605	2455.372119
344.566033	2455.087293
344.957397	2451.039247
345.348697	2449.242076
345.739934	2445.640171
346.131106	2446.892898
346.522215	2444.309307
346.913260	2441.753442
347.304241	2442.403750
347.695159	2440.334357
348.086012	2440.568770
348.476802	2435.782195
348.867528	2432.195414
349.258191	2431.401432
349.648789	2432.583583
350.039324	2424.623601
350.429796	2431.615681
350.820203	2431.577872
351.210548	2429.838674
351.600828	2428.437234
351.991045	2428.722059
352.381198	2428.853129
352.771288	2428.525454
353.161314	2429.652152
353.551276	2427.509661
353.941175	2428.933787
354.331010	2426.796338
354.720782	2424.333734
355.110490	2430.115938
355.500135	2428.787594
355.889717	2430.589806
356.279235	2428.790114
356.668689	2428.444795
357.058080	2428.780032
357.447408	2433.579211
357.836672	2433.710281
358.225873	2430.670465
358.615010	2432.921340
359.004084	2437.229006
359.393095	2431.754313
359.782043	2433.377564
360.170927	2434.179108
360.559748	2434.773964
360.948505	2436.427463
361.337199	2438.423759
361.725830	2433.029725
362.114398	2435.187339
362.502903	2437.382761
362.891344	2436.069541
363.279722	2436.782864
363.668037	2436.029211
364.056289	2437.060127
364.444478	2438.300251
364.832603	2438.068358
365.220665	2437.533996
365.608665	2437.609613
365.996601	2440.609100
366.384474	2437.944850
366.772284	2439.953750
367.160031	2438.847216
367.547715	2441.456013
367.935336	2439.505087
368.322893	2438.862340
368.710388	2439.545416
369.097820	2440.336877
369.485189	2436.540888
369.872495	2442.050870
370.259738	2444.445418
370.646918	2441.355190
371.034035	2442.270160
371.421090	2444.909204
371.808081	2444.916766
372.195010	2442.552464
372.581875	2442.118925
372.968678	2444.773093
373.355418	2444.871395
373.742096	2444.112702
374.128710	2446.930707
374.515262	2446.280398
374.901751	2446.610593
375.288177	2447.833073
375.674540	2445.269646
376.060841	2445.819132
376.447079	2444.793257
376.833254	2450.242745
377.219367	2445.156220
377.605417	2448.685028
377.991404	2448.057404
378.377329	2445.821653
378.763191	2446.340892
379.148991	2448.165789
379.534727	2448.304421
379.920402	2448.558999
380.306013	2446.640840
380.691563	2446.698813
381.077049	2449.358022
381.462474	2446.923145
381.847835	2448.604370
382.233134	2447.412137
382.618371	2448.866510
383.003545	2450.275512
383.388657	2450.698969
383.773706	2450.020934
384.158693	2449.358022
384.543618	2452.607046
384.928480	2448.054884
385.313280	2452.226439
385.698017	2450.557817
386.082692	2451.775255
386.467305	2452.201233
386.851856	2453.867334
387.236344	2452.627210
387.620770	2450.951027
388.005133	2447.200408
388.389435	2450.388938
388.773674	2446.701334
389.157851	2450.598146
389.541965	2454.898250
389.926018	2455.228446
390.310008	2453.761470
390.693936	2455.707355
391.077802	2456.057716
391.461606	2455.422530
391.845348	2453.363219
392.229027	2456.740792
392.612645	2454.305915
392.996200	2454.646192
393.379694	2455.737602
393.763125	2454.048816
394.146494	2455.755246
394.529801	2456.206430
394.913047	2457.224743
395.296230	2458.769856
395.679351	2455.172993
396.062410	2458.409414
396.445408	2458.316153
396.828343	2456.408076
397.211217	2456.645010
397.594028	2456.090483
397.976778	2458.744651
398.359466	2455.483024
398.742092	2457.484362
399.124656	2458.694239
399.507158	2458.210288
399.889598	2459.314301
400.271977	2456.186265
400.654294	2456.496296
401.036549	2457.892696
401.418742	2459.561317
401.800874	2460.536781
402.182944	2459.831019
402.564952	2460.682974
402.946898	2459.553756
403.328783	2459.226081
403.710606	2461.393777
404.092367	2458.520319
404.474067	2461.897892
404.855705	2462.301185
405.237282	2461.781946
405.618797	2458.721965
406.000250	2462.288582
406.381642	2459.707511
406.762972	2460.156174
407.144240	2455.780452
407.525447	2461.751699
407.906593	2456.831533
408.287677	2463.879066
408.668700	2463.090125
409.049661	2462.482666
409.430560	2464.383181
409.811399	2462.873356
410.192176	2463.034673
410.572891	2460.907306
410.953545	2463.211113
411.334138	2464.302523
411.714669	2462.931329
412.095139	2460.088118
412.475547	2464.136165
412.855894	2464.186576
413.236180	2464.998202
413.616405	2465.275465
413.996568	2463.243880
414.376670	2463.170784
414.756711	2464.335290
415.136691	2465.807307
415.516609	2463.485856
415.896466	2464.168932
416.276262	2465.575414
416.655997	2465.172122
417.035670	2466.467698
417.415283	2467.584314
417.794834	2465.517441
418.174324	2463.833695
418.553753	2466.049283
418.933121	2466.427369
419.312428	2467.105404
419.691674	2466.346711
420.070859	2465.953501
420.449983	2467.168419
420.829045	2467.014663
421.208047	2468.027935
421.586988	2466.913840
421.965867	2470.387195
422.344686	2467.760754
422.723444	2465.378809
423.102141	2467.919551
423.480777	2468.821917
423.859352	2468.796711
424.237866	2470.210755
424.616319	2466.923923
424.994712	2469.719242
425.373044	2470.094808
425.751314	2469.633543
426.129524	2465.272945
426.507673	2467.405353
426.885762	2463.558953
427.263789	2468.191773
427.641756	2468.350569
428.019662	2470.049438
428.397508	2468.108594
428.775292	2470.293934
429.153016	2469.250415
429.530679	2469.341156
429.908282	2468.348049
430.285824	2469.313430
430.663305	2469.590693
431.040726	2469.830148
431.418086	2469.512555
431.795385	2472.471713
432.172624	2469.338635
432.549802	2468.756382
432.926920	2470.243523
433.303977	2472.454068
433.680974	2469.026084
434.057910	2472.174284
434.434786	2469.867957
434.811601	2471.463482
435.188355	2470.724953
435.565050	2470.503142
435.941683	2471.171095
436.318257	2471.473564
436.694770	2468.141361
437.071222	2469.189921
437.447614	2471.851651
437.823946	2473.585808
438.200218	2470.593883
438.576429	2470.520786
438.952580	2471.644963
439.328670	2471.133286
439.704700	2474.125211
440.080670	2472.169243
440.456580	2471.690334
440.832429	2474.752835
441.208218	2472.509521
441.583947	2473.048925
441.959616	2472.053297
442.335224	2470.634212
442.710773	2472.897690
443.086261	2473.752166
443.461689	2472.441466
443.837057	2473.306023
444.212365	2475.020016
444.587612	2470.329222
444.962800	2466.286217
445.337927	2471.173615
445.712995	2468.169088
446.088002	2473.079172
446.462949	2474.004223
446.837837	2474.324337
447.212664	2474.621765
447.587431	2473.754686
447.962139	2474.576394
448.336786	2474.561271
448.711374	2474.503298
449.085901	2477.124697
449.460369	2475.425829
449.834776	2473.353914
450.209124	2472.688482
450.583412	2473.164871
450.957640	2477.767445
451.331808	2473.457258
451.705917	2474.639409
452.079965	2474.258802
452.453954	2474.871302
452.827883	2475.408185
453.201752	2474.704944
453.575562	2478.644605
453.949311	2477.371714
454.323001	2476.524800
454.696632	2475.914821
455.070202	2475.362814
455.443713	2475.115798
455.817164	2473.222844
456.190556	2476.255098
456.563888	2477.313741
456.937160	2476.146714
457.310373	2476.418936
457.683526	2477.603607
458.056619	2477.076807
458.429653	2474.893987
458.802628	2476.182002
459.175542	2477.069245
459.548398	2477.679224
459.921194	2478.379945
460.293930	2477.717033
460.666607	2476.923051
461.039224	2478.132928
461.411782	2477.144862
461.784280	2478.339616
462.156719	2476.570171
462.529099	2475.725777
462.901419	2477.144862
463.273680	2477.699389
463.645882	2470.989613
464.018024	2475.766107
464.390106	2474.344501
464.762130	2481.628968
465.134094	2476.698720
465.505999	2476.726446
465.877845	2481.011427
466.249631	2476.771817
466.621358	2481.550831
466.993026	2477.621251
467.364634	2483.794144
467.736184	2477.845583
468.107674	2480.212404
468.479105	2478.601756
468.850477	2479.698207
469.221790	2481.114771
469.593043	2479.488999
469.964238	2479.788947
470.335373	2476.623103
470.706449	2479.635192
471.077467	2480.338433
471.448425	2481.165182
471.819324	2479.020171
472.190164	2478.233751
472.560945	2477.296097
472.931667	2479.010089
473.302330	2480.706437
473.672934	2480.235089
474.043479	2480.361118
474.413965	2481.732312
474.784393	2478.700058
475.154761	2480.512353
475.525070	2477.338947
475.895321	2478.911787
476.265513	2479.093268
476.635645	2477.838021
477.005719	2477.336426
477.375734	2480.741725
477.745691	2480.217445
478.115588	2478.876498
478.485427	2478.190902
478.855207	2477.545634
479.224928	2480.020840
479.594591	2481.336582
479.964194	2481.639051
480.333739	2480.199801
480.703226	2481.812971
481.072653	2483.297590
481.442022	2479.388176
481.811333	2479.073103
482.180584	2477.893473
482.549777	2478.500933
482.918912	2476.413895
483.287988	2481.381952
483.657005	2481.424802
484.025964	2481.225676
484.394864	2481.122332
484.763706	2480.671149
485.132489	2482.175934
485.501213	2482.450677
485.869879	2483.917652
486.238487	2480.804740
486.607036	2481.956643
486.975527	2481.240800
487.343959	2477.414564
487.712333	2480.686273
488.080648	2481.422281
488.448905	2481.334061
488.817104	2480.840028
489.185244	2482.022178
489.553326	2480.106540
489.921350	2481.888588
490.289315	2481.139977
490.657222	2480.272898
491.025070	2479.857003
491.392861	2482.732981
491.760593	2481.190388
492.128267	2481.364308
492.495883	2481.767600
492.863440	2482.896819
493.230939	2484.661223
493.598380	2485.049391
493.965763	2482.395224
494.333088	2480.948413
494.700354	2480.943372
495.067563	2481.553351
495.434713	2479.806591
495.801805	2486.050060
496.168839	2482.596870
496.535815	2484.434371
496.902733	2479.967908
497.269593	2483.877323
497.636395	2484.656181
498.003139	2483.252220
498.369825	2482.581747
498.736453	2484.613332
499.103023	2481.911273
499.469535	2483.887405
499.835989	2482.859010
500.202385	2481.931438
500.568723	2476.701241
500.935003	2482.523773
501.301226	2473.361476
501.667390	2483.201808
502.033497	2483.148876
502.399546	2484.494864
502.765537	2482.251551
503.131470	2485.540904
503.497345	2482.826243
503.863163	2481.180306
504.228923	2481.523104
504.594625	2485.495533
504.960269	2482.115440
505.325856	2483.211891
505.691385	2484.154587
506.056856	2482.826242
506.422270	2479.552013
506.787625	2484.293218
507.152924	2483.589977
507.518164	2486.261789
507.883347	2484.305821
508.248472	2484.976295
508.613540	2483.496716
508.978550	2481.374390
509.343503	2485.258599
509.708398	2482.513691
510.073236	2484.371356
510.438016	2485.195585
510.802738	2482.715337
511.167403	2482.967395
511.532010	2482.128043
511.896561	2483.844556
512.261053	2483.438743
512.625488	2484.041161
512.989866	2483.970584
513.354186	2483.912611
513.718449	2482.163331
514.082655	2485.616521
514.446803	2483.952940
514.810894	2485.704741
515.174927	2482.110399
515.538904	2485.404793
515.902822	2484.509988
516.266684	2484.699031
516.630488	2484.202478
516.994235	2485.901346
517.357925	2482.128043
517.721558	2485.450163
518.085133	2484.015955
518.448651	2483.683239
518.812112	2483.126191
519.175516	2480.784575
519.538863	2478.516056
519.902152	2482.995121
520.265385	2484.908239
520.628560	2484.368836
520.991678	2485.898826
521.354739	2487.819505
521.717743	2482.342292
522.080690	2485.387149
522.443580	2483.993270
522.806413	2485.175420
523.169189	2485.709782
523.531908	2484.028558
523.894569	2486.856645
524.257174	2486.481079
524.619722	2483.552169
524.982213	2483.247179
525.344647	2484.452015
525.707025	2484.257930
526.069345	2486.458394
526.431608	2484.504947
526.793815	2485.399752
527.155964	2485.273723
527.518057	2483.826912
527.880093	2483.700883
528.242072	2486.145842
528.603995	2482.380100
528.965860	2483.020327
529.327669	2483.365646
529.689421	2484.497385
530.051117	2482.619555
530.412755	2484.971253
530.774337	2482.233907
531.135862	2484.300780
531.497331	2483.474031
531.858743	2484.625934
532.220098	2484.154587
532.581396	2484.399082
532.942638	2483.312714
533.303824	2484.192395
533.664953	2486.498723
534.026025	2485.359422
534.387040	2482.508650
534.747999	2484.394041
535.108902	2484.376397
535.469748	2484.207519
535.830537	2486.453353
536.191270	2482.803557
536.551947	2483.716006
536.912567	2482.869092
537.273131	2483.007724
537.633638	2479.541931
537.994089	2485.679536
538.354483	2485.119968
538.714821	2487.779176
539.075103	2485.074597
539.435328	2486.191213
539.795497	2489.929228
540.155609	2482.395224
540.515665	2486.143322
540.875665	2486.546614
541.235609	2486.355050
541.595496	2486.959989
541.955328	2484.608290
542.315102	2484.320945
542.674821	2484.333548
543.034483	2482.793475
543.394090	2488.777325
543.753640	2484.807416
544.113134	2484.688949
544.472571	2483.673156
544.831953	2484.220122
545.191278	2488.190030
545.550548	2484.946048
545.909761	2485.881182
546.268918	2486.544093
546.628019	2484.522591
546.987064	2485.309011
547.346053	2486.602067
547.704986	2483.214411
548.063863	2487.338075
548.422684	2485.382107
548.781449	2487.643065
549.140158	2484.378918
549.498811	2486.221460
549.857408	2486.087869
550.215949	2488.346306
550.574434	2485.863538
550.932864	2484.794813
551.291237	2484.734319
551.649555	2486.357571
552.007817	2485.137612
552.366022	2487.348157
552.724173	2484.298259
553.082267	2485.724906
553.440305	2487.585092
553.798288	2484.293218
554.156215	2483.804226
554.514086	2484.643578
554.871902	2481.515542
555.229661	2483.693321
555.587365	2480.199801
555.945014	2486.652478
556.302606	2484.895636
556.660143	2486.773466
557.017625	2487.885040
557.375050	2487.575009
557.732421	2484.318424
558.089735	2487.557365
558.446994	2485.787920
558.804197	2485.009062
559.161345	2488.290853
559.518437	2485.530822
559.875474	2486.957468
560.232455	2486.627273
560.589381	2487.625421
560.946251	2488.729434
561.303065	2483.660553
561.659825	2486.518888
562.016528	2484.588126
562.373177	2485.699700
562.729770	2486.609628
563.086307	2487.743888
563.442789	2485.815647
563.799216	2487.547283
564.155587	2483.935296
564.511904	2487.038127
564.868164	2484.479741
565.224370	2485.109885
565.580520	2483.579895
565.936615	2486.685246
566.292654	2485.881182
566.648638	2488.439567
567.004567	2485.412354
567.360441	2484.693990
567.716260	2485.951758
568.072023	2485.616521
568.427732	2487.408651
568.783385	2486.223980
569.138982	2484.227683
569.494525	2486.995277
569.850013	2487.766573
570.205445	2485.825729
570.560823	2487.446460
570.916145	2484.532673
571.271412	2486.493682
571.626625	2485.167858
571.981782	2485.941676
572.336884	2484.893116
572.691931	2481.520584
573.046923	2483.942858
573.401860	2481.180306
573.756743	2487.272540
574.111570	2485.853455
574.466342	2485.394710
574.821059	2488.437047
575.175722	2485.190544
575.530330	2487.121306
575.884882	2484.898157
576.239380	2486.183651
576.593823	2487.890082
576.948211	2485.714824
577.302544	2486.271871
577.656823	2486.191213
578.011047	2488.263127
578.365216	2487.045688
578.719330	2488.033754
579.073389	2486.082828
579.427394	2485.278764
579.781344	2486.470997
580.135239	2487.282623
580.489080	2486.929742
580.842866	2486.914618
581.196597	2488.069043
581.550273	2484.189875
581.903895	2487.890082
582.257463	2483.065697
582.610975	2485.918990
582.964434	2484.585605
583.317837	2487.549804
583.671186	2485.495533
584.024481	2485.440081
584.377721	2486.622231
584.730906	2485.823208
585.084037	2485.699700
585.437113	2484.850266
585.790135	2487.408651
586.143103	2485.840852
586.496016	2488.532829
586.848874	2486.773466
587.201679	2486.546614
587.554428	2485.046871
587.907124	2486.261789
588.259765	2485.316573
588.612352	2487.496872
588.964884	2486.730616
589.317362	2489.183137
589.669786	2485.034268
590.022155	2486.002169
590.374470	2479.809112
590.726731	2486.163486
591.078937	2482.155769
591.431090	2485.803044
591.783188	2487.660709
592.135232	2487.582571
592.487222	2488.711790
592.839157	2484.520070
593.191038	2485.835811
593.542866	2485.629124
593.894639	2488.772283
594.246358	2484.827581
594.598022	2487.809423
594.949633	2486.534011
595.301190	2486.092910
595.652692	2486.985194
596.004141	2486.523929
596.355535	2485.666933
596.706876	2487.436378
597.058162	2486.181130
597.409395	2486.959989
597.760573	2484.968733
598.111698	2487.464104
598.462768	2489.498210
598.813785	2488.631131
599.164748	2483.811788
599.515657	2487.108703
599.866511	2485.976964
600.217312	2486.392859
600.568060	2486.181130
600.918753	2487.721203
601.269392	2489.168014
601.619978	2488.689104
601.970510	2485.848414
602.320988	2486.793631
602.671412	2486.730616
603.021783	2489.094917
603.372100	2485.099803
603.722363	2488.928559
604.072572	2487.227170
604.422728	2486.279433
604.772830	2488.283292
605.122878	2487.867396
605.472872	2489.465442
605.822813	2485.689618
606.172701	2486.420585
606.522534	2486.400421
606.872314	2485.987046
607.222041	2487.023003
607.571714	2485.578713
607.921333	2480.948413
608.270899	2484.482262
608.620411	2479.758700
608.969870	2486.208857
609.319276	2487.333034
609.668627	2486.017293
610.017926	2486.120637
610.367171	2487.176758
610.716362	2487.537201
611.065500	2485.485451
611.414585	2484.673825
611.763616	2485.881182
612.112594	2485.112406
612.461518	2486.549135
612.810389	2486.866727
613.159207	2488.464773
613.507971	2485.064515
613.856682	2487.058291
614.205340	2488.242962
614.553945	2486.322283
614.902496	2486.919659
615.250994	2486.695328
615.599439	2484.535194
615.947830	2489.140288
616.296169	2485.654330
616.644454	2486.944865
616.992686	2487.327993
617.340864	2485.397231
617.688990	2486.904536
618.037063	2485.843373
618.385082	2487.776656
618.733048	2486.337406
619.080961	2489.450319
619.428821	2485.049391
619.776628	2487.285143
620.124382	2485.268682
620.472083	2484.207519
620.819731	2486.327324
621.167326	2488.492499
621.514868	2486.987715
621.862357	2487.128867
622.209793	2486.627272
622.557176	2486.057622
622.904506	2486.952427
623.251783	2485.760194
623.599007	2487.660709
623.946179	2486.279433
624.293297	2487.920328
624.640363	2483.799185
624.987376	2483.877323
625.334336	2483.156438
625.681243	2485.614001
626.028097	2480.625779
626.374899	2485.513177
626.721647	2484.000831
627.068343	2487.612818
627.414987	2485.097282
627.761577	2486.677684
628.108115	2487.471666
628.454600	2486.876810
628.801032	2486.133239
629.147412	2487.978302
629.493739	2486.483600
629.840014	2485.631645
630.186236	2482.967395
630.532405	2489.357057
630.878521	2486.050060
631.224585	2484.215080
631.570597	2485.830770
631.916556	2485.195585
632.262462	2485.480410
632.608316	2486.188692
632.954117	2485.329175
633.299866	2487.879999
633.645562	2487.799341
633.991206	2486.390338
634.336797	2488.207674
634.682336	2485.182982
635.027823	2486.072746
635.373257	2486.120637
635.718639	2483.015286
636.063968	2485.808085
636.409245	2485.782879
636.754470	2486.818836
637.099642	2485.717344
637.444762	2486.108034
637.789829	2483.181644
638.134845	2488.479897
638.479808	2484.840183
638.824719	2487.983343
639.169577	2483.602580
639.514383	2486.289515
639.859137	2485.404793
640.203839	2485.586274
640.548489	2486.319762
640.893086	2485.298928
641.237632	2484.893116
641.582125	2489.611636
641.926566	2484.910760
642.270955	2482.879175
642.615292	2481.704586
642.959576	2486.019813
643.303809	2482.979998
643.647990	2485.916470
643.992118	2485.455204
644.336195	2483.678198
