Dividing Wavelength (nm)	Counts (n)	Blue Motor Position (mm): 35.300000	Red Motor Position (mm): 0.000000	
326.493990	2131.162912
326.888308	2131.162912
327.282561	2131.162912
327.676750	2099.312902
328.070874	2096.890628
328.464933	2099.454054
328.858929	2105.281628
329.252859	2114.791765
329.646726	2128.450771
330.040528	2140.965436
330.434265	2156.330873
330.827938	2175.772082
331.221547	2190.701459
331.615091	2211.891950
332.008571	2229.092367
332.401986	2251.560789
332.795338	2270.313882
333.188625	2290.125616
333.581847	2308.908955
333.975006	2325.847232
334.368100	2342.742659
334.761129	2361.410052
335.154095	2377.524100
335.546996	2399.057389
335.939833	2426.403128
336.332606	2440.175560
336.725315	2453.947993
337.117960	2462.956535
337.510540	2467.397791
337.903056	2482.974957
338.295508	2487.779176
338.687896	2499.013387
339.080220	2503.749552
339.472480	2512.541324
339.864676	2518.157169
340.256807	2521.905267
340.648875	2522.185051
341.040879	2522.217819
341.432818	2525.285361
341.824694	2527.402645
342.216506	2530.669313
342.608253	2526.500279
342.999937	2531.614529
343.391557	2528.524302
343.783113	2527.074970
344.174605	2526.596061
344.566033	2525.882737
344.957397	2525.527336
345.348697	2521.582633
345.739934	2520.647499
346.131106	2519.588857
346.522215	2518.651202
346.913260	2513.378155
347.304241	2517.161541
347.695159	2510.252640
348.086012	2508.967146
348.476802	2506.620489
348.867528	2506.302896
349.258191	2506.673421
349.648789	2505.516476
350.039324	2504.367093
350.429796	2503.351300
350.820203	2499.099087
351.210548	2498.239570
351.600828	2501.100425
351.991045	2496.321411
352.381198	2498.910044
352.771288	2497.390136
353.161314	2496.061792
353.551276	2497.760661
353.941175	2498.181597
354.331010	2495.338386
354.720782	2493.616832
355.110490	2496.059271
355.500135	2496.797800
355.889717	2496.170177
356.279235	2497.180928
356.668689	2498.249653
357.058080	2495.930722
357.447408	2495.671102
357.836672	2494.045330
358.225873	2495.073726
358.615010	2495.230002
359.004084	2501.228975
359.393095	2499.615805
359.782043	2501.816269
360.170927	2497.934581
360.559748	2502.680827
360.948505	2504.031856
361.337199	2500.089674
361.725830	2502.527072
362.114398	2502.610251
362.502903	2502.595127
362.891344	2503.500014
363.279722	2502.751403
363.668037	2505.105622
364.056289	2504.109994
364.444478	2507.800119
364.832603	2505.093019
365.220665	2508.800788
365.608665	2507.537979
365.996601	2505.440859
366.384474	2510.902949
366.772284	2509.435973
367.160031	2508.102588
367.547715	2508.831035
367.935336	2508.599142
368.322893	2507.200221
368.710388	2510.965963
369.097820	2515.092148
369.485189	2511.520490
369.872495	2509.015037
370.259738	2509.241889
370.646918	2509.814060
371.034035	2513.181550
371.421090	2513.947806
371.808081	2508.417660
372.195010	2512.929493
372.581875	2514.280522
372.968678	2510.658453
373.355418	2514.227590
373.742096	2514.267919
374.128710	2510.902949
374.515262	2513.705830
374.901751	2515.404699
375.288177	2514.172137
375.674540	2515.500481
376.060841	2514.925790
376.447079	2512.924452
376.833254	2517.043074
377.219367	2512.296828
377.605417	2514.033505
377.991404	2511.578463
378.377329	2514.214987
378.763191	2514.943434
379.148991	2517.862262
379.534727	2516.480986
379.920402	2516.632220
380.306013	2518.651202
380.691563	2517.340502
381.077049	2517.350585
381.462474	2520.186234
381.847835	2520.085411
382.233134	2518.779752
382.618371	2521.869979
383.003545	2522.757222
383.388657	2522.873169
383.773706	2521.199506
384.158693	2521.590195
384.543618	2521.978364
384.928480	2520.937366
385.313280	2522.220339
385.698017	2522.096831
386.082692	2525.018180
386.467305	2523.016842
386.851856	2527.153108
387.236344	2526.487676
387.620770	2524.486338
388.005133	2526.225536
388.389435	2525.774353
388.773674	2525.655886
389.157851	2524.703108
389.541965	2525.630680
389.926018	2528.277286
390.310008	2526.306194
390.693936	2527.042203
391.077802	2528.703263
391.461606	2528.632687
391.845348	2527.261493
392.229027	2527.523633
392.612645	2528.126051
392.996200	2527.697553
393.379694	2528.415917
393.763125	2528.783922
394.146494	2531.846422
394.529801	2530.268541
394.913047	2530.553367
395.296230	2530.825589
395.679351	2530.434899
396.062410	2535.672658
396.445408	2533.951104
396.828343	2534.780374
397.211217	2533.956145
397.594028	2533.225178
397.976778	2533.434386
398.359466	2537.091743
398.742092	2530.195445
399.124656	2536.970755
399.507158	2535.763399
399.889598	2538.112577
400.271977	2537.905889
400.654294	2542.687424
401.036549	2540.214738
401.418742	2543.557023
401.800874	2545.465100
402.182944	2544.933258
402.564952	2549.815615
402.946898	2552.545400
403.328783	2554.892057
403.710606	2562.073181
404.092367	2569.597103
404.474067	2573.793864
404.855705	2581.978177
405.237282	2589.242480
405.618797	2599.796135
406.000250	2615.784155
406.381642	2628.790332
406.762972	2640.546302
407.144240	2650.326141
407.525447	2668.270128
407.906593	2687.315607
408.287677	2704.702547
408.668700	2720.289794
409.049661	2739.617578
409.430560	2764.256218
409.811399	2778.235337
410.192176	2819.098930
410.572891	2834.620643
410.953545	2873.596324
411.334138	2881.440359
411.714669	2917.741708
412.095139	2928.000456
412.475547	2979.279073
412.855894	3005.730008
413.236180	3040.670245
413.616405	3062.143040
413.996568	3116.219497
414.376670	3132.063843
414.756711	3152.203253
415.136691	3199.350644
415.516609	3259.620159
415.896466	3306.581028
416.276262	3358.484748
416.655997	3387.365518
417.035670	3494.674040
417.415283	3572.494332
417.794834	3597.279164
418.174324	3617.927731
418.553753	3622.610962
418.933121	3749.625354
419.312428	3826.848269
419.691674	3851.756611
420.070859	3958.442549
420.449983	3960.406079
420.829045	4070.187286
421.208047	4064.258889
421.586988	4157.938651
421.965867	4206.532854
422.344686	4341.666024
422.723444	4294.934528
423.102141	4222.616655
423.480777	4460.047439
423.859352	4352.149103
424.237866	4574.406014
424.616319	4608.058237
424.994712	4730.238162
425.373044	4682.846275
425.751314	4833.783462
426.129524	4727.084920
426.507673	4914.860339
426.885762	5014.297099
427.263789	5003.433413
427.641756	4939.569555
428.019662	5071.461263
428.397508	5107.901244
428.775292	5103.081901
429.153016	5217.203541
429.530679	5187.929561
429.908282	5283.653511
430.285824	5195.849214
430.663305	5466.967509
431.040726	5257.376496
431.418086	5277.702429
431.795385	5396.887908
432.172624	5428.160706
432.549802	5444.428510
432.926920	5474.559486
433.303977	5496.468341
433.680974	5547.779725
434.057910	5584.849850
434.434786	5603.930617
434.811601	5582.775415
435.188355	5824.488660
435.565050	5711.438264
435.941683	5703.276636
436.318257	5920.852836
436.694770	5911.211630
437.071222	5952.465912
437.447614	5896.004989
437.823946	5817.874666
438.200218	5973.366536
438.576429	5845.958934
438.952580	5948.531292
439.328670	5997.624568
439.704700	5910.087452
440.080670	5901.494806
440.456580	6168.865003
440.832429	6059.028343
441.208218	5909.837915
441.583947	6062.824332
441.959616	6069.415640
442.335224	6000.056925
442.710773	6136.132791
443.086261	6163.365104
443.461689	5961.197191
443.837057	6107.549448
444.212365	6261.720536
444.587612	6153.013094
444.962800	6309.309028
445.337927	6292.020391
445.712995	5906.180558
446.088002	6481.860163
446.462949	6313.203320
446.837837	6247.267548
447.212664	6415.337097
447.587431	6560.945784
447.962139	7105.198836
448.336786	8022.086418
448.711374	7763.717201
449.085901	6834.851837
449.460369	6766.554285
449.834776	6696.699016
450.209124	7087.869869
450.583412	7241.488951
450.957640	7385.895323
451.331808	7147.340361
451.705917	6705.528597
452.079965	6628.063707
452.453954	6845.566810
452.827883	6716.929167
453.201752	6812.083466
453.575562	6608.597291
453.949311	6816.464229
454.323001	6705.226128
454.696632	6777.024762
455.070202	6915.805206
455.443713	7069.199956
455.817164	7172.649474
456.190556	7249.171669
456.563888	7327.596899
456.937160	7373.728498
457.310373	7025.402412
457.683526	7049.224384
458.056619	6947.514064
458.429653	6933.751714
458.802628	6865.696137
459.175542	6977.123281
459.548398	7330.503125
459.921194	7488.019018
460.293930	7492.606468
460.666607	8016.200871
461.039224	8329.828696
461.411782	8448.376469
461.784280	8470.423956
462.156719	8362.424796
462.529099	8248.890450
462.901419	7832.372675
463.273680	7727.418373
463.645882	7738.914724
464.018024	7603.718540
464.390106	7765.761389
464.762130	8151.422261
465.134094	8624.937842
465.505999	9642.373758
465.877845	10859.764521
466.249631	11508.530774
466.621358	11125.768565
466.993026	10505.351241
467.364634	10245.678886
467.736184	9879.796981
468.107674	9547.242144
468.479105	9578.464530
468.850477	9343.803860
469.221790	9120.866393
469.593043	8789.592009
469.964238	8651.487078
470.335373	8666.479470
470.706449	8726.703614
471.077467	8711.433959
471.448425	10005.659469
471.819324	11076.314846
472.190164	11098.299318
472.560945	9850.303710
472.931667	9071.354700
473.302330	8936.758413
473.672934	8580.026202
474.043479	8940.388044
474.413965	8879.193477
474.784393	8759.191330
475.154761	8921.667719
475.525070	9010.177778
475.895321	8834.904420
476.265513	9006.820369
476.635645	9180.493160
477.005719	9177.594497
477.375734	9285.840673
477.745691	9526.336479
478.115588	9655.871447
478.485427	9905.113655
478.855207	10437.502351
479.224928	11251.590724
479.594591	11877.142464
479.964194	11681.230622
480.333739	11630.718261
480.703226	11541.648634
481.072653	11644.105045
481.442022	11875.098276
481.811333	12056.597458
482.180584	11861.343488
482.549777	11573.274313
482.918912	11400.955071
483.287988	11425.369379
483.657005	11433.498240
484.025964	11117.407812
484.394864	11250.365724
484.763706	11217.031094
485.132489	10976.857922
485.501213	10943.666965
485.869879	11017.189673
486.238487	10863.184944
486.607036	10963.937444
486.975527	10750.313509
487.343959	10939.240832
487.712333	10983.590383
488.080648	10922.738615
488.448905	10956.733636
488.817104	10901.096941
489.185244	11167.070739
489.553326	11316.069602
489.921350	11861.356090
490.289315	12913.545721
490.657222	13266.008075
491.025070	13157.093946
491.392861	13038.203373
491.760593	12658.796053
492.128267	12317.401552
492.495883	11990.550781
492.863440	11646.098821
493.230939	11312.215640
493.598380	11250.771537
493.965763	11119.837648
494.333088	11017.658500
494.700354	10937.035327
495.067563	10997.637558
495.434713	10832.960706
495.801805	10959.360077
496.168839	10882.961390
496.535815	10819.813377
496.902733	10820.100722
497.269593	10748.418035
497.636395	10849.609116
498.003139	10840.189720
498.369825	10707.675430
498.736453	10863.338699
499.103023	10791.719026
499.469535	10820.811525
499.835989	10806.156891
500.202385	10777.213106
500.568723	10627.140477
500.935003	10846.828920
501.301226	10651.645525
501.667390	10911.244784
502.033497	11002.882878
502.399546	10870.252641
502.765537	10777.649166
503.131470	10850.082985
503.497345	11022.830724
503.863163	10631.790941
504.228923	10940.962386
504.594625	11008.251707
504.960269	10756.554458
505.325856	10973.956738
505.691385	10765.220201
506.056856	10927.522670
506.422270	10943.997160
506.787625	10836.996149
507.152924	10958.384613
507.518164	10938.585482
507.883347	10852.490136
508.248472	10773.356623
508.613540	11008.518888
508.978550	10891.342308
509.343503	10873.010153
509.708398	10983.297996
510.073236	11093.779923
510.438016	11107.413724
510.802738	11050.995651
511.167403	11106.975144
511.532010	11002.472024
511.896561	11232.736809
512.261053	11300.318517
512.625488	11175.965855
512.989866	11150.845785
513.354186	11143.047120
513.718449	11049.642101
514.082655	11240.691749
514.446803	11132.072528
514.810894	11255.938719
515.174927	11119.378903
515.538904	11144.909826
515.902822	11290.654625
516.266684	11182.279900
516.630488	11125.844183
516.994235	11180.896103
517.357925	11243.502193
517.721558	11330.063845
518.085133	11343.286792
518.448651	11357.855727
518.812112	11236.767211
519.175516	11254.464182
519.538863	11368.739578
519.902152	11288.260077
520.265385	11455.971704
520.628560	11362.460821
520.991678	11339.447953
521.354739	11400.556820
521.717743	11334.643734
522.080690	11315.900724
522.443580	11455.265942
522.806413	11405.235011
523.169189	11436.132243
523.531908	11498.506439
523.894569	11316.793008
524.257174	11321.738380
524.619722	11437.566451
524.982213	11386.819676
525.344647	11437.921852
525.707025	11393.332847
526.069345	11482.195786
526.431608	11400.811398
526.793815	11510.859787
527.155964	11294.924482
527.518057	11354.084943
527.880093	11299.380862
528.242072	11371.308046
528.603995	11270.580751
528.965860	11198.222549
529.327669	11242.899775
529.689421	11202.381501
530.051117	11167.405975
530.412755	11272.793817
530.774337	11157.046404
531.135862	11141.479321
531.497331	11164.126705
531.858743	11012.269507
532.220098	11188.664521
532.581396	11056.377083
532.942638	11031.728361
533.303824	10992.271250
533.664953	11017.978614
534.026025	10933.756056
534.387040	11029.734584
534.747999	11028.328102
535.108902	11090.843451
535.469748	10851.517193
535.830537	10951.732811
536.191270	10923.635940
536.551947	10954.041659
536.912567	10954.102153
537.273131	10876.259176
537.633638	10859.509943
537.994089	10843.910092
538.354483	10795.641044
538.714821	10938.935842
539.075103	10946.053951
539.435328	10913.452809
539.795497	10741.277241
540.155609	10893.383976
540.515665	10984.729683
540.875665	10719.761596
541.235609	10792.455035
541.595496	10784.404312
541.955328	10932.420151
542.315102	10825.416619
542.674821	10777.795359
543.034483	10777.195462
543.394090	10778.382654
543.753640	10703.508916
544.113134	10931.558113
544.472571	10780.686461
544.831953	10925.768348
545.191278	10733.473535
545.550548	10766.644327
545.909761	10897.631148
546.268918	10875.820596
546.628019	10956.572319
546.987064	10823.624489
547.346053	10748.919630
547.704986	10850.821514
548.063863	10831.362660
548.422684	10825.005765
548.781449	10741.549463
549.140158	10840.648465
549.498811	10718.329908
549.857408	10578.137941
550.215949	10801.183793
550.574434	10650.561677
550.932864	10749.597665
551.291237	10818.608541
551.649555	10757.177040
552.007817	10774.097673
552.366022	10733.584440
552.724173	10727.761907
553.082267	10715.968128
553.440305	10852.593479
553.798288	10652.303396
554.156215	10806.358537
554.514086	10782.370206
554.871902	10627.097627
555.229661	10670.388535
555.587365	10644.676130
555.945014	10535.814933
556.302606	10663.613225
556.660143	10555.848479
557.017625	10707.012518
557.375050	10611.966603
557.732421	10743.255894
558.089735	10660.817905
558.446994	10661.753039
558.804197	10695.039778
559.161345	10688.766062
559.518437	10545.524196
559.875474	10630.896136
560.232455	10666.375777
560.589381	10613.877201
560.946251	10613.983065
561.303065	10716.452079
561.659825	10648.209979
562.016528	10581.707077
562.373177	10461.417585
562.729770	10576.436551
563.086307	10490.928500
563.442789	10589.236041
563.799216	10467.570313
564.155587	10510.735193
564.511904	10461.813316
564.868164	10463.101330
565.224370	10468.621394
565.580520	10393.223376
565.936615	10399.756712
566.292654	10270.110838
566.648638	10408.417414
567.004567	10365.403769
567.360441	10342.940387
567.716260	10256.887891
568.072023	10347.313588
568.427732	10306.139964
568.783385	10213.715450
569.138982	10280.800604
569.494525	10298.358943
569.850013	10169.557463
570.205445	10249.520245
570.560823	10143.121652
570.916145	10068.371423
571.271412	10140.165015
571.626625	10083.545296
571.981782	10054.651922
572.336884	10032.236432
572.691931	10037.040651
573.046923	9983.717847
573.401860	9942.309809
573.756743	9872.709118
574.111570	9917.134287
574.466342	9901.315146
574.821059	9933.213047
575.175722	9825.324793
575.530330	9838.792235
575.884882	9830.015586
576.239380	9749.536086
576.593823	9733.560669
576.948211	9747.423842
577.302544	9630.738775
577.656823	9643.568511
578.011047	9640.143047
578.365216	9621.188309
578.719330	9539.173777
579.073389	9552.348832
579.427394	9500.311522
579.781344	9475.859405
580.135239	9432.228219
580.489080	9432.608826
580.842866	9339.105504
581.196597	9345.147327
581.550273	9382.288028
581.903895	9346.621865
582.257463	9418.236496
582.610975	9296.558166
582.964434	9322.510026
583.317837	9242.433817
583.671186	9223.980674
584.024481	9221.661743
584.377721	9142.412284
584.730906	9118.396227
585.084037	9148.476792
585.437113	9081.373993
585.790135	9108.084547
586.143103	9006.734669
586.496016	8977.178384
586.848874	9036.603506
587.201679	9022.964664
587.554428	8908.603569
587.907124	8961.628945
588.259765	8928.443030
588.612352	8934.676416
588.964884	8809.623033
589.317362	8821.076535
589.669786	8820.285074
590.022155	8875.130307
590.374470	8886.021720
590.726731	8813.807191
591.078937	8671.649173
591.431090	8782.673025
591.783188	8660.258686
592.135232	8653.740474
592.487222	8645.677149
592.839157	8703.085809
593.191038	8636.504769
593.542866	8584.785051
593.894639	8484.927355
594.246358	8536.084985
594.598022	8549.224752
594.949633	8451.249927
595.301190	8431.632277
595.652692	8454.098179
596.004141	8563.554232
596.355535	8342.388730
596.706876	8318.508785
597.058162	8255.433868
597.409395	8331.114190
597.760573	8392.681802
598.111698	8300.663100
598.462768	8288.816388
598.813785	8256.679033
599.164748	8220.861635
599.515657	8215.644040
599.866511	8123.786656
600.217312	8248.494719
600.568060	8110.074717
600.918753	8212.347126
601.269392	8176.796909
601.619978	8091.805576
601.970510	8156.274372
602.320988	8155.084659
602.671412	8210.192032
603.021783	8141.639902
603.372100	8120.744319
603.722363	8124.109289
604.072572	8092.811286
604.422728	8113.129656
604.772830	8033.124024
605.122878	8046.379738
605.472872	8038.969242
605.822813	8064.021256
606.172701	8013.047629
606.522534	8082.847445
606.872314	8085.975481
607.222041	8055.915081
607.571714	8108.879964
607.921333	8064.109476
608.270899	8078.244872
608.620411	8165.426586
608.969870	8070.007626
609.319276	8063.910351
609.668627	8079.704286
610.017926	8111.140921
610.367171	8163.710073
610.716362	8138.242164
611.065500	8132.308726
611.414585	8153.405955
611.763616	8147.951427
612.112594	8126.544167
612.461518	8141.904563
612.810389	8206.824542
613.159207	8140.213255
613.507971	8089.322807
613.856682	8214.096406
614.205340	8162.999271
614.553945	8247.579750
614.902496	8142.892629
615.250994	8197.127882
615.599439	8178.251282
615.947830	8188.671347
616.296169	8164.224271
616.644454	8177.875716
616.992686	8169.116711
617.340864	8228.325063
617.688990	8139.399109
618.037063	8227.853715
618.385082	8180.204729
618.733048	8261.558870
619.080961	8196.815331
619.428821	8216.904329
619.776628	8223.737613
620.124382	8170.074530
620.472083	8152.869072
620.819731	8185.041716
621.167326	8081.113288
621.514868	8091.629135
621.862357	7972.231927
622.209793	7994.372675
622.557176	7926.496059
622.904506	7899.014208
623.251783	7829.932757
623.599007	7779.896784
623.946179	7788.038248
624.293297	7747.792196
624.640363	7660.885224
624.987376	7642.653891
625.334336	7593.119514
625.681243	7537.964249
626.028097	7531.067951
626.374899	7504.541399
626.721647	7501.236923
627.068343	7429.355110
627.414987	7402.548775
627.761577	7360.490428
628.108115	7397.769761
628.454600	7288.994264
628.801032	7340.575350
629.147412	7304.132849
629.493739	7289.450488
629.840014	7227.353555
630.186236	7281.835825
630.532405	7164.145048
630.878521	7214.428037
631.224585	7172.102509
631.570597	7099.134328
631.916556	7135.501212
632.262462	7130.908720
632.608316	7086.549087
632.954117	7071.060142
633.299866	7052.072636
633.645562	7043.732047
633.991206	6965.740356
634.336797	6906.232055
634.682336	6866.331323
635.027823	6830.334963
635.373257	6824.293141
635.718639	6757.467605
636.063968	6772.641478
636.409245	6664.896897
636.754470	6661.494118
637.099642	6617.111800
637.444762	6564.446866
637.789829	6577.843732
638.134845	6517.523806
638.479808	6500.351115
638.824719	6506.397979
639.169577	6431.176402
639.514383	6455.583148
639.859137	6379.870059
640.203839	6389.120576
640.548489	6374.559203
