Dividing Wavelength (nm)	Counts (n)	Blue Motor Position (mm): 39.800000	Red Motor Position (mm): 0.000000	
326.493990	2132.488735
326.888308	2132.488735
327.282561	2132.488735
327.676750	2099.471698
328.070874	2096.996492
328.464933	2099.479260
328.858929	2106.793974
329.252859	2115.757146
329.646726	2127.505555
330.040528	2141.461989
330.434265	2154.808444
330.827938	2174.070693
331.221547	2194.384022
331.615091	2212.179295
332.008571	2230.677809
332.401986	2248.843607
332.795338	2268.073089
333.188625	2290.886830
333.581847	2307.890642
333.975006	2329.587768
334.368100	2346.982270
334.761129	2359.204547
335.154095	2375.709285
335.546996	2404.461506
335.939833	2425.213416
336.332606	2441.740839
336.725315	2453.350616
337.117960	2463.750516
337.510540	2472.980869
337.903056	2482.049905
338.295508	2488.694146
338.687896	2499.600682
339.080220	2506.358349
339.472480	2512.259019
339.864676	2517.416120
340.256807	2523.377284
340.648875	2524.977850
341.040879	2528.209230
341.432818	2525.766791
341.824694	2531.972451
342.216506	2530.074457
342.608253	2532.335414
342.999937	2531.564118
343.391557	2529.963552
343.783113	2533.320960
344.174605	2530.457585
344.566033	2526.903571
344.957397	2526.497758
345.348697	2522.568179
345.739934	2521.542304
346.131106	2521.403672
346.522215	2522.013652
346.913260	2516.387724
347.304241	2513.395799
347.695159	2513.398320
348.086012	2509.826663
348.476802	2506.330622
348.867528	2510.817249
349.258191	2505.529079
349.648789	2507.832886
350.039324	2504.198214
350.429796	2504.382216
350.820203	2501.022287
351.210548	2502.085971
351.600828	2500.634118
351.991045	2498.768892
352.381198	2499.814931
352.771288	2498.151350
353.161314	2497.503562
353.551276	2498.398367
353.941175	2497.629591
354.331010	2497.793428
354.720782	2496.901144
355.110490	2499.701505
355.500135	2498.221926
355.889717	2500.384581
356.279235	2499.852740
356.668689	2497.475836
357.058080	2499.572956
357.447408	2495.708911
357.836672	2493.629435
358.225873	2497.730414
358.615010	2495.668582
359.004084	2501.927174
359.393095	2499.953563
359.782043	2502.065806
360.170927	2503.358862
360.559748	2502.721156
360.948505	2502.345590
361.337199	2503.182422
361.725830	2505.967659
362.114398	2502.706033
362.502903	2504.165447
362.891344	2504.790550
363.279722	2505.554285
363.668037	2508.034532
364.056289	2508.125273
364.444478	2507.182577
364.832603	2509.113339
365.220665	2509.012516
365.608665	2508.064779
365.996601	2510.267763
366.384474	2511.643998
366.772284	2511.187774
367.160031	2512.107785
367.547715	2511.628875
367.935336	2511.603669
368.322893	2511.170130
368.710388	2512.788340
369.097820	2514.643485
369.485189	2514.948475
369.872495	2513.085768
370.259738	2515.006448
370.646918	2514.101561
371.034035	2512.500995
371.421090	2513.491581
371.808081	2517.269926
372.195010	2511.913700
372.581875	2515.729854
372.968678	2516.947292
373.355418	2516.654905
373.742096	2516.891840
374.128710	2520.027437
374.515262	2519.175482
374.901751	2518.550379
375.288177	2522.081708
375.674540	2519.432581
376.060841	2521.403672
376.447079	2522.147243
376.833254	2520.123219
377.219367	2516.296983
377.605417	2517.532066
377.991404	2516.037364
378.377329	2519.185565
378.763191	2516.685152
379.148991	2524.655217
379.534727	2522.548014
379.920402	2523.291584
380.306013	2523.780576
380.691563	2524.803931
381.077049	2524.685463
381.462474	2526.359127
381.847835	2529.048582
382.233134	2524.824095
382.618371	2524.362830
383.003545	2525.996163
383.388657	2526.903571
383.773706	2528.509179
384.158693	2527.599250
384.543618	2528.673016
384.928480	2529.005732
385.313280	2529.267872
385.698017	2529.126720
386.082692	2531.271731
386.467305	2531.453213
386.851856	2530.276103
387.236344	2537.011085
387.620770	2538.263811
388.005133	2537.610982
388.389435	2540.103832
388.773674	2544.287990
389.157851	2548.336037
389.541965	2553.190668
389.926018	2559.093859
390.310008	2570.862433
390.693936	2578.865264
391.077802	2589.842377
391.461606	2600.234716
391.845348	2613.941613
392.229027	2630.159005
392.612645	2644.211221
392.996200	2664.733758
393.379694	2687.275278
393.763125	2713.426263
394.146494	2730.505693
394.529801	2759.535177
394.913047	2788.395783
395.296230	2808.048721
395.679351	2840.314626
396.062410	2872.368803
396.445408	2896.445354
396.828343	2932.502207
397.211217	2966.461940
397.594028	2974.061479
397.976778	3021.960002
398.359466	3063.978020
398.742092	3106.623661
399.124656	3114.636575
399.507158	3174.533044
399.889598	3219.429560
400.271977	3284.941875
400.654294	3306.071871
401.036549	3343.078982
401.418742	3368.803990
401.800874	3454.783389
402.182944	3502.412211
402.564952	3575.554312
402.946898	3609.244343
403.328783	3646.415291
403.710606	3626.837970
404.092367	3786.435860
404.474067	3798.542191
404.855705	3838.460567
405.237282	3826.916325
405.618797	3938.598047
406.000250	3997.390504
406.381642	4086.387034
406.762972	4089.560440
407.144240	4132.511071
407.525447	4163.796472
407.906593	4240.842947
408.287677	4306.950118
408.668700	4278.039100
409.049661	4346.487887
409.430560	4410.041714
409.811399	4370.566959
410.192176	4531.868758
410.572891	4502.791383
410.953545	4612.628043
411.334138	4527.727450
411.714669	4607.838947
412.095139	4530.852966
412.475547	4677.994164
412.855894	4674.258669
413.236180	4698.551990
413.616405	4668.738606
413.996568	4760.737143
414.376670	4720.463365
414.756711	4681.671686
415.136691	4723.651895
415.516609	4808.023166
415.896466	4852.808777
416.276262	4894.428543
416.655997	4881.192993
417.035670	5059.775868
417.415283	5154.637781
417.794834	5100.296663
418.174324	5062.712341
418.553753	4973.599864
418.933121	5155.777082
419.312428	5227.434563
419.691674	5174.358775
420.070859	5299.260923
420.449983	5215.726483
420.829045	5329.528011
421.208047	5234.691304
421.586988	5311.500845
421.965867	5322.747659
422.344686	5459.199091
422.723444	5311.417666
423.102141	5133.243124
423.480777	5432.511222
423.859352	5202.939597
424.237866	5462.226303
424.616319	5452.469150
424.994712	5561.726077
425.373044	5433.610194
425.751314	5580.310291
426.129524	5384.864757
426.507673	5578.271144
426.885762	5664.023692
427.263789	5597.790492
427.641756	5478.259693
428.019662	5599.486840
428.397508	5602.665288
428.775292	5552.394902
429.153016	5654.483308
429.530679	5578.326597
429.908282	5664.353887
430.285824	5531.834556
430.663305	5812.203368
431.040726	5545.967431
431.418086	5547.036155
431.795385	5646.651876
432.172624	5667.393703
432.549802	5657.079503
432.926920	5673.309497
433.303977	5675.706566
433.680974	5715.219130
434.057910	5735.479527
434.434786	5740.908850
434.811601	5710.795517
435.188355	5942.970899
435.565050	5817.892310
435.941683	5794.559330
436.318257	6009.700652
436.694770	5991.577704
437.071222	6031.861565
437.447614	5957.920441
437.823946	5874.769128
438.200218	6034.407347
438.576429	5891.760338
438.952580	5995.270349
439.328670	6039.488830
439.704700	5946.416528
440.080670	5931.184681
440.456580	6203.986722
440.832429	6083.387198
441.208218	5934.264826
441.583947	6083.785449
441.959616	6091.508497
442.335224	6017.522002
442.710773	6152.083002
443.086261	6182.816396
443.461689	5973.709334
443.837057	6123.292972
444.212365	6283.279030
444.587612	6173.744840
444.962800	6325.778478
445.337927	6307.219470
445.712995	5921.190594
446.088002	6494.205948
446.462949	6320.805380
446.837837	6259.757007
447.212664	6429.243119
447.587431	6574.042702
447.962139	7118.129395
448.336786	8043.032412
448.711374	7785.815099
449.085901	6850.875145
449.460369	6775.109123
449.834776	6708.349123
450.209124	7103.056345
450.583412	7253.653255
450.957640	7396.834627
451.331808	7160.956518
451.705917	6712.256017
452.079965	6637.682228
452.453954	6849.287181
452.827883	6728.244036
453.201752	6822.977399
453.575562	6615.380163
453.949311	6824.998902
454.323001	6709.974895
454.696632	6789.189066
455.070202	6922.283089
455.443713	7082.415341
455.817164	7181.199271
456.190556	7258.394460
456.563888	7339.254568
456.937160	7381.796865
457.310373	7035.053701
457.683526	7062.890952
458.056619	6955.078315
458.429653	6943.768487
458.802628	6875.188630
459.175542	6988.430589
459.548398	7341.192891
459.921194	7501.950246
460.293930	7502.764393
460.666607	8028.385340
461.039224	8337.874377
461.411782	8463.197462
461.784280	8484.400555
462.156719	8377.979277
462.529099	8251.360615
462.901419	7840.541865
463.273680	7737.636792
463.645882	7749.604491
464.018024	7612.399407
464.390106	7779.223790
464.762130	8171.894387
465.134094	8636.756827
465.505999	9656.816664
465.877845	10879.039373
466.249631	11517.584686
466.621358	11134.088990
466.993026	10518.906903
467.364634	10263.159087
467.736184	9895.553107
468.107674	9567.086646
468.479105	9601.694167
468.850477	9362.362868
469.221790	9133.189493
469.593043	8810.447262
469.964238	8664.752875
470.335373	8677.970780
470.706449	8739.145182
471.077467	8714.438487
471.448425	10025.246872
471.819324	11094.485685
472.190164	11121.067689
472.560945	9870.491011
472.931667	9085.003624
473.302330	8948.239641
473.672934	8599.296013
474.043479	8954.102503
474.413965	8895.357937
474.784393	8777.891491
475.154761	8933.708515
475.525070	9018.674642
475.895321	8853.803706
476.265513	9031.942959
476.635645	9196.461015
477.005719	9192.208802
477.375734	9311.167430
477.745691	9541.490187
478.115588	9678.057565
478.485427	9923.564278
478.855207	10464.981681
479.224928	11281.038624
479.594591	11903.774879
479.964194	11715.855787
480.333739	11650.663586
480.703226	11563.582694
481.072653	11659.465441
481.442022	11897.783468
481.811333	12085.987385
482.180584	11893.314485
482.549777	11604.615166
482.918912	11420.928123
483.287988	11443.951073
483.657005	11462.439504
484.025964	11144.491411
484.394864	11270.192582
484.763706	11241.314332
485.132489	10995.338792
485.501213	10965.684204
485.869879	11043.249918
486.238487	10878.409228
486.607036	10987.615744
486.975527	10773.563311
487.343959	10964.983484
487.712333	11008.886893
488.080648	10944.927253
488.448905	10989.601959
488.817104	10923.998903
489.185244	11191.810201
489.553326	11342.759991
489.921350	11886.108156
490.289315	12934.970625
490.657222	13284.499027
491.025070	13188.964120
491.392861	13065.284452
491.760593	12685.993078
492.128267	12327.839262
492.495883	12012.137002
492.863440	11672.373315
493.230939	11334.484937
493.598380	11279.044848
493.965763	11136.733075
494.333088	11033.825481
494.700354	10958.664398
495.067563	11018.076916
495.434713	10844.724238
495.801805	10972.870369
496.168839	10903.597353
496.535815	10833.351395
496.902733	10836.852477
497.269593	10763.037381
497.636395	10863.898267
498.003139	10859.865344
498.369825	10727.782072
498.736453	10889.182174
499.103023	10810.265431
499.469535	10845.634167
499.835989	10827.158338
500.202385	10795.409151
500.568723	10644.582869
500.935003	10867.961437
501.301226	10671.386684
501.667390	10927.106774
502.033497	11024.012875
502.399546	10884.642615
502.765537	10790.912442
503.131470	10862.892557
503.497345	11044.565659
503.863163	10650.879270
504.228923	10967.075563
504.594625	11019.690085
504.960269	10773.810327
505.325856	10993.196301
505.691385	10786.176278
506.056856	10940.271748
506.422270	10962.929214
506.787625	10854.413336
507.152924	10972.948507
507.518164	10953.948398
507.883347	10876.775894
508.248472	10796.160283
508.613540	11021.434325
508.978550	10906.864021
509.343503	10887.707637
509.708398	11005.910091
510.073236	11117.571649
510.438016	11122.827052
510.802738	11071.883672
511.167403	11117.997627
511.532010	11022.777792
511.896561	11246.305074
512.261053	11324.884060
512.625488	11196.047291
512.989866	11176.336379
513.354186	11156.701085
513.718449	11065.274719
514.082655	11264.153279
514.446803	11154.722432
514.810894	11273.285330
515.174927	11145.890331
515.538904	11165.139977
515.902822	11319.205200
516.266684	11198.923269
516.630488	11147.201031
516.994235	11196.425377
517.357925	11260.339647
517.721558	11355.277176
518.085133	11372.296112
518.448651	11379.124355
518.812112	11259.230593
519.175516	11271.835998
519.538863	11390.630788
519.902152	11311.414097
520.265385	11472.720937
520.628560	11381.982689
520.991678	11363.680780
521.354739	11426.158320
521.717743	11362.362518
522.080690	11339.334527
522.443580	11468.935031
522.806413	11432.784917
523.169189	11460.571757
523.531908	11514.557473
523.894569	11339.032058
524.257174	11342.570948
524.619722	11462.068979
524.982213	11401.076059
525.344647	11457.867178
525.707025	11413.285734
526.069345	11505.193530
526.431608	11429.424988
526.793815	11536.829291
527.155964	11317.153450
527.518057	11369.745288
527.880093	11322.933133
528.242072	11386.202135
528.603995	11295.746191
528.965860	11214.923892
529.327669	11269.844742
529.689421	11220.080992
530.051117	11187.295848
530.412755	11291.582197
530.774337	11186.227123
531.135862	11160.653350
531.497331	11183.739314
531.858743	11040.764629
532.220098	11209.224867
532.581396	11069.486603
532.942638	11059.658874
533.303824	11018.016422
533.664953	11038.982581
534.026025	10946.737028
534.387040	11042.329907
534.747999	11048.223016
535.108902	11111.938160
535.469748	10867.757270
535.830537	10974.894392
536.191270	10950.953953
536.551947	10974.208795
536.912567	10972.381377
537.273131	10892.216949
537.633638	10877.411080
537.994089	10866.340706
538.354483	10815.225927
538.714821	10965.893412
539.075103	10972.998918
539.435328	10931.759759
539.795497	10764.950499
540.155609	10919.739128
540.515665	11011.513334
540.875665	10734.748947
541.235609	10809.758795
541.595496	10805.178907
541.955328	10959.564243
542.315102	10842.871614
542.674821	10794.436208
543.034483	10793.521239
543.394090	10802.212188
543.753640	10728.487833
544.113134	10940.982550
544.472571	10800.543566
544.831953	10946.157295
545.191278	10749.390978
545.550548	10775.473908
545.909761	10910.886862
546.268918	10896.103678
546.628019	10974.869187
546.987064	10838.810965
547.346053	10760.859603
547.704986	10859.217556
548.063863	10845.654331
548.422684	10837.429689
548.781449	10759.737946
549.140158	10853.556340
549.498811	10731.048740
549.857408	10592.240568
550.215949	10823.516104
550.574434	10668.578761
550.932864	10775.206727
551.291237	10833.482465
551.649555	10773.006263
552.007817	10789.654674
552.366022	10753.214693
552.724173	10746.426779
553.082267	10734.353216
553.440305	10868.319359
553.798288	10661.458131
554.156215	10824.567185
554.514086	10795.603235
554.871902	10644.121603
555.229661	10685.804384
555.587365	10659.053501
555.945014	10562.182689
556.302606	10678.635863
556.660143	10575.274565
557.017625	10733.072763
557.375050	10622.479930
557.732421	10763.785993
558.089735	10678.419093
558.446994	10673.912302
558.804197	10708.093846
559.161345	10710.823630
559.518437	10553.554754
559.875474	10647.375668
560.232455	10672.372229
560.589381	10632.466456
560.946251	10624.841710
561.303065	10732.540921
561.659825	10667.978864
562.016528	10608.566345
562.373177	10475.510131
562.729770	10602.055695
563.086307	10510.155460
563.442789	10606.350758
563.799216	10485.705864
564.155587	10531.298060
564.511904	10488.347429
564.868164	10478.507097
565.224370	10492.730712
565.580520	10414.315564
565.936615	10426.056411
566.292654	10291.361822
566.648638	10423.908880
567.004567	10375.586900
567.360441	10366.129695
567.716260	10269.594119
568.072023	10368.405776
568.427732	10316.955760
568.783385	10228.869158
569.138982	10293.690835
569.494525	10320.282921
569.850013	10191.012613
570.205445	10273.193503
570.560823	10168.289612
570.916145	10090.406306
571.271412	10159.858283
571.626625	10100.566752
571.981782	10075.613040
572.336884	10047.730418
572.691931	10055.231655
573.046923	10003.179221
573.401860	9955.600811
573.756743	9894.854907
574.111570	9933.729765
574.466342	9918.863402
574.821059	9948.013874
575.175722	9840.733079
575.530330	9844.294655
575.884882	9843.450261
576.239380	9772.405280
576.593823	9748.898380
576.948211	9762.466645
577.302544	9650.507660
577.656823	9661.605760
578.011047	9663.463425
578.365216	9635.124579
578.719330	9558.189009
579.073389	9569.425741
579.427394	9519.906487
579.781344	9496.230708
580.135239	9443.253222
580.489080	9451.235889
580.842866	9354.665026
581.196597	9362.146098
581.550273	9397.782014
581.903895	9373.332418
582.257463	9434.703425
582.610975	9310.864960
582.964434	9336.799176
583.317837	9263.478114
583.671186	9239.013395
584.024481	9235.832427
584.377721	9157.671857
584.730906	9141.141913
585.084037	9163.862394
585.437113	9103.300492
585.790135	9120.914283
586.143103	9018.112554
586.496016	8991.878389
586.848874	9050.655722
587.201679	9040.626347
587.554428	8923.399355
587.907124	8971.849885
588.259765	8944.841903
588.612352	8945.446842
588.964884	8821.736926
589.317362	8836.888114
589.669786	8839.038166
590.022155	8886.414930
590.374470	8897.533195
590.726731	8831.582300
591.078937	8692.282616
591.431090	8801.138772
591.783188	8675.490532
592.135232	8663.905961
592.487222	8664.430241
592.839157	8719.973674
593.191038	8648.454824
593.542866	8597.700487
593.894639	8499.143409
594.246358	8551.160555
594.598022	8565.958862
594.949633	8468.835992
595.301190	8442.621992
595.652692	8467.295920
596.004141	8577.883712
596.355535	8356.314918
596.706876	8340.389913
597.058162	8270.126311
597.409395	8351.694700
597.760573	8407.984224
598.111698	8319.673291
598.462768	8306.591497
598.813785	8275.525386
599.164748	8241.835355
599.515657	8233.824962
599.866511	8140.440107
600.217312	8263.522399
600.568060	8123.164073
600.918753	8233.575425
601.269392	8193.583951
601.619978	8107.438194
601.970510	8169.830034
602.320988	8164.352821
602.671412	8226.195175
603.021783	8156.639855
603.372100	8137.876681
603.722363	8136.752503
604.072572	8108.204449
604.422728	8126.279506
604.772830	8050.127836
605.122878	8053.729741
605.472872	8054.995070
605.822813	8088.468332
606.172701	8029.675875
606.522534	8105.371321
606.872314	8102.502904
607.222041	8074.373266
607.571714	8125.440154
607.921333	8089.000173
608.270899	8092.103004
608.620411	8186.768311
608.969870	8092.667613
609.319276	8083.054132
609.668627	8098.003674
610.017926	8135.114128
610.367171	8182.148094
610.716362	8159.538519
611.065500	8145.758525
611.414585	8172.297679
611.763616	8158.936101
612.112594	8148.170717
612.461518	8163.500866
612.810389	8220.670071
613.159207	8160.531626
613.507971	8110.402392
613.856682	8230.099549
614.205340	8182.906787
614.553945	8262.204137
614.902496	8162.401894
615.250994	8221.804330
615.599439	8192.416924
615.947830	8205.344963
616.296169	8176.491919
616.644454	8196.515382
616.992686	8196.114610
617.340864	8246.561437
617.688990	8158.699167
618.037063	8245.296107
618.385082	8193.707459
618.733048	8274.355839
619.080961	8221.441367
619.428821	8233.693892
619.776628	8239.748318
620.124382	8191.174280
620.472083	8176.272629
620.819731	8203.474695
621.167326	8098.986699
621.514868	8103.334694
621.862357	7995.585072
622.209793	8007.240220
622.557176	7940.800333
622.904506	7915.403000
623.251783	7849.260541
623.599007	7804.308572
623.946179	7803.885115
624.293297	7762.716532
624.640363	7683.126795
624.987376	7662.405132
625.334336	7611.116433
625.681243	7560.672127
626.028097	7546.297277
626.374899	7524.569904
626.721647	7514.963985
627.068343	7449.912936
627.414987	7419.827330
627.761577	7377.164045
628.108115	7418.882113
628.454600	7304.886501
628.801032	7361.324739
629.147412	7318.810168
629.493739	7309.045453
629.840014	7246.399034
630.186236	7299.694113
630.532405	7185.471649
630.878521	7236.152889
631.224585	7192.463729
631.570597	7115.999508
631.916556	7146.967316
632.262462	7144.386245
632.608316	7103.131963
632.954117	7084.290650
633.299866	7072.290183
633.645562	7063.659728
633.991206	6983.137378
634.336797	6922.038593
634.682336	6878.571244
635.027823	6850.315577
635.373257	6836.202867
635.718639	6773.170799
636.063968	6787.457429
636.409245	6679.170924
636.754470	6676.292425
637.099642	6638.398072
637.444762	6580.734834
637.789829	6590.270176
638.134845	6531.898656
638.479808	6513.274113
638.824719	6520.661924
639.169577	6448.875893
639.514383	6470.147042
639.859137	6399.386886
640.203839	6403.543317
640.548489	6389.889352
