Dividing Wavelength (nm)	Counts (n)	Blue Motor Position (mm): 7.000000	Red Motor Position (mm): 0.000000	
326.493990	2061.476522
326.888308	2061.476522
327.282561	2061.476522
327.676750	2037.037008
328.070874	2038.050280
328.464933	2045.123019
328.858929	2056.634493
329.252859	2063.790411
329.646726	2079.140725
330.040528	2093.848291
330.434265	2111.671291
330.827938	2132.597120
331.221547	2153.470018
331.615091	2173.876608
332.008571	2194.978878
332.401986	2215.539224
332.795338	2234.957749
333.188625	2253.206726
333.581847	2270.734818
333.975006	2290.528908
334.368100	2309.226548
334.761129	2323.034268
335.154095	2340.123780
335.546996	2361.455423
335.939833	2388.176058
336.332606	2399.861453
336.725315	2411.410737
337.117960	2423.854825
337.510540	2430.594847
337.903056	2439.263112
338.295508	2442.650767
338.687896	2456.594598
339.080220	2460.430917
339.472480	2466.208079
339.864676	2465.557770
340.256807	2472.038173
340.648875	2470.535909
341.040879	2472.375931
341.432818	2475.597228
341.824694	2474.084882
342.216506	2475.146045
342.608253	2474.452886
342.999937	2471.927268
343.391557	2472.456589
343.783113	2471.854171
344.174605	2467.213789
344.566033	2468.874849
344.957397	2468.022894
345.348697	2463.417800
345.739934	2462.016359
346.131106	2459.647017
346.522215	2462.225567
346.913260	2458.048971
347.304241	2458.023766
347.695159	2454.124433
348.086012	2451.739967
348.476802	2453.171655
348.867528	2448.329627
349.258191	2447.951540
349.648789	2445.289811
350.039324	2440.316713
350.429796	2447.404575
350.820203	2446.439194
351.210548	2443.906014
351.600828	2443.664039
351.991045	2443.258226
352.381198	2443.686724
352.771288	2442.313010
353.161314	2442.552464
353.551276	2440.503235
353.941175	2443.104471
354.331010	2440.047011
354.720782	2443.086827
355.110490	2442.265119
355.500135	2444.722681
355.889717	2445.367949
356.279235	2445.998093
356.668689	2442.633123
357.058080	2443.878288
357.447408	2442.905345
357.836672	2443.817794
358.225873	2446.182095
358.615010	2447.210491
359.004084	2446.640840
359.393095	2444.631940
359.782043	2446.426591
360.170927	2447.076900
360.559748	2450.676284
360.948505	2447.094544
361.337199	2450.802313
361.725830	2449.698300
362.114398	2451.092179
362.502903	2449.199226
362.891344	2451.155193
363.279722	2452.791048
363.668037	2449.448763
364.056289	2454.142077
364.444478	2453.123764
364.832603	2453.179217
365.220665	2455.598971
365.608665	2452.034875
365.996601	2454.056378
366.384474	2455.586368
366.772284	2455.727520
367.160031	2452.153342
367.547715	2457.708693
367.935336	2455.477983
368.322893	2453.920266
368.710388	2452.176027
369.097820	2453.272478
369.485189	2451.934052
369.872495	2457.224743
370.259738	2456.947479
370.646918	2457.270113
371.034035	2456.035030
371.421090	2458.394290
371.808081	2457.401183
372.195010	2456.869341
372.581875	2458.401852
372.968678	2457.254990
373.355418	2458.903447
373.742096	2458.747171
374.128710	2457.002932
374.515262	2460.491410
374.901751	2460.801441
375.288177	2462.097018
375.674540	2461.048458
376.060841	2460.798921
376.447079	2459.742799
376.833254	2463.609364
377.219367	2462.500310
377.605417	2460.256997
377.991404	2463.495938
378.377329	2463.407718
378.763191	2459.614250
379.148991	2460.181379
379.534727	2462.356637
379.920402	2461.237501
380.306013	2464.519292
380.691563	2460.619960
381.077049	2463.085084
381.462474	2462.754888
381.847835	2463.634570
382.233134	2461.794549
382.618371	2462.568366
383.003545	2466.308902
383.388657	2462.303705
383.773706	2463.886627
384.158693	2464.058027
384.543618	2465.101546
384.928480	2463.576597
385.313280	2465.819910
385.698017	2465.096504
386.082692	2467.543985
386.467305	2467.228913
386.851856	2466.818058
387.236344	2465.877883
387.620770	2465.978706
388.005133	2463.080043
388.389435	2467.503655
388.773674	2462.117182
389.157851	2468.700929
389.541965	2465.494756
389.926018	2468.733697
390.310008	2469.474747
390.693936	2470.735035
391.077802	2466.137503
391.461606	2468.146402
391.845348	2468.637915
392.229027	2469.996506
392.612645	2467.854016
392.996200	2469.066413
393.379694	2469.583131
393.763125	2472.275108
394.146494	2469.096660
394.529801	2471.163533
394.913047	2467.793522
395.296230	2468.741259
395.679351	2470.167905
396.062410	2472.741414
396.445408	2472.930458
396.828343	2472.612865
397.211217	2468.895014
397.594028	2473.472382
397.976778	2471.856692
398.359466	2472.033132
398.742092	2470.722432
399.124656	2473.167392
399.507158	2472.988431
399.889598	2473.792495
400.271977	2473.653863
400.654294	2473.676548
401.036549	2473.069089
401.418742	2474.263843
401.800874	2472.806949
402.182944	2474.657053
402.564952	2472.751497
402.946898	2475.264512
403.328783	2474.798205
403.710606	2475.521611
404.092367	2476.040849
404.474067	2474.982207
404.855705	2474.420118
405.237282	2471.254274
405.618797	2474.077320
406.000250	2474.347022
406.381642	2474.404995
406.762972	2473.973976
407.144240	2473.742083
407.525447	2473.764768
407.906593	2471.034984
408.287677	2477.248206
408.668700	2474.447845
409.049661	2477.220479
409.430560	2475.561940
409.811399	2476.648308
410.192176	2477.190232
410.572891	2475.972794
410.953545	2476.950778
411.334138	2477.331385
411.714669	2475.766107
412.095139	2480.280460
412.475547	2476.880202
412.855894	2480.517394
413.236180	2479.534369
413.616405	2476.948257
413.996568	2475.758545
414.376670	2480.225007
414.756711	2477.394399
415.136691	2478.294245
415.516609	2478.372383
415.896466	2478.115284
416.276262	2480.403968
416.655997	2479.120994
417.035670	2481.258444
417.415283	2482.370018
417.794834	2480.628299
418.174324	2479.857003
418.553753	2476.436580
418.933121	2481.727271
419.312428	2478.241313
419.691674	2478.387507
420.070859	2480.005717
420.449983	2480.421612
420.829045	2480.083855
421.208047	2482.034781
421.586988	2481.150059
421.965867	2481.510501
422.344686	2479.002527
422.723444	2481.240800
423.102141	2483.219453
423.480777	2482.349853
423.859352	2482.533856
424.237866	2483.020327
424.616319	2481.586119
424.994712	2481.041674
425.373044	2481.737353
425.751314	2481.240800
426.129524	2480.182157
426.507673	2479.698207
426.885762	2476.849955
427.263789	2482.682570
427.641756	2482.982518
428.019662	2484.013434
428.397508	2483.305152
428.775292	2482.806078
429.153016	2481.318938
429.530679	2483.632827
429.908282	2483.678198
430.285824	2484.204998
430.663305	2481.944041
431.040726	2481.775162
431.418086	2483.811788
431.795385	2484.361274
432.172624	2481.278608
432.549802	2483.532004
432.926920	2483.078300
433.303977	2482.546458
433.680974	2483.138794
434.057910	2481.903711
434.434786	2483.355564
434.811601	2485.593836
435.188355	2486.004690
435.565050	2484.396562
435.941683	2484.595688
436.318257	2485.006542
436.694770	2482.085193
437.071222	2482.904380
437.447614	2486.551655
437.823946	2484.018475
438.200218	2485.722385
438.576429	2482.422950
438.952580	2484.104175
439.328670	2485.644248
439.704700	2484.245327
440.080670	2485.810606
440.456580	2485.508136
440.832429	2487.963178
441.208218	2485.795482
441.583947	2485.729947
441.959616	2485.364463
442.335224	2484.235245
442.710773	2486.985194
443.086261	2484.764566
443.461689	2484.545276
443.837057	2489.420072
444.212365	2483.196767
444.587612	2483.232055
444.962800	2479.488999
445.337927	2485.553507
445.712995	2481.238279
446.088002	2486.844042
446.462949	2486.942345
446.837837	2487.350678
447.212664	2485.782879
447.587431	2484.978815
447.962139	2486.687766
448.336786	2489.556183
448.711374	2486.675163
449.085901	2485.467807
449.460369	2486.866727
449.834776	2484.941007
450.209124	2488.351347
450.583412	2484.913280
450.957640	2484.250368
451.331808	2488.863024
451.705917	2485.770276
452.079965	2487.476707
452.453954	2487.012921
452.827883	2487.872438
453.201752	2489.039465
453.575562	2490.060298
453.949311	2485.155256
454.323001	2489.745226
454.696632	2487.569968
455.070202	2490.100627
455.443713	2486.687766
455.817164	2488.275730
456.190556	2489.515854
456.563888	2489.450319
456.937160	2487.786738
457.310373	2487.587612
457.683526	2487.585092
458.056619	2486.549135
458.429653	2487.723723
458.802628	2487.690956
459.175542	2487.476707
459.548398	2487.418734
459.921194	2489.079794
460.293930	2489.044506
460.666607	2486.932262
461.039224	2487.169197
461.411782	2489.422592
461.784280	2487.131388
462.156719	2488.575678
462.529099	2489.331852
462.901419	2487.527118
463.273680	2486.276912
463.645882	2484.641058
464.018024	2487.401090
464.390106	2484.220122
464.762130	2491.484424
465.134094	2489.992243
465.505999	2492.933756
465.877845	2488.555514
466.249631	2490.967706
466.621358	2491.585247
466.993026	2490.133395
467.364634	2493.536174
467.736184	2490.115751
468.107674	2492.379229
468.479105	2488.338744
468.850477	2490.755977
469.221790	2490.027531
469.593043	2490.541728
469.964238	2490.171204
470.335373	2490.077942
470.706449	2490.733292
471.077467	2491.960813
471.448425	2491.867552
471.819324	2492.031389
472.190164	2491.227325
472.560945	2491.121461
472.931667	2491.643221
473.302330	2490.103148
473.672934	2492.767398
474.043479	2490.501399
474.413965	2488.855463
474.784393	2489.420072
475.154761	2491.146667
475.525070	2488.749598
475.895321	2490.892089
476.265513	2492.091883
476.635645	2491.307984
477.005719	2489.195740
477.375734	2493.372336
477.745691	2489.049547
478.115588	2491.091214
478.485427	2492.129692
478.855207	2489.720020
479.224928	2491.055926
479.594591	2492.810248
479.964194	2490.458549
480.333739	2493.896616
480.703226	2491.146667
481.072653	2491.151708
481.442022	2493.778149
481.811333	2489.435195
482.180584	2488.361429
482.549777	2491.749085
482.918912	2485.949237
483.287988	2492.729589
483.657005	2491.509630
484.025964	2494.161277
484.394864	2493.805876
484.763706	2495.348469
485.132489	2494.667913
485.501213	2497.427945
485.869879	2493.747902
486.238487	2491.630618
486.607036	2493.483242
486.975527	2493.677326
487.343959	2492.079280
487.712333	2491.549959
488.080648	2492.893427
488.448905	2493.402583
488.817104	2493.894096
489.185244	2495.212358
489.553326	2491.612974
489.921350	2495.630773
490.289315	2495.242604
490.657222	2495.000629
491.025070	2495.358551
491.392861	2495.514827
491.760593	2493.185814
492.128267	2494.267141
492.495883	2492.923674
492.863440	2493.805876
493.230939	2493.231184
493.598380	2498.927688
493.965763	2492.974085
494.333088	2494.909888
494.700354	2495.671103
495.067563	2491.010556
495.434713	2495.401401
495.801805	2495.534991
496.168839	2494.279744
496.535815	2494.199086
496.902733	2491.746564
497.269593	2493.400063
497.636395	2493.042141
498.003139	2494.672954
498.369825	2495.658500
498.736453	2493.677326
499.103023	2495.335866
499.469535	2494.594816
499.835989	2496.162615
500.202385	2492.701863
500.568723	2490.254383
500.935003	2491.398725
501.301226	2490.030051
501.667390	2495.532471
502.033497	2494.680516
502.399546	2496.399549
502.765537	2493.828561
503.131470	2497.279231
503.497345	2494.269662
503.863163	2497.453150
504.228923	2495.807214
504.594625	2493.745382
504.960269	2494.617501
505.325856	2498.852071
505.691385	2494.723366
506.056856	2494.098262
506.422270	2495.769405
506.787625	2493.536174
507.152924	2497.344766
507.518164	2495.759323
507.883347	2496.041627
508.248472	2494.259579
508.613540	2496.303767
508.978550	2496.893582
509.343503	2496.071874
509.708398	2497.483397
510.073236	2496.323932
510.438016	2496.961638
510.802738	2496.923829
511.167403	2493.634476
511.532010	2494.481390
511.896561	2496.984323
512.261053	2495.023314
512.625488	2496.046668
512.989866	2495.187152
513.354186	2498.194200
513.718449	2494.942656
514.082655	2496.535660
514.446803	2495.187152
514.810894	2496.951556
515.174927	2495.537512
515.538904	2498.315188
515.902822	2494.196565
516.266684	2495.774446
516.630488	2496.152533
516.994235	2496.086998
517.357925	2496.316370
517.721558	2496.243273
518.085133	2495.401401
518.448651	2494.436020
518.812112	2491.504589
519.175516	2495.449292
519.538863	2493.909219
519.902152	2494.529281
520.265385	2496.669251
520.628560	2495.640856
520.991678	2496.054230
521.354739	2496.112203
521.717743	2495.230002
522.080690	2496.775115
522.443580	2495.091370
522.806413	2497.642194
523.169189	2496.132368
523.531908	2494.768736
523.894569	2496.926350
524.257174	2497.145640
524.619722	2496.807883
524.982213	2496.883500
525.344647	2496.704539
525.707025	2496.560866
526.069345	2497.674961
526.431608	2496.001298
526.793815	2499.056237
527.155964	2497.047338
527.518057	2496.402070
527.880093	2497.548932
528.242072	2498.143788
528.603995	2495.671103
528.965860	2497.334683
529.327669	2495.908037
529.689421	2497.874087
530.051117	2499.222595
530.412755	2496.306288
530.774337	2498.116062
531.135862	2495.408963
531.497331	2496.202944
531.858743	2497.266628
532.220098	2499.192348
532.581396	2499.416680
532.942638	2499.230157
533.303824	2497.813593
533.664953	2500.966835
534.026025	2497.705208
534.387040	2500.198059
534.747999	2497.937101
535.108902	2498.922647
535.469748	2502.733759
535.830537	2498.436175
536.191270	2500.182935
536.551947	2496.949035
536.912567	2494.284785
537.273131	2499.038593
537.633638	2495.290495
537.994089	2502.910199
538.354483	2498.511793
538.714821	2499.459530
539.075103	2500.288799
539.435328	2500.102277
539.795497	2501.629746
540.155609	2499.562873
540.515665	2498.020280
540.875665	2499.920795
541.235609	2501.891886
541.595496	2502.995899
541.955328	2500.999602
542.315102	2500.820641
542.674821	2501.692761
543.034483	2501.085302
543.394090	2501.319715
543.753640	2501.617143
544.113134	2502.640498
544.472571	2503.565549
544.831953	2504.719974
545.191278	2503.830210
545.550548	2504.067144
545.909761	2500.634118
546.268918	2501.579335
546.628019	2504.324243
546.987064	2503.038749
547.346053	2505.556805
547.704986	2504.493122
548.063863	2506.255005
548.422684	2506.134017
548.781449	2503.356342
549.140158	2506.088647
549.498811	2505.534120
549.857408	2506.935561
550.215949	2503.903307
550.574434	2503.358862
550.932864	2506.834738
551.291237	2507.732063
551.649555	2506.290293
552.007817	2508.112670
552.366022	2506.247443
552.724173	2507.144769
553.082267	2507.348935
553.440305	2508.662156
553.798288	2508.006806
554.156215	2506.171826
554.514086	2504.979593
554.871902	2506.582680
555.229661	2507.328771
555.587365	2502.637977
555.945014	2510.267763
556.302606	2507.210304
556.660143	2512.770696
557.017625	2508.553771
557.375050	2510.358504
557.732421	2511.059225
558.089735	2510.396313
558.446994	2508.929337
558.804197	2510.605521
559.161345	2511.661643
559.518437	2510.643329
559.875474	2512.231293
560.232455	2511.036539
560.589381	2512.841273
560.946251	2513.834380
561.303065	2514.058711
561.659825	2513.277332
562.016528	2513.899915
562.373177	2512.599297
562.729770	2514.479648
563.086307	2514.005779
563.442789	2514.928310
563.799216	2514.260357
564.155587	2515.059380
564.511904	2514.462003
564.868164	2515.984432
565.224370	2515.452590
565.580520	2517.080883
565.936615	2514.943434
566.292654	2513.899915
566.648638	2516.579288
567.004567	2516.221366
567.360441	2518.373939
567.716260	2515.205574
568.072023	2517.280008
568.427732	2517.138856
568.783385	2515.878568
569.138982	2516.561644
569.494525	2520.302180
569.850013	2516.503671
570.205445	2514.212466
570.560823	2517.821933
570.916145	2517.390914
571.271412	2519.064577
571.626625	2519.349402
571.981782	2520.259330
572.336884	2513.945285
572.691931	2513.282373
573.046923	2515.621469
573.401860	2513.042919
573.756743	2517.141377
574.111570	2520.445853
574.466342	2520.680267
574.821059	2519.702283
575.175722	2518.895698
575.530330	2521.386028
575.884882	2520.339989
576.239380	2521.338137
576.593823	2523.815864
576.948211	2519.601460
577.302544	2521.350740
577.656823	2521.207067
578.011047	2522.376615
578.365216	2518.570544
578.719330	2517.889988
579.073389	2517.332941
579.427394	2522.457273
579.781344	2521.564989
580.135239	2520.781090
580.489080	2524.708149
580.842866	2522.482479
581.196597	2523.672192
581.550273	2523.125226
581.903895	2522.648837
582.257463	2523.435257
582.610975	2521.272602
582.964434	2522.520288
583.317837	2521.469207
583.671186	2520.760925
584.024481	2521.935514
584.377721	2520.183713
584.730906	2522.157325
585.084037	2524.693025
585.437113	2524.204033
585.790135	2523.825947
586.143103	2518.825122
586.496016	2522.391738
586.848874	2524.425844
587.201679	2523.944414
587.554428	2522.860566
587.907124	2522.638755
588.259765	2523.079856
588.612352	2523.127747
588.964884	2524.652696
589.317362	2524.962727
589.669786	2524.277130
590.022155	2519.629186
590.374470	2521.184382
590.726731	2522.938704
591.078937	2516.307066
591.431090	2524.551873
591.783188	2521.912829
592.135232	2523.389887
592.487222	2523.142870
592.839157	2524.705628
593.191038	2522.656399
593.542866	2524.831657
593.894639	2522.638755
594.246358	2523.261337
594.598022	2524.564476
594.949633	2523.120185
595.301190	2523.349558
595.652692	2523.367202
596.004141	2523.276461
596.355535	2525.824764
596.706876	2524.244363
597.058162	2520.801254
597.409395	2522.069105
597.760573	2523.906605
598.111698	2524.209074
598.462768	2524.325021
598.813785	2523.692356
599.164748	2524.589682
599.515657	2522.540453
599.866511	2521.650689
600.217312	2522.434588
600.568060	2522.079187
600.918753	2525.323169
601.269392	2524.393077
601.619978	2523.808303
601.970510	2525.108920
602.320988	2525.754188
602.671412	2524.526667
603.021783	2523.352078
603.372100	2526.346524
603.722363	2524.771163
604.072572	2523.193282
604.422728	2524.957686
604.772830	2525.552542
605.122878	2523.944414
605.472872	2522.850483
605.822813	2522.588343
606.172701	2523.044568
606.522534	2524.708149
606.872314	2524.677902
607.222041	2524.670340
607.571714	2521.585154
607.921333	2520.861748
608.270899	2522.232942
608.620411	2519.540966
608.969870	2524.325021
609.319276	2525.108920
609.668627	2526.618746
610.017926	2523.732685
610.367171	2527.596730
610.716362	2524.204033
611.065500	2525.943231
611.414585	2524.955165
611.763616	2526.659075
612.112594	2523.069774
612.461518	2526.293592
612.810389	2527.508510
613.159207	2530.185362
613.507971	2528.133613
613.856682	2527.889117
614.205340	2527.989940
614.553945	2527.783253
614.902496	2526.588499
615.250994	2529.230064
615.599439	2526.233098
615.947830	2528.695701
616.296169	2529.139323
616.644454	2530.124868
616.992686	2529.179652
617.340864	2531.188552
617.688990	2530.016484
618.037063	2530.686957
618.385082	2530.765095
618.733048	2533.802390
619.080961	2533.371372
619.428821	2532.247194
619.776628	2530.477749
620.124382	2534.926568
620.472083	2535.410518
620.819731	2537.225334
621.167326	2533.452030
621.514868	2533.701567
621.862357	2535.067720
622.209793	2536.151568
622.557176	2536.053265
622.904506	2535.236598
623.251783	2536.721218
623.599007	2534.601413
623.946179	2534.011598
624.293297	2536.854809
624.640363	2535.312216
624.987376	2535.425642
625.334336	2531.362472
625.681243	2534.127545
626.028097	2529.535053
626.374899	2536.885056
626.721647	2538.178112
627.068343	2537.610982
627.414987	2536.932947
627.761577	2537.376568
628.108115	2537.689120
628.454600	2537.411856
628.801032	2541.979142
629.147412	2539.808925
629.493739	2542.642053
629.840014	2544.529966
630.186236	2541.444779
630.532405	2544.303114
630.878521	2544.552651
631.224585	2547.693290
631.570597	2549.251006
631.916556	2550.569268
632.262462	2552.371480
632.608316	2550.811243
632.954117	2550.634803
633.299866	2555.260062
633.645562	2554.264434
633.991206	2555.065977
634.336797	2556.018755
634.682336	2555.043292
635.027823	2554.057746
635.373257	2555.769218
635.718639	2555.484393
636.063968	2558.345248
636.409245	2556.429609
636.754470	2557.697459
637.099642	2557.747871
637.444762	2559.277861
637.789829	2558.856925
638.134845	2562.153839
638.479808	2560.359189
638.824719	2561.634601
639.169577	2562.884807
639.514383	2565.662482
639.859137	2562.786504
640.203839	2567.376475
640.548489	2570.489387
640.893086	2572.117680
641.237632	2571.033832
641.582125	2573.604820
641.926566	2573.309913
642.270955	2571.893349
642.615292	2575.863257
642.959576	2575.018864
643.303809	2574.464337
643.647990	2583.281315
643.992118	2584.518918
644.336195	2585.774166
