Dividing Wavelength (nm)	Counts (n)	Blue Motor Position (mm): 28.500000	Red Motor Position (mm): 0.000000	
326.493990	2154.284164
326.888308	2154.284164
327.282561	2154.284164
327.676750	2130.807511
328.070874	2132.952522
328.464933	2138.497791
328.858929	2145.963740
329.252859	2157.258445
329.646726	2172.165137
330.040528	2187.732220
330.434265	2206.810467
330.827938	2226.675133
331.221547	2245.995355
331.615091	2261.988416
332.008571	2283.194030
332.401986	2304.049283
332.795338	2322.598209
333.188625	2343.808863
333.581847	2366.514220
333.975006	2383.013917
334.368100	2403.143244
334.761129	2418.785945
335.154095	2433.927050
335.546996	2462.187759
335.939833	2491.164311
336.332606	2503.452123
336.725315	2518.149608
337.117960	2521.980884
337.510540	2530.112266
337.903056	2541.449821
338.295508	2547.690769
338.687896	2553.977088
339.080220	2562.904971
339.472480	2570.570046
339.864676	2574.504666
340.256807	2575.780078
340.648875	2577.489029
341.040879	2578.035995
341.432818	2579.160172
341.824694	2581.080852
342.216506	2584.584453
342.608253	2578.739236
342.999937	2581.186716
343.391557	2577.804102
343.783113	2576.808474
344.174605	2577.877198
344.566033	2575.492732
344.957397	2572.170612
345.348697	2572.278997
345.739934	2568.074675
346.131106	2568.183059
346.522215	2567.963769
346.913260	2561.112841
347.304241	2566.859757
347.695159	2561.490928
348.086012	2560.812893
348.476802	2558.345248
348.867528	2560.139898
349.258191	2555.943138
349.648789	2554.672767
350.039324	2551.179247
350.429796	2555.418858
350.820203	2553.304094
351.210548	2552.202602
351.600828	2546.266643
351.991045	2551.695966
352.381198	2550.551624
352.771288	2550.695297
353.161314	2549.303938
353.551276	2551.448949
353.941175	2550.014741
354.331010	2547.907539
354.720782	2552.477345
355.110490	2548.676315
355.500135	2547.148845
355.889717	2548.850234
356.279235	2549.745039
356.668689	2551.940462
357.058080	2548.545245
357.447408	2548.630944
357.836672	2547.017775
358.225873	2547.988197
358.615010	2549.172868
359.004084	2554.271995
359.393095	2554.103117
359.782043	2552.865513
360.170927	2554.561862
360.559748	2554.372818
360.948505	2554.582026
361.337199	2557.047151
361.725830	2557.339538
362.114398	2556.197716
362.502903	2559.650907
362.891344	2556.963972
363.279722	2559.449260
363.668037	2558.105793
364.056289	2558.080587
364.444478	2560.802810
364.832603	2559.202244
365.220665	2559.355999
365.608665	2562.113510
365.996601	2559.393808
366.384474	2561.437996
366.772284	2560.434806
367.160031	2561.135526
367.547715	2562.776422
367.935336	2560.276010
368.322893	2562.098387
368.710388	2565.667524
369.097820	2567.472257
369.485189	2564.064437
369.872495	2564.016546
370.259738	2563.086453
370.646918	2562.778942
371.034035	2566.539643
371.421090	2566.675754
371.808081	2564.616443
372.195010	2562.642831
372.581875	2565.551577
372.968678	2565.975034
373.355418	2564.649211
373.742096	2568.301527
374.128710	2568.014181
374.515262	2569.163564
374.901751	2564.238357
375.288177	2568.064592
375.674540	2566.605178
376.060841	2567.416804
376.447079	2569.559294
376.833254	2567.847823
377.219367	2567.043759
377.605417	2564.886145
377.991404	2564.878583
378.377329	2566.232133
378.763191	2565.448233
379.148991	2570.857392
379.534727	2571.595921
379.920402	2569.672720
380.306013	2571.726991
380.691563	2569.899572
381.077049	2570.055848
381.462474	2571.021229
381.847835	2569.793708
382.233134	2570.391085
382.618371	2569.282031
383.003545	2571.041394
383.388657	2571.623647
383.773706	2571.623647
384.158693	2572.382341
384.543618	2575.265881
384.928480	2575.729667
385.313280	2575.966601
385.698017	2573.992989
386.082692	2575.308730
386.467305	2575.737228
386.851856	2574.860068
387.236344	2576.415264
387.620770	2575.772517
388.005133	2574.517269
388.389435	2574.860068
388.773674	2573.526683
389.157851	2576.626992
389.541965	2576.175809
389.926018	2576.412743
390.310008	2576.967270
390.693936	2577.287383
391.077802	2577.335274
391.461606	2574.560119
391.845348	2577.262178
392.229027	2578.063721
392.612645	2578.837538
392.996200	2579.626479
393.379694	2578.744277
393.763125	2579.548341
394.146494	2578.814853
394.529801	2581.043043
394.913047	2581.481623
395.296230	2583.349371
395.679351	2580.579257
396.062410	2580.642271
396.445408	2582.845255
396.828343	2580.690162
397.211217	2579.742425
397.594028	2580.428022
397.976778	2578.933320
398.359466	2581.920204
398.742092	2578.366190
399.124656	2583.830801
399.507158	2583.692169
399.889598	2580.659915
400.271977	2580.092785
400.654294	2586.815164
401.036549	2581.668146
401.418742	2583.369535
401.800874	2582.769638
402.182944	2584.750812
402.564952	2584.937334
402.946898	2582.401634
403.328783	2582.535224
403.710606	2583.790472
404.092367	2586.469845
404.474067	2583.160328
404.855705	2585.985894
405.237282	2584.750812
405.618797	2586.578230
406.000250	2585.282653
406.381642	2586.028744
406.762972	2588.093097
407.144240	2587.528487
407.525447	2590.444795
407.906593	2587.364650
408.287677	2590.119640
408.668700	2589.381111
409.049661	2587.818354
409.430560	2586.747108
409.811399	2589.600402
410.192176	2589.013107
410.572891	2588.519074
410.953545	2588.667788
411.334138	2589.166862
411.714669	2589.935638
412.095139	2589.043354
412.475547	2590.432192
412.855894	2588.481265
413.236180	2592.693149
413.616405	2591.747933
413.996568	2588.456060
414.376670	2592.889754
414.756711	2587.515884
415.136691	2592.839343
415.516609	2592.935125
415.896466	2592.226843
416.276262	2591.190886
416.655997	2588.698035
417.035670	2588.632500
417.415283	2593.542584
417.794834	2588.682912
418.174324	2592.567121
418.553753	2594.530650
418.933121	2593.262800
419.312428	2592.494024
419.691674	2596.166504
420.070859	2591.480752
420.449983	2592.965372
420.829045	2595.191041
421.208047	2594.734817
421.586988	2594.979313
421.965867	2596.577358
422.344686	2595.427975
422.723444	2595.987543
423.102141	2594.467636
423.480777	2597.290682
423.859352	2598.825713
424.237866	2600.481732
424.616319	2599.501228
424.994712	2596.423603
425.373044	2599.264293
425.751314	2599.791094
426.129524	2598.765219
426.507673	2599.443254
426.885762	2596.804210
427.263789	2601.525251
427.641756	2601.898296
428.019662	2600.748913
428.397508	2603.264449
428.775292	2601.898296
429.153016	2599.523913
429.530679	2604.812083
429.908282	2604.802001
430.285824	2602.480550
430.663305	2605.502721
431.040726	2604.517176
431.418086	2605.220417
431.795385	2608.149327
432.172624	2606.538678
432.549802	2608.403905
432.926920	2608.260232
433.303977	2610.564040
433.680974	2611.547065
434.057910	2611.103443
434.434786	2611.965481
434.811601	2616.255502
435.188355	2615.922786
435.565050	2618.156017
435.941683	2620.240535
436.318257	2621.352109
436.694770	2622.151132
437.071222	2624.762450
437.447614	2625.367388
437.823946	2628.830661
438.200218	2634.330560
438.576429	2638.018164
438.952580	2642.431694
439.328670	2647.414874
439.704700	2650.333702
440.080670	2655.508447
440.456580	2663.085301
440.832429	2667.382885
441.208218	2669.870694
441.583947	2678.997703
441.959616	2684.386697
442.335224	2691.940866
442.710773	2699.583255
443.086261	2709.201777
443.461689	2714.963815
443.837057	2724.778942
444.212365	2737.727146
444.587612	2744.540265
444.962800	2754.897316
445.337927	2768.137906
445.712995	2769.622526
446.088002	2797.774850
446.462949	2808.739359
446.837837	2828.886331
447.212664	2838.618278
447.587431	2879.176881
447.962139	2933.008843
448.336786	2990.488079
448.711374	3004.641118
449.085901	2974.416880
449.460369	2981.766883
449.834776	2994.624346
450.209124	3057.439643
450.583412	3078.027715
450.957640	3118.001545
451.331808	3115.143211
451.705917	3111.727829
452.079965	3136.363948
452.453954	3164.743123
452.827883	3181.325999
453.201752	3206.257025
453.575562	3235.783063
453.949311	3294.567958
454.323001	3322.390086
454.696632	3347.174919
455.070202	3419.586053
455.443713	3457.369501
455.817164	3513.207842
456.190556	3565.862694
456.563888	3589.104933
456.937160	3646.004437
457.310373	3632.398363
457.683526	3679.306299
458.056619	3714.397771
458.429653	3738.681009
458.802628	3794.612611
459.175542	3839.771267
459.548398	3935.222995
459.921194	4049.306827
460.293930	4114.451137
460.666607	4265.693315
461.039224	4400.760950
461.411782	4508.129965
461.784280	4505.843802
462.156719	4548.817117
462.529099	4581.763578
462.901419	4556.978746
463.273680	4532.856824
463.645882	4572.601281
464.018024	4614.236171
464.390106	4700.374367
464.762130	4886.334970
465.134094	5159.179861
465.505999	5567.745215
465.877845	6023.387385
466.249631	6287.468229
466.621358	6308.671322
466.993026	6258.905052
467.364634	6193.985072
467.736184	6078.192289
468.107674	6036.469179
468.479105	6033.507501
468.850477	6045.102155
469.221790	5980.381302
469.593043	5881.625098
469.964238	5857.805646
470.335373	5883.084512
470.706449	6046.533843
471.077467	6227.838941
471.448425	6758.281752
471.819324	7239.422077
472.190164	7312.365053
472.560945	6994.520303
472.931667	6687.395567
473.302330	6581.044865
473.672934	6537.383431
474.043479	6638.786241
474.413965	6603.339368
474.784393	6600.294511
475.154761	6752.993581
475.525070	6805.129194
475.895321	6802.661549
476.265513	6914.083652
476.635645	7089.054541
477.005719	7116.561597
477.375734	7230.365645
477.745691	7352.752257
478.115588	7560.175573
478.485427	7806.814025
478.855207	8261.425279
479.224928	8673.176643
479.594591	9046.262357
479.964194	9095.340510
480.333739	9207.538951
480.703226	9248.697451
481.072653	9373.012305
481.442022	9513.030353
481.811333	9674.982462
482.180584	9553.523421
482.549777	9535.758395
482.918912	9505.682871
483.287988	9512.979942
483.657005	9453.789234
484.025964	9399.372498
484.394864	9478.367379
484.763706	9462.061767
485.132489	9398.356706
485.501213	9402.619002
485.869879	9473.800094
486.238487	9439.553015
486.607036	9524.002424
486.975527	9488.842897
487.343959	9552.618534
487.712333	9610.380075
488.080648	9664.317901
488.448905	9774.852760
488.817104	9795.655082
489.185244	9970.061361
489.553326	10184.761583
489.921350	10654.886987
490.289315	11276.247007
490.657222	11579.618605
491.025070	11755.176787
491.392861	11681.480159
491.760593	11528.554237
492.128267	11290.150510
492.495883	11062.640716
492.863440	10833.611015
493.230939	10617.554722
493.598380	10452.066245
493.965763	10429.171844
494.333088	10303.846239
494.700354	10239.846271
495.067563	10210.196724
495.434713	10220.387417
495.801805	10275.623339
496.168839	10231.780424
496.535815	10199.519560
496.902733	10255.292366
497.269593	10219.747190
497.636395	10220.216018
498.003139	10329.835908
498.369825	10266.418193
498.736453	10359.656853
499.103023	10304.645262
499.469535	10307.687598
499.835989	10360.027378
500.202385	10332.888327
500.568723	10354.567809
500.935003	10424.148335
501.301226	10387.725998
501.667390	10552.667511
502.033497	10646.485904
502.399546	10576.917981
502.765537	10491.425053
503.131470	10591.134035
503.497345	10688.559374
503.863163	10465.344644
504.228923	10601.917063
504.594625	10718.811339
504.960269	10627.508481
505.325856	10784.666452
505.691385	10660.218007
506.056856	10726.052956
506.422270	10823.508542
506.787625	10763.475962
507.152924	10814.666358
507.518164	10882.421987
507.883347	10743.739844
508.248472	10822.754890
508.613540	10936.669843
508.978550	11001.383135
509.343503	10996.722588
509.708398	11041.586337
510.073236	11166.158290
510.438016	11177.183293
510.802738	11099.519277
511.167403	11227.022661
511.532010	11289.175047
511.896561	11384.828420
512.261053	11576.293964
512.625488	11492.812456
512.989866	11479.463481
513.354186	11459.351797
513.718449	11473.222532
514.082655	11620.439348
514.446803	11573.773387
514.810894	11677.424551
515.174927	11677.348934
515.538904	11661.552478
515.902822	11819.499390
516.266684	11690.004751
516.630488	11798.855865
516.994235	11787.921602
517.357925	11904.399983
517.721558	11959.310751
518.085133	12025.485977
518.448651	12050.537991
518.812112	12022.219310
519.175516	12015.350738
519.538863	12111.001591
519.902152	12114.462343
520.265385	12230.434087
520.628560	12245.305491
520.991678	12202.473327
521.354739	12246.648958
521.717743	12328.363542
522.080690	12302.467134
522.443580	12434.850355
522.806413	12443.316973
523.169189	12441.083742
523.531908	12503.591529
523.894569	12467.580046
524.257174	12488.170639
524.619722	12591.045466
524.982213	12567.339440
525.344647	12552.694888
525.707025	12559.450034
526.069345	12670.985563
526.431608	12641.499854
526.793815	12727.002864
527.155964	12618.116462
527.518057	12650.644507
527.880093	12607.441818
528.242072	12724.716701
528.603995	12643.443219
528.965860	12655.350424
529.327669	12691.656814
529.689421	12639.765697
530.051117	12651.226760
530.412755	12692.682689
530.774337	12688.876618
531.135862	12643.571768
531.497331	12706.384545
531.858743	12670.350377
532.220098	12765.277825
532.581396	12692.133203
532.942638	12615.119496
533.303824	12673.352384
533.664953	12649.951348
534.026025	12610.214453
534.387040	12718.266545
534.747999	12686.028366
535.108902	12731.900345
535.469748	12613.914660
535.830537	12638.545738
536.191270	12677.700380
536.551947	12607.484668
536.912567	12660.941064
537.273131	12700.073020
537.633638	12579.990215
537.994089	12638.586067
538.354483	12547.061398
538.714821	12675.467148
539.075103	12763.624326
539.435328	12685.801514
539.795497	12673.642251
540.155609	12669.904235
540.515665	12764.080551
540.875665	12628.730611
541.235609	12726.917165
541.595496	12685.597347
541.955328	12859.943132
542.315102	12719.221843
542.674821	12651.226760
543.034483	12666.592197
543.394090	12661.971980
543.753640	12633.963329
544.113134	12891.180642
544.472571	12648.489414
544.831953	12930.229420
545.191278	12753.902461
545.550548	12676.283815
545.909761	12787.509313
546.268918	12833.121673
546.628019	12902.785378
546.987064	12785.704580
547.346053	12626.918316
547.704986	12833.376252
548.063863	12709.646172
548.422684	12768.441149
548.781449	12726.418090
549.140158	12827.581445
549.498811	12764.209100
549.857408	12631.745221
550.215949	12848.683715
550.574434	12816.422851
550.932864	12759.218358
551.291237	12955.132720
551.649555	12845.598529
552.007817	12902.520718
552.366022	12820.518789
552.724173	12857.893903
553.082267	12950.283130
553.440305	13039.405689
553.798288	12862.740973
554.156215	12937.821398
554.514086	12983.171617
554.871902	12920.860435
555.229661	12943.550669
555.587365	12907.282087
555.945014	12915.398345
556.302606	12901.953588
556.660143	12965.857775
557.017625	12994.166374
557.375050	12951.871093
557.732421	13055.645766
558.089735	13049.732492
558.446994	13018.429448
558.804197	13137.294814
559.161345	13128.319040
559.518437	12939.217797
559.875474	13043.393241
560.232455	13065.622209
560.589381	13115.499385
560.946251	13050.586968
561.303065	13233.220410
561.659825	13177.820650
562.016528	13099.372734
562.373177	13037.205225
562.729770	13162.382116
563.086307	13044.804764
563.442789	13162.200635
563.799216	13203.545658
564.155587	13144.266730
564.511904	13161.512517
564.868164	13170.805884
565.224370	13233.916089
565.580520	13182.526567
565.936615	13240.754414
566.292654	13179.017924
566.648638	13248.699273
567.004567	13245.883788
567.360441	13249.110127
567.716260	13222.805386
568.072023	13302.500987
568.427732	13292.587558
568.783385	13191.323380
569.138982	13303.615082
569.494525	13288.836940
569.850013	13236.892891
570.205445	13231.224113
570.560823	13241.923962
570.916145	13191.451930
571.271412	13209.022872
571.626625	13159.037311
571.981782	13160.022856
572.336884	13115.859828
572.691931	13197.546685
573.046923	13091.843771
573.401860	13063.502404
573.756743	13062.695819
574.111570	13093.701436
574.466342	13071.311151
574.821059	13112.099127
575.175722	12988.724448
575.530330	13005.816481
575.884882	12949.882358
576.239380	12945.161317
576.593823	12924.091815
576.948211	12919.494283
577.302544	12791.186835
577.656823	12810.496975
578.011047	12877.798899
578.365216	12816.760608
578.719330	12755.555960
579.073389	12718.997512
579.427394	12735.875295
579.781344	12724.338614
580.135239	12656.575424
580.489080	12680.992253
580.842866	12567.074779
581.196597	12650.770536
581.550273	12651.309939
581.903895	12612.672016
582.257463	12712.761605
582.610975	12561.779047
582.964434	12619.096966
583.317837	12545.249103
583.671186	12501.408709
584.024481	12555.812841
584.377721	12440.919904
584.730906	12510.162673
585.084037	12529.664376
585.437113	12443.107765
585.790135	12462.261629
586.143103	12375.100079
586.496016	12399.179150
586.848874	12407.277764
587.201679	12403.950602
587.554428	12281.150615
587.907124	12332.671207
588.259765	12267.829366
588.612352	12336.111795
588.964884	12192.375896
589.317362	12238.711662
589.669786	12242.038823
590.022155	12197.041484
590.374470	12295.046556
590.726731	12182.959021
591.078937	12066.531052
591.431090	12088.482756
591.783188	12019.827282
592.135232	11942.616970
592.487222	12004.623162
592.839157	12016.497600
593.191038	11948.754575
593.542866	11894.184084
593.894639	11752.847774
594.246358	11811.569655
594.598022	11817.714822
594.949633	11722.310985
595.301190	11705.478572
595.652692	11663.402582
596.004141	11759.509659
596.355535	11529.655729
596.706876	11508.692091
597.058162	11488.048566
597.409395	11570.350443
597.760573	11612.255035
598.111698	11499.446615
598.462768	11501.027016
598.813785	11507.230156
599.164748	11386.562577
599.515657	11455.805346
599.866511	11333.000317
600.217312	11461.370780
600.568060	11225.270860
600.918753	11395.843341
601.269392	11392.596838
601.619978	11294.974894
601.970510	11333.759011
602.320988	11374.254600
602.671412	11457.380706
603.021783	11378.121165
603.372100	11301.558641
603.722363	11317.198821
604.072572	11316.072123
604.422728	11324.395068
604.772830	11267.588826
605.122878	11278.102152
605.472872	11246.196689
605.822813	11310.100876
606.172701	11269.789289
606.522534	11306.277161
606.872314	11362.052487
607.222041	11297.571088
607.571714	11372.134795
607.921333	11233.951727
608.270899	11295.831890
608.620411	11358.062414
608.969870	11296.144442
609.319276	11280.060640
609.668627	11292.923144
610.017926	11376.243335
610.367171	11399.329299
610.716362	11400.271995
611.065500	11375.179652
611.414585	11383.658872
611.763616	11453.902310
612.112594	11412.547205
612.461518	11441.372522
612.810389	11492.721715
613.159207	11432.248034
613.507971	11430.680235
613.856682	11526.678928
614.205340	11484.222330
614.553945	11620.658638
614.902496	11496.810091
615.250994	11563.922972
615.599439	11557.132538
615.947830	11586.340983
616.296169	11546.901516
616.644454	11566.872047
616.992686	11585.204203
617.340864	11672.280054
617.688990	11562.808877
618.037063	11692.401819
618.385082	11658.800008
618.733048	11697.614372
619.080961	11687.368227
619.428821	11679.655262
619.776628	11682.216168
620.124382	11625.649381
620.472083	11642.910291
620.819731	11669.726709
621.167326	11588.619585
621.514868	11573.632235
621.862357	11474.780249
622.209793	11469.287912
622.557176	11389.070551
622.904506	11326.766931
623.251783	11255.921075
623.599007	11190.454131
623.946179	11139.087294
624.293297	11120.624068
624.640363	10981.611730
624.987376	10968.895419
625.334336	10904.247662
625.681243	10818.031329
626.028097	10788.210383
626.374899	10754.127142
626.721647	10731.560417
627.068343	10686.268170
627.414987	10622.253078
627.761577	10560.017513
628.108115	10608.251273
628.454600	10480.430297
628.801032	10493.491926
629.147412	10477.294699
629.493739	10447.645153
629.840014	10369.570282
630.186236	10420.624568
630.532405	10316.812087
630.878521	10351.449855
631.224585	10308.499224
631.570597	10224.647192
631.916556	10236.060364
632.262462	10219.238034
632.608316	10195.443787
632.954117	10172.730869
633.299866	10158.902984
633.645562	10136.172421
633.991206	10029.713334
634.336797	9934.133057
634.682336	9922.487992
635.027823	9868.172080
635.373257	9832.919291
635.718639	9760.056974
636.063968	9734.210978
636.409245	9611.315209
636.754470	9602.639383
637.099642	9553.604080
637.444762	9451.911404
637.789829	9454.570612
638.134845	9386.658708
638.479808	9371.033652
