Dividing Wavelength (nm)	Counts (n)	Blue Motor Position (mm): 27.800000	Red Motor Position (mm): 0.000000	
326.493990	2134.127110
326.888308	2134.127110
327.282561	2134.127110
327.676750	2100.626123
328.070874	2098.299630
328.464933	2101.558736
328.858929	2106.068048
329.252859	2118.698659
329.646726	2129.559825
330.040528	2139.163223
330.434265	2157.790287
330.827938	2175.872905
331.221547	2194.530216
331.615091	2213.046374
332.008571	2232.603530
332.401986	2252.715213
332.795338	2269.605599
333.188625	2289.316511
333.581847	2311.570685
333.975006	2330.409477
334.368100	2346.944461
334.761129	2362.446009
335.154095	2381.420912
335.546996	2402.596279
335.939833	2424.933632
336.332606	2439.053904
336.725315	2453.264916
337.117960	2463.904272
337.510540	2471.488688
337.903056	2482.266674
338.295508	2488.507623
338.687896	2496.036586
339.080220	2505.864316
339.472480	2513.872188
339.864676	2514.608197
340.256807	2522.048940
340.648875	2524.163704
341.040879	2524.287212
341.432818	2527.425331
341.824694	2530.099663
342.216506	2528.904909
342.608253	2529.053623
342.999937	2529.658562
343.391557	2529.711494
343.783113	2528.511699
344.174605	2528.035310
344.566033	2525.605474
344.957397	2523.331914
345.348697	2524.791328
345.739934	2520.977695
346.131106	2520.012314
346.522215	2518.817560
346.913260	2517.766480
347.304241	2515.916376
347.695159	2511.427229
348.086012	2511.903618
348.476802	2506.199552
348.867528	2507.185098
349.258191	2505.133348
349.648789	2504.147803
350.039324	2503.061434
350.429796	2501.402894
350.820203	2502.610251
351.210548	2499.625888
351.600828	2498.544560
351.991045	2499.731752
352.381198	2498.272338
352.771288	2496.162615
353.161314	2497.596823
353.551276	2496.346617
353.941175	2495.998778
354.331010	2496.676813
354.720782	2498.302585
355.110490	2494.347800
355.500135	2499.308295
355.889717	2495.489621
356.279235	2496.782677
356.668689	2498.617657
357.058080	2497.183449
357.447408	2495.277893
357.836672	2494.831750
358.225873	2499.126813
358.615010	2493.899137
359.004084	2499.091525
359.393095	2498.431134
359.782043	2501.261742
360.170927	2499.136896
360.559748	2502.791732
360.948505	2504.115035
361.337199	2502.285096
361.725830	2504.825838
362.114398	2503.174860
362.502903	2505.113184
362.891344	2508.989831
363.279722	2503.300889
363.668037	2504.669562
364.056289	2505.554285
364.444478	2505.090498
364.832603	2507.742145
365.220665	2506.370952
365.608665	2508.689882
365.996601	2508.571415
366.384474	2507.429594
366.772284	2507.265756
367.160031	2510.850017
367.547715	2511.104595
367.935336	2511.402023
368.322893	2509.715757
368.710388	2509.632578
369.097820	2512.238855
369.485189	2508.936899
369.872495	2508.127794
370.259738	2510.063597
370.646918	2509.720798
371.034035	2510.701303
371.421090	2511.780110
371.808081	2510.116529
372.195010	2510.247599
372.581875	2514.000738
372.968678	2512.475789
373.355418	2511.394461
373.742096	2512.672394
374.128710	2513.957888
374.515262	2512.821108
374.901751	2514.598115
375.288177	2515.397138
375.674540	2511.396982
376.060841	2516.710358
376.447079	2513.773886
376.833254	2515.838238
377.219367	2511.643998
377.605417	2513.796571
377.991404	2510.446724
378.377329	2514.535100
378.763191	2509.826662
379.148991	2516.601973
379.534727	2515.891171
379.920402	2517.075842
380.306013	2515.689524
380.691563	2519.961902
381.077049	2517.600122
381.462474	2519.104906
381.847835	2518.391583
382.233134	2517.181706
382.618371	2518.091634
383.003545	2520.617252
383.388657	2518.197498
383.773706	2520.821419
384.158693	2517.287570
384.543618	2520.324865
384.928480	2519.372087
385.313280	2521.469207
385.698017	2520.859228
386.082692	2521.759074
386.467305	2520.241686
386.851856	2521.380987
387.236344	2521.007942
387.620770	2523.092459
388.005133	2520.047602
388.389435	2523.531039
388.773674	2523.430216
389.157851	2520.317304
389.541965	2522.003570
389.926018	2521.643127
390.310008	2520.423168
390.693936	2521.272602
391.077802	2523.909126
391.461606	2524.501461
391.845348	2525.131606
392.229027	2522.590864
392.612645	2524.093128
392.996200	2525.673530
393.379694	2523.715041
393.763125	2526.336441
394.146494	2524.816533
394.529801	2524.829136
394.913047	2527.485824
395.296230	2528.257121
395.679351	2527.241328
396.062410	2527.339631
396.445408	2525.620598
396.828343	2526.643952
397.211217	2521.771677
397.594028	2524.627490
397.976778	2523.974661
398.359466	2523.720082
398.742092	2523.465504
399.124656	2528.330218
399.507158	2530.369364
399.889598	2527.468180
400.271977	2528.584796
400.654294	2528.121010
401.036549	2528.073119
401.418742	2529.512368
401.800874	2530.175280
402.182944	2530.119827
402.564952	2531.491021
402.946898	2529.681247
403.328783	2532.237112
403.710606	2530.177801
404.092367	2532.380785
404.474067	2533.426824
404.855705	2531.869108
405.237282	2531.004550
405.618797	2533.177287
406.000250	2532.564787
406.381642	2529.532533
406.762972	2533.404139
407.144240	2534.336753
407.525447	2533.502442
407.906593	2534.682072
408.287677	2531.924560
408.668700	2535.108049
409.049661	2534.248532
409.430560	2532.136289
409.811399	2536.204500
410.192176	2534.553522
410.572891	2535.090405
410.953545	2535.007226
411.334138	2536.653163
411.714669	2537.369007
412.095139	2536.121321
412.475547	2536.368338
412.855894	2536.547298
413.236180	2537.573173
413.616405	2535.327339
413.996568	2536.176774
414.376670	2538.493184
414.756711	2536.854809
415.136691	2538.427649
415.516609	2535.592000
415.896466	2536.973276
416.276262	2539.508976
416.655997	2535.733152
417.035670	2535.415559
417.415283	2538.770447
417.794834	2532.968079
418.174324	2538.410005
418.553753	2540.058462
418.933121	2540.111394
419.312428	2537.356404
419.691674	2540.103833
420.070859	2538.780530
420.449983	2540.192053
420.829045	2541.404450
421.208047	2538.110056
421.586988	2540.791950
421.965867	2543.062990
422.344686	2542.175747
422.723444	2542.342105
423.102141	2543.252033
423.480777	2541.979142
423.859352	2543.325130
424.237866	2543.093237
424.616319	2543.914945
424.994712	2542.510983
425.373044	2545.233207
425.751314	2542.231199
426.129524	2544.126673
426.507673	2543.917465
426.885762	2543.728422
427.263789	2547.995759
427.641756	2546.170861
428.019662	2546.211190
428.397508	2547.037940
428.775292	2546.919472
429.153016	2547.562220
429.530679	2546.533824
429.908282	2549.109854
430.285824	2547.562220
430.663305	2550.226469
431.040726	2551.663198
431.418086	2553.538508
431.795385	2549.306459
432.172624	2550.193702
432.549802	2552.409289
432.926920	2555.048333
433.303977	2556.255689
433.680974	2558.478838
434.057910	2560.447409
434.434786	2561.049827
434.811601	2561.758109
435.188355	2565.932184
435.565050	2568.369582
435.941683	2572.712536
436.318257	2577.816704
436.694770	2578.424163
437.071222	2584.072776
437.447614	2588.330031
437.823946	2592.841863
438.200218	2599.932246
438.576429	2607.975407
438.952580	2613.649226
439.328670	2620.580812
439.704700	2630.411062
440.080670	2635.563122
440.456580	2655.122799
440.832429	2660.544560
441.208218	2667.869356
441.583947	2681.573733
441.959616	2693.528829
442.335224	2701.766075
442.710773	2720.594784
443.086261	2738.810994
443.461689	2740.981210
443.837057	2766.086157
444.212365	2788.630197
444.587612	2798.957000
444.962800	2825.614622
445.337927	2845.184381
445.712995	2834.396312
446.088002	2900.100190
446.462949	2909.451531
446.837837	2925.336207
447.212664	2957.697894
447.587431	3006.851664
447.962139	3103.200717
448.336786	3246.578694
448.711374	3245.933427
449.085901	3155.784993
449.460369	3173.902900
449.834776	3196.504913
450.209124	3298.205151
450.583412	3373.459495
450.957640	3421.847011
451.331808	3422.346085
451.705917	3380.900238
452.079965	3402.420924
452.453954	3491.031806
452.827883	3497.998681
453.201752	3561.260120
453.575562	3560.135943
453.949311	3657.770490
454.323001	3668.596368
454.696632	3732.266141
455.070202	3825.900532
455.443713	3917.982249
455.817164	3998.668437
456.190556	4079.888987
456.563888	4160.376049
456.937160	4222.843507
457.310373	4163.776307
457.683526	4227.529259
458.056619	4245.024584
458.429653	4291.904794
458.802628	4318.123835
459.175542	4416.118825
459.548398	4624.167244
459.921194	4750.611985
460.293930	4809.827899
460.666607	5124.277432
461.039224	5331.587322
461.411782	5454.843534
461.784280	5539.860073
462.156719	5559.346653
462.529099	5568.387962
462.901419	5426.721457
463.273680	5432.385193
463.645882	5502.293394
464.018024	5501.867417
464.390106	5650.871322
464.762130	5938.025527
465.134094	6280.708042
465.505999	6958.947401
465.877845	7784.716127
466.249631	8283.281202
466.621358	8156.907036
466.993026	7864.547840
467.364634	7792.174514
467.736184	7629.710729
468.107674	7473.150134
468.479105	7585.797238
468.850477	7468.880277
469.221790	7380.493727
469.593043	7214.435598
469.964238	7176.758015
470.335373	7244.793427
470.706449	7346.279416
471.077467	7384.282154
471.448425	8465.448337
471.819324	9369.493580
472.190164	9450.799829
472.560945	8521.029579
472.931667	7951.149822
473.302330	7884.432671
473.672934	7638.061400
474.043479	7980.237279
474.413965	7974.606310
474.784393	7920.504647
475.154761	8094.777336
475.525070	8214.532466
475.895321	8104.771423
476.265513	8302.233419
476.635645	8476.924524
477.005719	8526.458901
477.375734	8660.697267
477.745691	8905.611644
478.115588	9062.247856
478.485427	9322.033637
478.855207	9836.826185
479.224928	10610.726480
479.594591	11225.243133
479.964194	11096.222362
480.333739	11080.423386
480.703226	11049.470702
481.072653	11159.566981
481.442022	11410.697101
481.811333	11606.414858
482.180584	11459.490429
482.549777	11207.500792
482.918912	11063.298587
483.287988	11107.995977
483.657005	11138.885648
484.025964	10850.067861
484.394864	10996.372228
484.763706	10989.599438
485.132489	10770.828485
485.501213	10738.486962
485.869879	10832.544811
486.238487	10694.192864
486.607036	10805.680502
486.975527	10613.748651
487.343959	10802.171859
487.712333	10855.668583
488.080648	10796.372011
488.448905	10856.419715
488.817104	10793.143152
489.185244	11068.697663
489.553326	11222.634336
489.921350	11766.635330
490.289315	12808.750215
490.657222	13151.863749
491.025070	13065.171026
491.392861	12944.145525
491.760593	12574.286150
492.128267	12234.068759
492.495883	11910.797207
492.863440	11584.942063
493.230939	11256.888977
493.598380	11188.725015
493.965763	11068.314535
494.333088	10965.613628
494.700354	10885.504652
495.067563	10955.203645
495.434713	10784.679055
495.801805	10913.508262
496.168839	10839.894813
496.535815	10775.960379
496.902733	10776.635894
497.269593	10718.196318
497.636395	10810.608230
498.003139	10805.194030
498.369825	10677.675523
498.736453	10827.990128
499.103023	10758.654098
499.469535	10787.645774
499.835989	10781.240988
500.202385	10739.338917
500.568723	10596.240724
500.935003	10811.523199
501.301226	10619.243509
501.667390	10882.512728
502.033497	10977.682150
502.399546	10839.184010
502.765537	10752.080433
503.131470	10828.128760
503.497345	10996.518422
503.863163	10608.447878
504.228923	10921.017061
504.594625	10980.023766
504.960269	10732.011600
505.325856	10955.622061
505.691385	10745.436193
506.056856	10907.100955
506.422270	10926.781620
506.787625	10815.533437
507.152924	10930.048288
507.518164	10916.359034
507.883347	10834.097486
508.248472	10752.950032
508.613540	10988.523152
508.978550	10874.555266
509.343503	10851.315547
509.708398	10969.969185
510.073236	11077.444064
510.438016	11088.174160
510.802738	11034.609380
511.167403	11093.177506
511.532010	10984.472585
511.896561	11222.662063
512.261053	11287.365272
512.625488	11154.127576
512.989866	11132.808537
513.354186	11119.804880
513.718449	11034.528722
514.082655	11220.237268
514.446803	11123.734460
514.810894	11240.845505
515.174927	11111.423962
515.538904	11128.904163
515.902822	11278.802873
516.266684	11168.663743
516.630488	11111.464291
516.994235	11162.437918
517.357925	11230.422919
517.721558	11316.702267
518.085133	11331.341778
518.448651	11346.644200
518.812112	11228.078783
519.175516	11243.154353
519.538863	11362.997703
519.902152	11279.155753
520.265385	11444.692122
520.628560	11343.972389
520.991678	11328.359935
521.354739	11396.397868
521.717743	11327.258443
522.080690	11305.563838
522.443580	11434.675349
522.806413	11389.017619
523.169189	11424.111612
523.531908	11477.308387
523.894569	11303.978395
524.257174	11301.760287
524.619722	11428.757035
524.982213	11376.634025
525.344647	11420.053483
525.707025	11376.273582
526.069345	11469.597943
526.431608	11391.845706
526.793815	11498.151038
527.155964	11279.261617
527.518057	11331.798002
527.880093	11285.873091
528.242072	11354.606703
528.603995	11267.790472
528.965860	11184.639160
529.327669	11229.417209
529.689421	11180.606237
530.051117	11151.339818
530.412755	11257.657753
530.774337	11146.439817
531.135862	11125.766045
531.497331	11150.442493
531.858743	11005.005204
532.220098	11163.027733
532.581396	11040.741944
532.942638	11028.534790
533.303824	10987.439304
533.664953	11004.556542
534.026025	10912.621019
534.387040	11007.825730
534.747999	11014.495176
535.108902	11074.086656
535.469748	10831.642444
535.830537	10934.489544
536.191270	10913.770402
536.551947	10941.446337
536.912567	10941.554721
537.273131	10868.750377
537.633638	10838.170738
537.994089	10833.447177
538.354483	10784.737028
538.714821	10931.391755
539.075103	10930.123905
539.435328	10899.503937
539.795497	10725.911804
540.155609	10888.491536
540.515665	10970.992539
540.875665	10705.880779
541.235609	10774.090111
541.595496	10769.109451
541.955328	10931.008628
542.315102	10803.666561
542.674821	10754.855589
543.034483	10759.493450
543.394090	10760.942782
543.753640	10690.817811
544.113134	10909.573641
544.472571	10765.124419
544.831953	10911.227140
545.191278	10713.659279
545.550548	10745.897458
545.909761	10881.380988
546.268918	10856.313851
546.628019	10941.194279
546.987064	10802.307970
547.346053	10726.027750
547.704986	10829.263019
548.063863	10807.646552
548.422684	10800.793103
548.781449	10716.769671
549.140158	10824.604993
549.498811	10705.873217
549.857408	10559.589015
550.215949	10784.076637
550.574434	10633.343616
550.932864	10731.371373
551.291237	10794.471496
551.649555	10742.275389
552.007817	10752.892059
552.366022	10719.113808
552.724173	10708.701305
553.082267	10693.401403
553.440305	10835.975316
553.798288	10633.711621
554.156215	10779.327870
554.514086	10762.669377
554.871902	10617.857192
555.229661	10646.657304
555.587365	10629.466969
555.945014	10517.127376
556.302606	10649.165278
556.660143	10545.398167
557.017625	10692.317555
557.375050	10589.599004
557.732421	10726.776362
558.089735	10638.561211
558.446994	10637.552980
558.804197	10673.241828
559.161345	10673.332569
559.518437	10525.432677
559.875474	10619.770310
560.232455	10642.306788
560.589381	10590.309807
560.946251	10593.601680
561.303065	10700.456497
561.659825	10625.045877
562.016528	10568.935314
562.373177	10443.786149
562.729770	10559.210928
563.086307	10473.574328
563.442789	10564.378111
563.799216	10447.461151
564.155587	10490.799950
564.511904	10447.042735
564.868164	10444.534761
565.224370	10455.262336
565.580520	10374.828206
565.936615	10385.001254
566.292654	10253.548127
566.648638	10388.353622
567.004567	10342.116159
567.360441	10317.235544
567.716260	10233.900230
568.072023	10332.139715
568.427732	10274.801631
568.783385	10183.685296
569.138982	10266.592112
569.494525	10283.008630
569.850013	10146.239605
570.205445	10230.981402
570.560823	10129.888623
570.916145	10048.080778
571.271412	10111.448082
571.626625	10064.252800
571.981782	10034.295743
572.336884	10016.069451
572.691931	10021.090441
573.046923	9967.986926
573.401860	9926.394886
573.756743	9848.496456
574.111570	9903.762626
574.466342	9882.642712
574.821059	9913.429038
575.175722	9805.757554
575.530330	9818.073093
575.884882	9803.471391
576.239380	9731.894568
576.593823	9711.268687
576.948211	9727.755781
577.302544	9605.994271
577.656823	9622.751067
578.011047	9623.129153
578.365216	9600.333055
578.719330	9521.386066
579.073389	9534.341831
579.427394	9485.203184
579.781344	9459.047157
580.135239	9412.822297
580.489080	9418.095344
580.842866	9313.307399
581.196597	9319.961722
581.550273	9367.139361
581.903895	9332.587292
582.257463	9402.019104
582.610975	9270.150081
582.964434	9304.745000
583.317837	9229.029389
583.671186	9202.701963
584.024481	9207.470895
584.377721	9121.350343
584.730906	9100.157333
585.084037	9130.948700
585.437113	9064.110562
585.790135	9085.069159
586.143103	8981.501174
586.496016	8959.201630
586.848874	9016.025516
587.201679	9003.561263
587.554428	8892.257627
587.907124	8936.889483
588.259765	8906.710615
588.612352	8911.822345
588.964884	8788.094786
589.317362	8802.136920
589.669786	8801.983165
590.022155	8853.856638
590.374470	8866.716621
590.726731	8803.886200
591.078937	8655.512440
591.431090	8772.260522
591.783188	8644.560533
592.135232	8632.189542
592.487222	8636.497207
592.839157	8685.235083
593.191038	8620.652861
593.542866	8563.297133
593.894639	8462.995816
594.246358	8523.988736
594.598022	8532.460395
594.949633	8429.762009
595.301190	8405.461127
595.652692	8434.359541
596.004141	8541.010192
596.355535	8324.089342
596.706876	8302.765261
597.058162	8243.682938
597.409395	8315.284967
597.760573	8376.386272
598.111698	8284.009648
598.462768	8270.897607
598.813785	8231.553922
599.164748	8203.404119
599.515657	8193.765433
599.866511	8108.375848
600.217312	8230.863284
600.568060	8087.389525
600.918753	8192.043879
601.269392	8160.723190
601.619978	8076.009120
601.970510	8133.110270
602.320988	8138.126218
602.671412	8195.935649
603.021783	8131.945763
603.372100	8103.034746
603.722363	8105.373841
604.072572	8081.390552
604.422728	8090.850277
604.772830	8021.297477
605.122878	8024.793517
605.472872	8022.356120
605.822813	8054.556490
606.172701	8000.502718
606.522534	8068.679282
606.872314	8066.715753
607.222041	8044.393524
607.571714	8095.359589
607.921333	8051.584730
608.270899	8063.146616
608.620411	8150.426633
608.969870	8052.343423
609.319276	8047.478710
609.668627	8065.223571
610.017926	8104.373172
610.367171	8146.048391
610.716362	8123.481666
611.065500	8118.047302
611.414585	8138.804253
611.763616	8126.463508
612.112594	8102.475178
612.461518	8123.335472
612.810389	8182.064915
613.159207	8123.466542
613.507971	8072.765137
613.856682	8194.912295
614.205340	8149.655337
614.553945	8226.598468
614.902496	8125.813199
615.250994	8178.543669
615.599439	8159.588930
615.947830	8176.065942
616.296169	8145.055284
616.644454	8160.486256
616.992686	8155.024165
617.340864	8213.781334
617.688990	8117.926314
618.037063	8202.768933
618.385082	8160.002305
618.733048	8246.402641
619.080961	8180.855038
619.428821	8201.218779
619.776628	8206.801857
620.124382	8148.982342
620.472083	8139.595714
620.819731	8170.102257
621.167326	8060.414311
621.514868	8070.461330
621.862357	7960.924619
622.209793	7973.514901
622.557176	7909.212463
622.904506	7873.775672
623.251783	7816.689646
623.599007	7765.269876
623.946179	7772.713140
624.293297	7731.567242
624.640363	7649.643451
624.987376	7636.682645
625.334336	7579.609221
625.681243	7525.943618
626.028097	7513.315528
626.374899	7493.037486
626.721647	7485.362330
627.068343	7415.265085
627.414987	7386.588482
627.761577	7341.863365
628.108115	7382.860548
628.454600	7278.115454
628.801032	7321.660941
629.147412	7287.416383
629.493739	7276.845083
629.840014	7212.862758
630.186236	7265.061386
630.532405	7150.470918
630.878521	7201.011006
631.224585	7156.863101
631.570597	7081.109682
631.916556	7117.990764
632.262462	7114.714014
632.608316	7075.743374
632.954117	7052.486011
633.299866	7035.711571
633.645562	7030.388113
633.991206	6956.157122
634.336797	6895.683441
634.682336	6851.840526
635.027823	6820.973541
635.373257	6812.264948
635.718639	6746.107365
636.063968	6756.797132
636.409245	6649.269320
636.754470	6649.004660
637.099642	6609.018227
637.444762	6553.424383
637.789829	6561.210445
638.134845	6501.886146
638.479808	6485.338559
638.824719	6491.488767
639.169577	6425.026194
639.514383	6444.507733
639.859137	6367.486464
640.203839	6381.886520
640.548489	6368.343460
