Dividing Wavelength (nm)	Counts (n)	Blue Motor Position (mm): 25.800000	Red Motor Position (mm): 0.000000	
326.493990	2134.154837
326.888308	2134.154837
327.282561	2134.154837
327.676750	2098.990268
328.070874	2098.937336
328.464933	2101.500763
328.858929	2107.552668
329.252859	2117.221601
329.646726	2129.539660
330.040528	2142.424850
330.434265	2157.984371
330.827938	2175.179747
331.221547	2194.704136
331.615091	2214.009234
332.008571	2231.355845
332.401986	2252.349730
332.795338	2271.402771
333.188625	2291.146450
333.581847	2310.446507
333.975006	2326.137099
334.368100	2346.929338
334.761129	2365.311905
335.154095	2381.216746
335.546996	2398.568397
335.939833	2422.939855
336.332606	2438.418718
336.725315	2449.443722
337.117960	2464.025259
337.510540	2469.673872
337.903056	2481.074442
338.295508	2487.965699
338.687896	2497.949704
339.080220	2509.380520
339.472480	2510.829852
339.864676	2515.649195
340.256807	2520.856707
340.648875	2523.836029
341.040879	2524.483817
341.432818	2528.093283
341.824694	2528.378109
342.216506	2528.151257
342.608253	2529.109076
342.999937	2531.775846
343.391557	2528.846936
343.783113	2528.103366
344.174605	2526.487676
344.566033	2527.697553
344.957397	2523.722603
345.348697	2524.453570
345.739934	2521.247397
346.131106	2519.049453
346.522215	2518.920904
346.913260	2516.478465
347.304241	2513.000069
347.695159	2512.783299
348.086012	2508.919255
348.476802	2506.078565
348.867528	2508.339522
349.258191	2503.502535
349.648789	2506.136538
350.039324	2500.319046
350.429796	2504.188132
350.820203	2500.626557
351.210548	2500.122441
351.600828	2496.807883
351.991045	2496.812924
352.381198	2496.886021
352.771288	2497.216216
353.161314	2495.885352
353.551276	2497.100270
353.941175	2495.101452
354.331010	2495.272851
354.720782	2494.544405
355.110490	2497.611947
355.500135	2495.406442
355.889717	2495.582882
356.279235	2496.271000
356.668689	2497.566576
357.058080	2497.614467
357.447408	2494.370485
357.836672	2494.486431
358.225873	2495.776967
358.615010	2492.371667
359.004084	2498.945332
359.393095	2498.083295
359.782043	2499.706546
360.170927	2497.095228
360.559748	2499.295692
360.948505	2499.338542
361.337199	2501.954901
361.725830	2500.613954
362.114398	2501.796104
362.502903	2503.741990
362.891344	2502.940446
363.279722	2502.489263
363.668037	2502.756444
364.056289	2502.547236
364.444478	2507.943792
364.832603	2506.068482
365.220665	2506.136538
365.608665	2506.486898
365.996601	2506.814573
366.384474	2507.681652
366.772284	2507.290962
367.160031	2508.939419
367.547715	2507.537979
367.935336	2509.700634
368.322893	2510.771879
368.710388	2506.854902
369.097820	2513.173989
369.485189	2511.830521
369.872495	2511.155007
370.259738	2509.282218
370.646918	2508.137876
371.034035	2512.206087
371.421090	2509.176354
371.808081	2508.334481
372.195010	2513.289935
372.581875	2513.221880
372.968678	2512.773217
373.355418	2509.007475
373.742096	2512.511077
374.128710	2510.323216
374.515262	2513.645337
374.901751	2512.811026
375.288177	2514.323372
375.674540	2514.106602
376.060841	2513.874709
376.447079	2513.937723
376.833254	2514.661129
377.219367	2508.284069
377.605417	2512.410254
377.991404	2511.790192
378.377329	2513.438649
378.763191	2509.435973
379.148991	2514.666170
379.534727	2513.441170
379.920402	2517.965605
380.306013	2516.735564
380.691563	2516.170955
381.077049	2518.749505
381.462474	2519.288908
381.847835	2518.709176
382.233134	2517.153980
382.618371	2517.269926
383.003545	2517.829494
383.388657	2517.705986
383.773706	2518.739423
384.158693	2518.663805
384.543618	2520.259330
384.928480	2519.132633
385.313280	2519.886285
385.698017	2520.904598
386.082692	2519.291429
386.467305	2519.278826
386.851856	2520.176151
387.236344	2520.914680
387.620770	2521.471728
388.005133	2521.562469
388.389435	2520.682787
388.773674	2522.147243
389.157851	2520.831501
389.541965	2523.064732
389.926018	2522.222860
390.310008	2519.954341
390.693936	2522.036337
391.077802	2522.147243
391.461606	2521.345699
391.845348	2521.759074
392.229027	2524.647655
392.612645	2520.912160
392.996200	2523.094979
393.379694	2524.710669
393.763125	2524.219157
394.146494	2526.288550
394.529801	2524.143539
394.913047	2527.022038
395.296230	2523.493231
395.679351	2524.594723
396.062410	2526.006246
396.445408	2524.075484
396.828343	2525.381143
397.211217	2523.525998
397.594028	2527.190917
397.976778	2524.884589
398.359466	2526.338962
398.742092	2523.505833
399.124656	2527.145547
399.507158	2526.585978
399.889598	2528.284847
400.271977	2525.355937
400.654294	2526.621267
401.036549	2529.086391
401.418742	2530.029087
401.800874	2527.208561
402.182944	2529.676206
402.564952	2530.046731
402.946898	2531.806093
403.328783	2530.533202
403.710606	2529.734179
404.092367	2530.848274
404.474067	2529.154446
404.855705	2526.573376
405.237282	2527.790814
405.618797	2529.887934
406.000250	2529.479601
406.381642	2529.305681
406.762972	2531.995137
407.144240	2533.336083
407.525447	2533.827596
407.906593	2531.314581
408.287677	2531.803573
408.668700	2531.778367
409.049661	2532.307688
409.430560	2533.880528
409.811399	2533.638553
410.192176	2530.273582
410.572891	2532.479087
410.953545	2530.208048
411.334138	2530.870959
411.714669	2529.988757
412.095139	2532.458923
412.475547	2533.996475
412.855894	2534.180477
413.236180	2535.251722
413.616405	2533.585621
413.996568	2533.540250
414.376670	2532.355579
414.756711	2536.101156
415.136691	2534.853471
415.516609	2537.787422
415.896466	2535.564273
416.276262	2534.440096
416.655997	2534.273738
417.035670	2533.852802
417.415283	2531.319622
417.794834	2530.608819
418.174324	2534.798018
418.553753	2538.379758
418.933121	2537.716846
419.312428	2537.477391
419.691674	2537.497556
420.070859	2534.339273
420.449983	2537.129552
420.829045	2539.067875
421.208047	2537.563091
421.586988	2539.012423
421.965867	2538.717515
422.344686	2538.785571
422.723444	2541.812784
423.102141	2541.951415
423.480777	2538.011754
423.859352	2538.566281
424.237866	2539.690458
424.616319	2539.461085
424.994712	2541.185160
425.373044	2541.495191
425.751314	2542.576518
426.129524	2539.319933
426.507673	2539.287166
426.885762	2540.038297
427.263789	2541.326312
427.641756	2539.468647
428.019662	2539.229192
428.397508	2543.988042
428.775292	2541.850592
429.153016	2540.058462
429.530679	2542.458051
429.908282	2539.947557
430.285824	2542.276570
430.663305	2538.168029
431.040726	2541.490150
431.418086	2541.485109
431.795385	2541.207845
432.172624	2543.957795
432.549802	2544.696324
432.926920	2541.485109
433.303977	2546.304452
433.680974	2545.570964
434.057910	2544.250182
434.434786	2544.219935
434.811601	2547.426108
435.188355	2543.768751
435.565050	2548.918290
435.941683	2547.899977
436.318257	2545.860830
436.694770	2541.855633
437.071222	2546.455686
437.447614	2542.584080
437.823946	2543.456200
438.200218	2548.310831
438.576429	2549.346788
438.952580	2548.010882
439.328670	2548.731767
439.704700	2546.564071
440.080670	2549.407282
440.456580	2550.871737
440.832429	2549.916438
441.208218	2553.188147
441.583947	2551.431305
441.959616	2549.878630
442.335224	2552.792417
442.710773	2554.703014
443.086261	2552.265616
443.461689	2557.546225
443.837057	2556.076728
444.212365	2560.155022
444.587612	2559.318190
444.962800	2564.258521
445.337927	2563.535116
445.712995	2563.739282
446.088002	2567.860426
446.462949	2572.203380
446.837837	2576.440469
447.212664	2577.272260
447.587431	2582.691500
447.962139	2593.028386
448.336786	2608.519852
448.711374	2609.268463
449.085901	2604.456682
449.460369	2604.723863
449.834776	2610.974894
450.209124	2625.995012
450.583412	2641.667959
450.957640	2646.807415
451.331808	2654.351502
451.705917	2653.749084
452.079965	2657.300577
452.453954	2671.801456
452.827883	2676.426715
453.201752	2689.490865
453.575562	2695.578058
453.949311	2715.956923
454.323001	2720.511605
454.696632	2735.302351
455.070202	2755.335896
455.443713	2779.838424
455.817164	2798.730148
456.190556	2814.801347
456.563888	2840.516272
456.937160	2855.501102
457.310373	2854.734847
457.683526	2874.949874
458.056619	2888.341699
458.429653	2908.536561
458.802628	2921.109199
459.175542	2951.630865
459.548398	3010.022550
459.921194	3053.429405
460.293930	3084.316555
460.666607	3182.513191
461.039224	3259.794079
461.411782	3305.093888
461.784280	3336.490194
462.156719	3353.559541
462.529099	3369.645863
462.901419	3346.348170
463.273680	3363.218391
463.645882	3394.811302
464.018024	3421.330292
464.390106	3482.192143
464.762130	3598.766305
465.134094	3752.476127
465.505999	4037.205537
465.877845	4374.952762
466.249631	4562.524015
466.621358	4527.719889
466.993026	4453.065441
467.364634	4445.165953
467.736184	4425.081996
468.107674	4408.438627
468.479105	4493.424919
468.850477	4481.537878
469.221790	4483.577025
469.593043	4451.409422
469.964238	4481.575687
470.335373	4547.413156
470.706449	4627.522132
471.077467	4685.739897
471.448425	5217.543819
471.819324	5684.268966
472.190164	5759.649339
472.560945	5380.335280
472.931667	5165.866951
473.302330	5165.385521
473.672934	5095.091672
474.043479	5312.922450
474.413965	5355.227813
474.784393	5379.904261
475.154761	5519.251836
475.525070	5629.658146
475.895321	5612.387153
476.265513	5770.283653
476.635645	5922.221510
477.005719	6002.809395
477.375734	6137.382997
477.745691	6335.492781
478.115588	6490.251163
478.485427	6706.620007
478.855207	7074.059628
479.224928	7631.573435
479.594591	8072.999551
479.964194	8070.978048
480.333739	8126.166080
480.703226	8192.774846
481.072653	8337.665169
481.442022	8582.239269
481.811333	8779.426522
482.180584	8751.911904
482.549777	8663.427051
482.918912	8626.046896
483.287988	8728.354592
483.657005	8814.805340
484.025964	8676.203856
484.394864	8858.514664
484.763706	8923.321217
485.132489	8817.865320
485.501213	8868.869194
485.869879	8988.591557
486.238487	8954.236093
486.607036	9090.380015
486.975527	9004.209051
487.343959	9217.356598
487.712333	9317.322678
488.080648	9326.860542
488.448905	9426.035161
488.817104	9429.616901
489.185244	9713.330519
489.553326	9905.766485
489.921350	10402.912474
490.289315	11318.741414
490.657222	11653.579893
491.025070	11648.808441
491.392861	11602.150042
491.760593	11368.777386
492.128267	11135.014041
492.495883	10902.586602
492.863440	10658.995528
493.230939	10409.927240
493.598380	10391.537110
493.965763	10318.100102
494.333088	10260.041133
494.700354	10225.877233
495.067563	10313.454678
495.434713	10197.162821
495.801805	10345.944915
496.168839	10303.868924
496.535815	10274.920098
496.902733	10306.913781
497.269593	10269.057237
497.636395	10386.904290
498.003139	10408.288865
498.369825	10309.124327
498.736453	10475.926026
499.103023	10428.246793
499.469535	10475.048865
499.835989	10485.849537
500.202385	10472.004008
500.568723	10341.848978
500.935003	10572.103679
501.301226	10403.159491
501.667390	10656.215331
502.033497	10772.802096
502.399546	10652.520166
502.765537	10574.150388
503.131470	10662.410909
503.497345	10838.974802
503.863163	10472.873607
504.228923	10779.148909
504.594625	10853.395023
504.960269	10612.402663
505.325856	10840.988743
505.691385	10636.320418
506.056856	10794.524428
506.422270	10825.036012
506.787625	10717.982069
507.152924	10848.608447
507.518164	10830.485499
507.883347	10762.518143
508.248472	10680.410349
508.613540	10920.724674
508.978550	10805.743516
509.343503	10781.452716
509.708398	10913.669579
510.073236	11025.920952
510.438016	11027.972701
510.802738	10984.850671
511.167403	11038.211285
511.532010	10940.344844
511.896561	11168.988898
512.261053	11244.333983
512.625488	11115.600558
512.989866	11095.766138
513.354186	11086.550909
513.718449	10992.606486
514.082655	11178.683037
514.446803	11086.644170
514.810894	11206.273272
515.174927	11077.227295
515.538904	11103.549680
515.902822	11252.397309
516.266684	11137.184258
516.630488	11079.813407
516.994235	11137.085956
517.357925	11207.354599
517.721558	11288.421394
518.085133	11305.962089
518.448651	11321.642598
518.812112	11204.498785
519.175516	11219.995292
519.538863	11335.178096
519.902152	11254.123904
520.265385	11424.156982
520.628560	11323.369193
520.991678	11304.172479
521.354739	11373.200999
521.717743	11303.990998
522.080690	11285.187494
522.443580	11415.730693
522.806413	11373.233766
523.169189	11400.466079
523.531908	11460.213835
523.894569	11282.543409
524.257174	11293.548247
524.619722	11402.537994
524.982213	11352.033194
525.344647	11407.337172
525.707025	11361.177847
526.069345	11456.564039
526.431608	11371.789476
526.793815	11484.497073
527.155964	11268.017324
527.518057	11325.829276
527.880093	11277.933273
528.242072	11342.883500
528.603995	11251.908317
528.965860	11169.614001
529.327669	11222.475540
529.689421	11170.027375
530.051117	11138.555452
530.412755	11241.437840
530.774337	11132.518670
531.135862	11116.094591
531.497331	11145.784467
531.858743	10992.296455
532.220098	11156.048256
532.581396	11027.690397
532.942638	11019.390137
533.303824	10976.200051
533.664953	10993.745787
534.026025	10903.418393
534.387040	11004.145688
534.747999	11010.079126
535.108902	11061.030067
535.469748	10820.882101
535.830537	10923.835066
536.191270	10907.751264
536.551947	10925.700293
536.912567	10929.387897
537.273131	10854.496515
537.633638	10831.642444
537.994089	10825.585498
538.354483	10767.539132
538.714821	10913.430124
539.075103	10923.688872
539.435328	10884.231761
539.795497	10717.228416
540.155609	10870.756757
540.515665	10959.786054
540.875665	10700.159069
541.235609	10763.226425
541.595496	10758.142421
541.955328	10909.031717
542.315102	10794.151383
542.674821	10748.203786
543.034483	10744.256563
543.394090	10761.625858
543.753640	10680.284320
544.113134	10906.755636
544.472571	10761.923286
544.831953	10897.374049
545.191278	10708.298012
545.550548	10739.033927
545.909761	10875.881090
546.268918	10851.131545
546.628019	10931.696745
546.987064	10800.150356
547.346053	10712.220030
547.704986	10814.600823
548.063863	10808.717797
548.422684	10797.695314
548.781449	10714.191121
549.140158	10816.050155
549.498811	10693.116577
549.857408	10549.892356
550.215949	10772.297981
550.574434	10626.129725
550.932864	10724.661598
551.291237	10782.302151
551.649555	10736.583927
552.007817	10745.131203
552.366022	10708.323218
552.724173	10692.607421
553.082267	10681.108549
553.440305	10826.651702
553.798288	10627.284149
554.156215	10779.325349
554.514086	10760.494119
554.871902	10600.702145
555.229661	10644.671089
555.587365	10621.070927
555.945014	10516.484629
556.302606	10640.456684
556.660143	10533.465756
557.017625	10685.912769
557.375050	10582.813611
557.732421	10714.153313
558.089735	10626.807760
558.446994	10626.989242
558.804197	10662.733543
559.161345	10671.968937
559.518437	10518.183498
559.875474	10605.592064
560.232455	10633.078956
560.589381	10586.929713
560.946251	10586.791081
561.303065	10684.415546
561.659825	10623.112595
562.016528	10555.813191
562.373177	10434.903636
562.729770	10545.756089
563.086307	10465.258944
563.442789	10554.714219
563.799216	10433.146794
564.155587	10486.129321
564.511904	10431.180744
564.868164	10430.480024
565.224370	10443.881931
565.580520	10366.066681
565.936615	10375.458350
566.292654	10244.194266
566.648638	10372.491631
567.004567	10330.718110
567.360441	10321.225617
567.716260	10220.576460
568.072023	10320.661008
568.427732	10272.349110
568.783385	10179.816211
569.138982	10257.863354
569.494525	10265.783007
569.850013	10140.996805
570.205445	10222.103930
570.560823	10120.786820
570.916145	10047.054903
571.271412	10109.991189
571.626625	10053.835255
571.981782	10033.201813
572.336884	10007.743986
572.691931	10014.468885
573.046923	9963.364188
573.401860	9914.086909
573.756743	9853.910656
574.111570	9888.820646
574.466342	9876.484942
574.821059	9903.664323
575.175722	9795.680288
575.530330	9811.275097
575.884882	9796.428899
576.239380	9727.609587
576.593823	9699.116986
576.948211	9717.923010
577.302544	9606.420249
577.656823	9618.277042
578.011047	9610.357390
578.365216	9588.690511
578.719330	9513.695785
579.073389	9526.507878
579.427394	9480.051125
579.781344	9450.056259
580.135239	9396.748578
580.489080	9413.185260
580.842866	9312.314292
581.196597	9315.162544
581.550273	9364.157518
581.903895	9326.174945
582.257463	9394.951407
582.610975	9266.928784
582.964434	9294.667733
583.317837	9218.256444
583.671186	9197.484369
584.024481	9195.921612
584.377721	9112.830793
584.730906	9092.043595
585.084037	9125.567268
585.437113	9057.557062
585.790135	9080.532121
586.143103	8975.119073
586.496016	8953.575702
586.848874	9007.952108
587.201679	9000.105552
587.554428	8884.726143
587.907124	8926.381198
588.259765	8899.416066
588.612352	8905.341942
588.964884	8783.847614
589.317362	8796.417731
589.669786	8794.557545
590.022155	8844.233075
590.374470	8853.420578
590.726731	8799.480232
591.078937	8651.519846
591.431090	8763.937577
591.783188	8638.193556
592.135232	8629.497565
592.487222	8628.504458
592.839157	8675.775358
593.191038	8611.316644
593.542866	8554.427223
593.894639	8450.339999
594.246358	8508.154472
594.598022	8525.848922
594.949633	8423.851256
595.301190	8393.584168
595.652692	8425.416534
596.004141	8529.957462
596.355535	8314.680028
596.706876	8298.394581
597.058162	8227.251297
597.409395	8310.942013
597.760573	8368.832103
598.111698	8276.967156
598.462768	8262.488962
598.813785	8224.415648
599.164748	8199.550157
599.515657	8183.713372
599.866511	8096.221626
600.217312	8226.923622
600.568060	8084.785769
600.918753	8188.978857
601.269392	8155.813106
601.619978	8064.928664
601.970510	8130.695557
602.320988	8130.539281
602.671412	8187.915174
603.021783	8121.001418
603.372100	8091.548477
603.722363	8091.561080
604.072572	8065.256339
604.422728	8083.782579
604.772830	8010.665684
605.122878	8018.330758
605.472872	8013.244234
605.822813	8039.299438
606.172701	7989.863362
606.522534	8065.924292
606.872314	8063.557470
607.222041	8030.343828
607.571714	8084.344668
607.921333	8048.378556
608.270899	8056.091521
608.620411	8139.199983
608.969870	8050.304277
609.319276	8040.257257
609.668627	8060.091677
610.017926	8095.989733
610.367171	8133.052296
610.716362	8113.122095
611.065500	8107.135724
611.414585	8137.518759
611.763616	8122.004608
612.112594	8104.010209
612.461518	8117.008824
612.810389	8178.175664
613.159207	8116.018237
613.507971	8067.282883
613.856682	8184.656068
614.205340	8140.964387
614.553945	8216.692600
614.902496	8119.962940
615.250994	8170.626537
615.599439	8152.402765
615.947830	8169.565374
616.296169	8144.132752
616.644454	8150.194740
616.992686	8147.956468
617.340864	8207.409316
617.688990	8112.963298
618.037063	8201.460754
618.385082	8148.916807
618.733048	8233.963593
619.080961	8175.420674
619.428821	8191.023045
619.776628	8193.992285
620.124382	8143.416909
620.472083	8131.202193
620.819731	8154.157087
621.167326	8051.730923
621.514868	8056.663692
621.862357	7948.687218
622.209793	7964.655073
622.557176	7898.762151
622.904506	7871.645784
623.251783	7804.169940
623.599007	7757.985409
623.946179	7763.157633
624.293297	7722.120120
624.640363	7636.937223
624.987376	7623.192517
625.334336	7564.652118
625.681243	7516.796444
626.028097	7504.876636
626.374899	7485.158163
626.721647	7476.129456
627.068343	7412.283243
627.414987	7378.424333
627.761577	7333.666449
628.108115	7370.587859
628.454600	7265.542816
628.801032	7316.879406
629.147412	7281.069570
629.493739	7269.023733
629.840014	7199.488577
630.186236	7263.619616
630.532405	7143.418344
630.878521	7195.465737
631.224585	7150.758264
631.570597	7077.409475
631.916556	7111.535566
632.262462	7107.573219
632.608316	7069.857827
632.954117	7044.359671
633.299866	7029.314347
633.645562	7023.491814
633.991206	6947.173786
634.336797	6886.654734
634.682336	6843.636048
635.027823	6812.259906
635.373257	6801.585263
635.718639	6738.404482
636.063968	6746.414875
636.409245	6648.082128
636.754470	6639.993597
637.099642	6600.576815
637.444762	6543.142949
637.789829	6555.085443
638.134845	6498.032184
638.479808	6482.344113
638.824719	6484.547098
639.169577	6414.883393
639.514383	6431.761176
639.859137	6363.340115
640.203839	6369.104675
640.548489	6354.876018
640.893086	6332.581515
