Dividing Wavelength (nm)	Counts (n)	Blue Motor Position (mm): 30.900000	Red Motor Position (mm): 0.000000	
326.493990	2131.079733
326.888308	2131.079733
327.282561	2131.079733
327.676750	2100.416915
328.070874	2098.241657
328.464933	2097.976996
328.858929	2106.572163
329.252859	2114.731271
329.646726	2128.559156
330.040528	2138.049128
330.434265	2158.586789
330.827938	2174.756290
331.221547	2191.583661
331.615091	2210.621579
332.008571	2230.892058
332.401986	2250.492065
332.795338	2269.691299
333.188625	2288.693928
333.581847	2308.130097
333.975006	2324.786069
334.368100	2345.255675
334.761129	2359.930473
335.154095	2378.723895
335.546996	2399.334653
335.939833	2424.772315
336.332606	2441.130859
336.725315	2451.036726
337.117960	2460.037707
337.510540	2470.351907
337.903056	2479.264667
338.295508	2490.211533
338.687896	2496.323932
339.080220	2504.639315
339.472480	2511.754904
339.864676	2515.487878
340.256807	2520.153466
340.648875	2524.798889
341.040879	2524.763601
341.432818	2526.996833
341.824694	2530.336597
342.216506	2526.699404
342.608253	2529.051103
342.999937	2527.019518
343.391557	2529.507327
343.783113	2526.482635
344.174605	2526.129754
344.566033	2528.115969
344.957397	2519.697242
345.348697	2522.210257
345.739934	2518.361336
346.131106	2518.179854
346.522215	2517.257323
346.913260	2512.937054
347.304241	2513.110974
347.695159	2510.910511
348.086012	2510.179543
348.476802	2508.934378
348.867528	2508.132835
349.258191	2505.697958
349.648789	2505.418173
350.039324	2502.169150
350.429796	2501.639829
350.820203	2498.632780
351.210548	2499.209993
351.600828	2495.824858
351.991045	2495.335866
352.381198	2498.418531
352.771288	2498.307626
353.161314	2495.169508
353.551276	2499.086484
353.941175	2495.313181
354.331010	2499.499859
354.720782	2496.076915
355.110490	2495.000629
355.500135	2494.579693
355.889717	2496.381905
356.279235	2495.098932
356.668689	2495.572800
357.058080	2496.759992
357.447408	2495.794611
357.836672	2494.171359
358.225873	2493.694970
358.615010	2492.724548
359.004084	2496.898623
359.393095	2498.254694
359.782043	2501.113028
360.170927	2499.633449
360.559748	2500.200579
360.948505	2500.830723
361.337199	2499.482215
361.725830	2500.931547
362.114398	2505.632423
362.502903	2501.516320
362.891344	2502.963132
363.279722	2503.013543
363.668037	2503.547905
364.056289	2503.396671
364.444478	2505.133348
364.832603	2504.548574
365.220665	2507.500170
365.608665	2504.722494
365.996601	2507.132166
366.384474	2506.940602
366.772284	2507.238030
367.160031	2507.187618
367.547715	2505.856754
367.935336	2508.667197
368.322893	2506.587721
368.710388	2510.285408
369.097820	2512.758093
369.485189	2513.060563
369.872495	2509.486385
370.259738	2511.482682
370.646918	2509.962774
371.034035	2511.772548
371.421090	2510.953360
371.808081	2509.650222
372.195010	2513.433608
372.581875	2511.296159
372.968678	2513.118536
373.355418	2509.811539
373.742096	2513.075686
374.128710	2512.392610
374.515262	2513.814215
374.901751	2512.183402
375.288177	2513.957888
375.674540	2516.513753
376.060841	2515.036695
376.447079	2510.729029
376.833254	2516.796058
377.219367	2510.033350
377.605417	2514.822446
377.991404	2511.407064
378.377329	2513.012672
378.763191	2513.468896
379.148991	2517.776562
379.534727	2515.094668
379.920402	2518.631038
380.306013	2514.930831
380.691563	2519.127591
381.077049	2516.770852
381.462474	2517.864782
381.847835	2518.936027
382.233134	2515.823115
382.618371	2518.837725
383.003545	2520.113137
383.388657	2518.741943
383.773706	2518.164731
384.158693	2519.304032
384.543618	2521.988446
384.928480	2519.591378
385.313280	2519.911491
385.698017	2517.085924
386.082692	2523.616739
386.467305	2521.691018
386.851856	2522.038858
387.236344	2521.426358
387.620770	2518.754546
388.005133	2523.006759
388.389435	2525.174455
388.773674	2522.308559
389.157851	2522.895854
389.541965	2522.427027
389.926018	2524.982892
390.310008	2523.168076
390.693936	2524.004908
391.077802	2523.097500
391.461606	2525.958355
391.845348	2523.324352
392.229027	2524.531708
392.612645	2524.672861
392.996200	2523.450381
393.379694	2525.754188
393.763125	2527.410207
394.146494	2525.524816
394.529801	2528.171421
394.913047	2522.805113
395.296230	2526.986750
395.679351	2526.497758
396.062410	2528.201668
396.445408	2526.122192
396.828343	2527.173273
397.211217	2524.171266
397.594028	2525.023221
397.976778	2526.520443
398.359466	2528.030269
398.742092	2525.239990
399.124656	2529.535053
399.507158	2526.308715
399.889598	2529.391381
400.271977	2531.233922
400.654294	2530.555887
401.036549	2529.645959
401.418742	2531.158305
401.800874	2529.794673
402.182944	2531.334745
402.564952	2531.785929
402.946898	2530.021525
403.328783	2533.328522
403.710606	2531.047400
404.092367	2534.651825
404.474067	2531.977493
404.855705	2533.086546
405.237282	2533.804911
405.618797	2534.901362
406.000250	2536.219623
406.381642	2535.561753
406.762972	2533.318439
407.144240	2534.934129
407.525447	2534.908923
407.906593	2538.208359
408.287677	2536.428831
408.668700	2536.234747
409.049661	2536.156609
409.430560	2532.940353
409.811399	2540.686086
410.192176	2538.054603
410.572891	2538.745242
410.953545	2537.225334
411.334138	2540.403781
411.714669	2539.473688
412.095139	2539.221631
412.475547	2539.750952
412.855894	2541.296065
413.236180	2539.791281
413.616405	2541.185160
413.996568	2539.738349
414.376670	2542.200952
414.756711	2540.386137
415.136691	2543.317568
415.516609	2544.587939
415.896466	2543.249513
416.276262	2545.328988
416.655997	2540.401261
417.035670	2540.464275
417.415283	2543.801519
417.794834	2541.472506
418.174324	2544.351005
418.553753	2549.475337
418.933121	2550.201264
419.312428	2554.299722
419.691674	2555.849877
420.070859	2560.681822
420.449983	2562.438665
420.829045	2566.579972
421.208047	2573.758576
421.586988	2577.431056
421.965867	2585.958168
422.344686	2593.194744
422.723444	2597.504931
423.102141	2599.881835
423.480777	2614.927158
423.859352	2619.723816
424.237866	2637.390540
424.616319	2645.199287
424.994712	2661.716628
425.373044	2670.941939
425.751314	2688.396935
426.129524	2691.726617
426.507673	2716.980277
426.885762	2735.927454
427.263789	2748.283322
427.641756	2755.366143
428.019662	2781.408744
428.397508	2799.009932
428.775292	2819.232521
429.153016	2847.226048
429.530679	2863.985364
429.908282	2893.334962
430.285824	2898.890313
430.663305	2962.134109
431.040726	2954.000207
431.418086	2978.696820
431.795385	3020.397245
432.172624	3053.167265
432.549802	3081.891760
432.926920	3117.802419
433.303977	3152.777945
433.680974	3191.274716
434.057910	3232.297105
434.434786	3269.223557
434.811601	3296.024852
435.188355	3384.315620
435.565050	3397.505799
435.941683	3436.778908
436.318257	3534.358003
436.694770	3579.095723
437.071222	3631.652272
437.447614	3656.243020
437.823946	3670.771626
438.200218	3771.521606
438.576429	3771.204013
438.952580	3858.078217
439.328670	3923.736726
439.704700	3938.209878
440.080670	3980.648832
440.456580	4147.203514
440.832429	4151.629647
441.208218	4130.091317
441.583947	4251.328547
441.959616	4306.985406
442.335224	4321.292200
442.710773	4440.097073
443.086261	4510.108618
443.461689	4444.404739
443.837057	4587.424794
444.212365	4729.156835
444.587612	4712.286613
444.962800	4859.195919
445.337927	4897.685128
445.712995	4705.518864
446.088002	5121.981186
446.462949	5062.792999
446.837837	5069.175100
447.212664	5224.014140
447.587431	5383.299478
447.962139	5813.687988
448.336786	6519.033631
448.711374	6395.220372
449.085901	5776.776659
449.460369	5772.652996
449.834776	5770.457573
450.209124	6115.486745
450.583412	6288.526872
450.957640	6437.631599
451.331808	6301.648995
451.705917	5982.808617
452.079965	5957.741480
452.453954	6175.267268
452.827883	6104.872596
453.201752	6218.033897
453.575562	6078.343524
453.949311	6287.995030
454.323001	6222.870884
454.696632	6315.098793
455.070202	6472.934800
455.443713	6637.168030
455.817164	6756.492142
456.190556	6853.942687
456.563888	6947.221677
456.937160	7010.515884
457.310373	6720.236163
457.683526	6767.968329
458.056619	6691.927564
458.429653	6692.484612
458.802628	6648.351830
459.175542	6768.341374
459.548398	7117.249714
459.921194	7286.193903
460.293930	7302.189484
460.666607	7823.396901
461.039224	8131.277810
461.411782	8272.964480
461.784280	8306.901528
462.156719	8212.889050
462.529099	8113.512784
462.901419	7714.510498
463.273680	7619.522557
463.645882	7645.141701
464.018024	7524.058227
464.390106	7694.411418
464.762130	8076.772855
465.134094	8541.957929
465.505999	9558.930059
465.877845	10761.789696
466.249631	11407.558983
466.621358	11038.528877
466.993026	10428.241752
467.364634	10179.002064
467.736184	9822.912601
468.107674	9499.600719
468.479105	9531.501141
468.850477	9298.556983
469.221790	9075.952232
469.593043	8749.809743
469.964238	8616.105740
470.335373	8631.761043
470.706449	8692.980816
471.077467	8679.858692
471.448425	9984.577363
471.819324	11039.902592
472.190164	11054.506814
472.560945	9815.376076
472.931667	9040.339001
473.302330	8912.205473
473.672934	8562.099859
474.043479	8909.828569
474.413965	8853.281946
474.784393	8741.643074
475.154761	8895.947752
475.525070	8985.486206
475.895321	8812.998086
476.265513	8985.196340
476.635645	9159.584975
477.005719	9156.857710
477.375734	9273.610833
477.745691	9504.586420
478.115588	9643.777719
478.485427	9887.804853
478.855207	10422.071379
479.224928	11227.473844
479.594591	11849.718587
479.964194	11664.713282
480.333739	11602.465114
480.703226	11511.631083
481.072653	11609.449633
481.442022	11842.111486
481.811333	12029.478571
482.180584	11840.294150
482.549777	11555.300079
482.918912	11381.975127
483.287988	11400.148487
483.657005	11413.792370
484.025964	11097.099523
484.394864	11229.724719
484.763706	11197.725995
485.132489	10960.660694
485.501213	10922.320199
485.869879	10998.456745
486.238487	10842.468322
486.607036	10950.747265
486.975527	10727.832483
487.343959	10919.751731
487.712333	10966.200922
488.080648	10890.432380
488.448905	10939.349217
488.817104	10881.277645
489.185244	11147.783284
489.553326	11302.705503
489.921350	11835.268119
490.289315	12885.743758
490.657222	13231.395512
491.025070	13138.570226
491.392861	13010.252696
491.760593	12638.175213
492.128267	12297.456227
492.495883	11962.136318
492.863440	11624.580656
493.230939	11293.964143
493.598380	11222.949408
493.965763	11095.814029
494.333088	10998.933134
494.700354	10918.186453
495.067563	10974.294495
495.434713	10809.516820
495.801805	10936.422827
496.168839	10858.214366
496.535815	10796.606425
496.902733	10796.422423
497.269593	10733.105530
497.636395	10828.176651
498.003139	10819.029477
498.369825	10690.338902
498.736453	10838.294247
499.103023	10766.601477
499.469535	10800.014245
499.835989	10793.838831
500.202385	10754.739642
500.568723	10603.835222
500.935003	10827.546507
501.301226	10636.365788
501.667390	10891.143183
502.033497	10990.380817
502.399546	10851.877636
502.765537	10753.446586
503.131470	10825.557771
503.497345	11006.764567
503.863163	10608.924267
504.228923	10925.160889
504.594625	10985.324540
504.960269	10738.285316
505.325856	10953.507297
505.691385	10746.336039
506.056856	10902.354709
506.422270	10928.084758
506.787625	10822.979221
507.152924	10934.923083
507.518164	10917.445403
507.883347	10835.932466
508.248472	10763.392783
508.613540	10987.459468
508.978550	10870.403876
509.343503	10845.051913
509.708398	10969.936417
510.073236	11077.063457
510.438016	11081.663510
510.802738	11036.585513
511.167403	11084.884808
511.532010	10984.263377
511.896561	11218.117463
512.261053	11282.671958
512.625488	11151.879222
512.989866	11139.477983
513.354186	11124.420057
513.718449	11028.776765
514.082655	11225.354039
514.446803	11114.257090
514.810894	11237.858621
515.174927	11099.357960
515.538904	11127.759821
515.902822	11287.544233
516.266684	11168.157107
516.630488	11105.467839
516.994235	11165.702065
517.357925	11224.156765
517.721558	11309.627008
518.085133	11324.763072
518.448651	11338.195227
518.812112	11219.037473
519.175516	11232.953578
519.538863	11356.978566
519.902152	11270.815164
520.265385	11439.504775
520.628560	11336.811430
520.991678	11330.419247
521.354739	11382.063347
521.717743	11327.868423
522.080690	11300.799947
522.443580	11438.907398
522.806413	11390.668597
523.169189	11420.534913
523.531908	11479.062709
523.894569	11298.980091
524.257174	11301.200719
524.619722	11420.461816
524.982213	11367.355781
525.344647	11412.660631
525.707025	11372.412058
526.069345	11464.453445
526.431608	11378.849612
526.793815	11488.063689
527.155964	11277.514858
527.518057	11333.370842
527.880093	11282.152719
528.242072	11345.121772
528.603995	11263.855851
528.965860	11176.255721
529.327669	11229.969215
529.689421	11174.493838
530.051117	11147.299333
530.412755	11249.339849
530.774337	11136.904474
531.135862	11120.556012
531.497331	11146.870835
531.858743	11002.514874
532.220098	11163.725933
532.581396	11032.537466
532.942638	11021.895590
533.303824	10980.676596
533.664953	11001.100831
534.026025	10916.134703
534.387040	11003.437405
534.747999	11010.003508
535.108902	11067.018958
535.469748	10827.463328
535.830537	10930.965778
536.191270	10911.789228
536.551947	10934.940728
536.912567	10935.359143
537.273131	10863.008503
537.633638	10833.961375
537.994089	10826.639099
538.354483	10776.734196
538.714821	10919.998748
539.075103	10931.106930
539.435328	10892.247196
539.795497	10716.557943
540.155609	10882.759744
540.515665	10965.946344
540.875665	10702.785511
541.235609	10770.253793
541.595496	10768.287743
541.955328	10918.128479
542.315102	10803.777466
542.674821	10753.648232
543.034483	10754.013716
543.394090	10756.937585
543.753640	10684.259270
544.113134	10910.087839
544.472571	10760.403378
544.831953	10904.663558
545.191278	10714.218847
545.550548	10748.349980
545.909761	10877.915195
546.268918	10853.498367
546.628019	10935.074318
546.987064	10799.805037
547.346053	10714.906965
547.704986	10821.698768
548.063863	10812.813734
548.422684	10800.770418
548.781449	10712.038548
549.140158	10814.492439
549.498811	10698.256034
549.857408	10553.771523
550.215949	10781.329208
550.574434	10635.105500
550.932864	10734.673329
551.291237	10791.318254
551.649555	10737.342620
552.007817	10749.665721
552.366022	10710.654752
552.724173	10700.398524
553.082267	10688.773623
553.440305	10826.981897
553.798288	10630.084510
554.156215	10775.655389
554.514086	10760.100909
554.871902	10603.142064
555.229661	10642.551284
555.587365	10623.485640
555.945014	10515.047900
556.302606	10645.452468
556.660143	10538.537157
557.017625	10683.430000
557.375050	10587.423746
557.732421	10720.608510
558.089735	10638.737651
558.446994	10635.624738
558.804197	10667.439460
559.161345	10672.226036
559.518437	10518.667449
559.875474	10611.810328
560.232455	10641.538012
560.589381	10589.450290
560.946251	10587.532131
561.303065	10695.052381
561.659825	10628.708275
562.016528	10559.183202
562.373177	10436.826837
562.729770	10558.573223
563.086307	10464.661567
563.442789	10564.635210
563.799216	10435.652248
564.155587	10487.855916
564.511904	10449.212952
564.868164	10439.304564
565.224370	10451.773858
565.580520	10373.661179
565.936615	10381.290965
566.292654	10251.133414
566.648638	10376.973217
567.004567	10333.190796
567.360441	10327.113685
567.716260	10233.769160
568.072023	10321.896091
568.427732	10280.046952
568.783385	10186.654536
569.138982	10250.876315
569.494525	10270.698132
569.850013	10150.149020
570.205445	10228.654909
570.560823	10131.451381
570.916145	10045.562722
571.271412	10113.583011
571.626625	10063.773890
571.981782	10036.876814
572.336884	10010.385550
572.691931	10015.953505
573.046923	9962.280340
573.401860	9922.820708
573.756743	9858.208239
574.111570	9899.099559
574.466342	9884.099605
574.821059	9914.011292
575.175722	9805.603799
575.530330	9814.945057
575.884882	9804.461978
576.239380	9726.344257
576.593823	9716.198935
576.948211	9722.616324
577.302544	9611.123645
577.656823	9620.585891
578.011047	9623.320717
578.365216	9600.544784
578.719330	9527.364874
579.073389	9534.009115
579.427394	9482.556578
579.781344	9457.507085
580.135239	9409.106967
580.489080	9422.133308
580.842866	9317.305034
581.196597	9327.107558
581.550273	9369.566676
581.903895	9335.985030
582.257463	9395.687415
582.610975	9276.945557
582.964434	9308.891349
583.317837	9229.783042
583.671186	9207.677582
584.024481	9201.746665
584.377721	9121.272205
584.730906	9095.106096
585.084037	9132.609760
585.437113	9069.859998
585.790135	9086.896577
586.143103	8979.194846
586.496016	8961.271023
586.848874	9015.012244
587.201679	9007.079988
587.554428	8891.317452
587.907124	8937.791849
588.259765	8906.236747
588.612352	8912.334022
588.964884	8785.647306
589.317362	8805.653125
589.669786	8802.457033
590.022155	8850.789096
590.374470	8864.924491
590.726731	8809.469278
591.078937	8654.199219
591.431090	8772.517621
591.783188	8642.841500
592.135232	8637.235737
592.487222	8632.071074
592.839157	8692.630456
593.191038	8622.235783
593.542866	8563.491218
593.894639	8470.078637
594.246358	8520.364146
594.598022	8539.732259
594.949633	8435.980272
595.301190	8411.959174
595.652692	8439.042773
596.004141	8549.292808
596.355535	8327.497162
596.706876	8301.331053
597.058162	8239.224038
597.409395	8319.118764
597.760573	8384.613435
598.111698	8290.573231
598.462768	8271.742000
598.813785	8240.259995
599.164748	8210.050880
599.515657	8201.637194
599.866511	8114.906663
600.217312	8236.862257
600.568060	8092.516378
600.918753	8193.974641
601.269392	8167.274169
601.619978	8083.696880
601.970510	8145.461097
602.320988	8138.080847
602.671412	8195.585289
603.021783	8135.192266
603.372100	8106.424922
603.722363	8109.585725
604.072572	8079.560613
604.422728	8088.972447
604.772830	8026.003394
605.122878	8032.075464
605.472872	8023.956686
605.822813	8053.702014
606.172701	7996.857963
606.522534	8079.164882
606.872314	8074.955519
607.222041	8041.847741
607.571714	8101.950898
607.921333	8056.920791
608.270899	8065.896565
608.620411	8156.488621
608.969870	8059.534629
609.319276	8056.497334
609.668627	8068.782626
610.017926	8110.379707
610.367171	8154.061305
610.716362	8134.103377
611.065500	8118.352292
611.414585	8146.250037
611.763616	8137.780899
612.112594	8112.244934
612.461518	8127.156667
612.810389	8194.614867
613.159207	8132.021380
613.507971	8076.969460
613.856682	8200.757513
614.205340	8153.529463
614.553945	8238.757731
614.902496	8127.128941
615.250994	8190.655041
615.599439	8168.415991
615.947830	8183.746139
616.296169	8153.998291
616.644454	8167.785846
616.992686	8162.003643
617.340864	8218.522539
617.688990	8121.858414
618.037063	8219.679484
618.385082	8164.761154
618.733048	8251.514371
619.080961	8190.234104
619.428821	8208.926703
619.776628	8213.514153
620.124382	8163.515989
620.472083	8148.440418
620.819731	8172.516969
621.167326	8069.710198
621.514868	8081.244358
621.862357	7964.324877
622.209793	7983.763566
622.557176	7917.890809
622.904506	7886.338227
623.251783	7819.830284
623.599007	7778.137422
623.946179	7781.628421
624.293297	7742.577122
624.640363	7653.802403
624.987376	7634.290617
625.334336	7587.453257
625.681243	7532.487036
626.028097	7521.414141
626.374899	7500.115266
626.721647	7494.683423
627.068343	7420.986795
627.414987	7399.471150
627.761577	7350.929880
628.108115	7389.068729
628.454600	7285.231043
628.801032	7327.972465
629.147412	7297.702857
629.493739	7281.747605
629.840014	7224.049079
630.186236	7275.050432
630.532405	7158.826630
630.878521	7209.404527
631.224585	7172.737694
631.570597	7092.172494
631.916556	7127.226157
632.262462	7122.721887
632.608316	7077.522901
632.954117	7058.943729
633.299866	7045.088117
633.645562	7039.689042
633.991206	6958.581917
634.336797	6905.957312
634.682336	6860.201279
635.027823	6826.647359
635.373257	6821.598644
635.718639	6752.381081
636.063968	6763.723677
636.409245	6662.131824
636.754470	6657.090670
637.099642	6620.159177
637.444762	6560.502163
637.789829	6571.438946
638.134845	6512.457446
638.479808	6497.170147
638.824719	6503.368246
639.169577	6428.479385
639.514383	6449.417817
639.859137	6374.758329
640.203839	6385.291820
640.548489	6374.821343
