Dividing Wavelength (nm)	Counts (n)	Blue Motor Position (mm): 15.000000	Red Motor Position (mm): 0.000000	
326.493990	2135.273973
326.888308	2135.273973
327.282561	2135.273973
327.676750	2103.479416
328.070874	2102.070413
328.464933	2103.726432
328.858929	2111.656167
329.252859	2120.090018
329.646726	2131.770371
330.040528	2145.988945
330.434265	2164.079126
330.827938	2176.198060
331.221547	2196.607171
331.615091	2215.645089
332.008571	2235.540002
332.401986	2253.426016
332.795338	2274.810591
333.188625	2293.871193
333.581847	2312.619245
333.975006	2330.911071
334.368100	2352.083918
334.761129	2367.383819
335.154095	2382.323279
335.546996	2402.535785
335.939833	2423.985895
336.332606	2437.130703
336.725315	2451.492951
337.117960	2455.866152
337.510540	2468.839561
337.903056	2476.620582
338.295508	2485.142653
338.687896	2493.538694
339.080220	2501.208810
339.472480	2509.204080
339.864676	2513.569719
340.256807	2517.169103
340.648875	2519.354443
341.040879	2522.205216
341.432818	2522.943745
341.824694	2524.962727
342.216506	2526.192768
342.608253	2523.286543
342.999937	2523.140350
343.391557	2527.868952
343.783113	2528.398273
344.174605	2525.728982
344.566033	2522.447191
344.957397	2520.753363
345.348697	2519.682118
345.739934	2518.293280
346.131106	2515.182888
346.522215	2514.358660
346.913260	2509.544358
347.304241	2511.873371
347.695159	2508.636950
348.086012	2506.612927
348.476802	2504.699809
348.867528	2504.011692
349.258191	2501.055055
349.648789	2501.279386
350.039324	2502.461537
350.429796	2499.209993
350.820203	2493.268993
351.210548	2494.851915
351.600828	2495.731596
351.991045	2494.052892
352.381198	2493.581544
352.771288	2493.669764
353.161314	2493.458036
353.551276	2493.553818
353.941175	2493.720176
354.331010	2491.857470
354.720782	2493.268993
355.110490	2492.880824
355.500135	2494.441061
355.889717	2494.375526
356.279235	2492.981647
356.668689	2494.516678
357.058080	2493.188334
357.447408	2494.173880
357.836672	2490.952583
358.225873	2491.048364
358.615010	2490.987871
359.004084	2494.796462
359.393095	2497.070023
359.782043	2497.657317
360.170927	2498.753768
360.559748	2497.798469
360.948505	2500.896258
361.337199	2497.614467
361.725830	2501.062617
362.114398	2500.354334
362.502903	2500.195538
362.891344	2499.457009
363.279722	2503.096722
363.668037	2498.912564
364.056289	2502.758965
364.444478	2501.891886
364.832603	2501.521362
365.220665	2503.416835
365.608665	2500.833244
365.996601	2503.500014
366.384474	2503.351300
366.772284	2506.393637
367.160031	2502.085971
367.547715	2506.519666
367.935336	2504.941784
368.322893	2505.423215
368.710388	2509.894718
369.097820	2510.708864
369.485189	2506.101250
369.872495	2506.426404
370.259738	2506.433966
370.646918	2507.180057
371.034035	2509.239368
371.421090	2509.630058
371.808081	2509.118380
372.195010	2509.060407
372.581875	2509.168792
372.968678	2507.681652
373.355418	2507.941271
373.742096	2509.125942
374.128710	2510.217352
374.515262	2510.729029
374.901751	2511.956550
375.288177	2508.745335
375.674540	2509.776251
376.060841	2507.815242
376.447079	2509.642660
376.833254	2511.573422
377.219367	2505.486229
377.605417	2509.320027
377.991404	2508.168123
378.377329	2507.923627
378.763191	2506.985972
379.148991	2514.678773
379.534727	2511.371776
379.920402	2514.441839
380.306013	2514.782117
380.691563	2514.671211
381.077049	2516.208763
381.462474	2513.852024
381.847835	2515.944103
382.233134	2513.163906
382.618371	2513.252127
383.003545	2514.522497
383.388657	2514.918228
383.773706	2513.751201
384.158693	2512.753052
384.543618	2515.392096
384.928480	2514.633403
385.313280	2517.726151
385.698017	2515.505522
386.082692	2517.395955
386.467305	2514.540141
386.851856	2516.939731
387.236344	2518.066428
387.620770	2518.951151
388.005133	2515.530728
388.389435	2516.876716
388.773674	2515.618948
389.157851	2516.244051
389.541965	2516.944772
389.926018	2519.248579
390.310008	2516.380163
390.693936	2519.528363
391.077802	2518.192457
391.461606	2520.702952
391.845348	2520.092972
392.229027	2522.149763
392.612645	2518.973836
392.996200	2519.377128
393.379694	2518.479803
393.763125	2522.490041
394.146494	2519.127591
394.529801	2521.287726
394.913047	2519.674557
395.296230	2522.595905
395.679351	2520.239166
396.062410	2518.152128
396.445408	2521.557427
396.828343	2522.905936
397.211217	2519.104906
397.594028	2520.357633
397.976778	2518.144566
398.359466	2521.479290
398.742092	2517.668177
399.124656	2523.911646
399.507158	2521.199506
399.889598	2523.548683
400.271977	2522.694208
400.654294	2523.858714
401.036549	2522.386697
401.418742	2522.537932
401.800874	2523.515916
402.182944	2523.019362
402.564952	2524.501461
402.946898	2522.633714
403.328783	2520.594567
403.710606	2525.562624
404.092367	2524.635052
404.474067	2525.905423
404.855705	2526.621267
405.237282	2523.878879
405.618797	2522.704290
406.000250	2526.832995
406.381642	2525.252593
406.762972	2525.950793
407.144240	2527.753006
407.525447	2527.750485
407.906593	2527.274096
408.287677	2528.025228
408.668700	2528.252080
409.049661	2528.136133
409.430560	2526.790145
409.811399	2524.998015
410.192176	2526.041534
410.572891	2528.660413
410.953545	2523.473066
411.334138	2529.661082
411.714669	2528.274765
412.095139	2527.299302
412.475547	2527.120341
412.855894	2531.922040
413.236180	2528.335259
413.616405	2530.659231
413.996568	2529.252749
414.376670	2528.940197
414.756711	2528.010104
415.136691	2528.380629
415.516609	2529.618233
415.896466	2529.784591
416.276262	2527.949611
416.655997	2527.190917
417.035670	2524.940042
417.415283	2526.722090
417.794834	2526.984230
418.174324	2529.935825
418.553753	2531.085208
418.933121	2530.513037
419.312428	2532.748789
419.691674	2530.896165
420.070859	2530.762574
420.449983	2531.465815
420.829045	2531.884231
421.208047	2532.456402
421.586988	2530.389529
421.965867	2529.242667
422.344686	2529.033459
422.723444	2533.688964
423.102141	2533.046217
423.480777	2533.043697
423.859352	2532.935312
424.237866	2533.956145
424.616319	2532.421114
424.994712	2534.089736
425.373044	2532.237112
425.751314	2533.706608
426.129524	2532.670651
426.507673	2531.859025
426.885762	2533.268028
427.263789	2536.063348
427.641756	2532.726104
428.019662	2534.770292
428.397508	2536.035621
428.775292	2533.903213
429.153016	2533.487318
429.530679	2534.787936
429.908282	2531.760723
430.285824	2534.697195
430.663305	2533.598223
431.040726	2532.884900
431.418086	2531.362472
431.795385	2532.945394
432.172624	2533.545291
432.549802	2536.731301
432.926920	2536.030580
433.303977	2537.938657
433.680974	2535.604603
434.057910	2535.317257
434.434786	2534.795498
434.811601	2535.776002
435.188355	2534.561084
435.565050	2536.597710
435.941683	2533.562935
436.318257	2533.855322
436.694770	2529.860208
437.071222	2533.913296
437.447614	2532.673172
437.823946	2534.079654
438.200218	2537.101825
438.576429	2536.774150
438.952580	2537.626105
439.328670	2537.479912
439.704700	2535.465971
440.080670	2536.837165
440.456580	2536.325488
440.832429	2537.928575
441.208218	2537.484953
441.583947	2540.754141
441.959616	2537.653832
442.335224	2539.085519
442.710773	2535.778523
443.086261	2540.544933
443.461689	2536.471681
443.837057	2536.242309
444.212365	2537.096784
444.587612	2539.738349
444.962800	2537.416898
445.337927	2539.478729
445.712995	2539.367824
446.088002	2539.934954
446.462949	2536.479243
446.837837	2540.708771
447.212664	2539.665252
447.587431	2540.489481
447.962139	2541.706919
448.336786	2543.027702
448.711374	2536.965714
449.085901	2539.836651
449.460369	2538.213400
449.834776	2537.472350
450.209124	2540.078627
450.583412	2540.950746
450.957640	2541.331353
451.331808	2539.125849
451.705917	2539.231713
452.079965	2540.716333
452.453954	2538.997299
452.827883	2540.645757
453.201752	2539.808925
453.575562	2540.612989
453.949311	2539.650129
454.323001	2541.293545
454.696632	2540.489481
455.070202	2543.393185
455.443713	2539.241795
455.817164	2537.648791
456.190556	2534.682072
456.563888	2539.713143
456.937160	2533.144520
457.310373	2542.808412
457.683526	2542.521066
458.056619	2542.231199
458.429653	2541.442259
458.802628	2541.210366
459.175542	2541.661549
459.548398	2543.534338
459.921194	2542.828576
460.293930	2541.981662
460.666607	2542.478216
461.039224	2541.565767
461.411782	2542.011909
461.784280	2543.022661
462.156719	2542.165664
462.529099	2541.817825
462.901419	2545.376879
463.273680	2543.345294
463.645882	2541.880839
464.018024	2542.110212
464.390106	2542.233720
464.762130	2543.824204
465.134094	2542.584080
465.505999	2544.592980
465.877845	2542.793288
466.249631	2543.612476
466.621358	2545.429812
466.993026	2547.995759
467.364634	2552.139587
467.736184	2546.967363
468.107674	2542.742877
468.479105	2543.945192
468.850477	2545.422250
469.221790	2545.472661
469.593043	2545.429812
469.964238	2545.248330
470.335373	2544.799667
470.706449	2542.604245
471.077467	2547.410985
471.448425	2546.795964
471.819324	2545.271015
472.190164	2547.476520
472.560945	2548.300749
472.931667	2546.405275
473.302330	2544.356046
473.672934	2549.195553
474.043479	2545.422250
474.413965	2545.117260
474.784393	2541.346477
475.154761	2544.643392
475.525070	2542.644574
475.895321	2541.462423
476.265513	2541.054090
476.635645	2546.445604
477.005719	2546.601880
477.375734	2547.630275
477.745691	2546.858979
478.115588	2549.515667
478.485427	2547.751263
478.855207	2547.287477
479.224928	2545.762528
479.594591	2546.009544
479.964194	2545.187836
480.333739	2546.765717
480.703226	2547.105995
481.072653	2548.656150
481.442022	2549.608928
481.811333	2549.929041
482.180584	2549.966850
482.549777	2549.210677
482.918912	2548.338557
483.287988	2549.455173
483.657005	2549.742519
484.025964	2549.487940
484.394864	2550.274360
484.763706	2548.514998
485.132489	2548.875440
485.501213	2551.970709
485.869879	2552.442057
486.238487	2547.940306
486.607036	2549.321582
486.975527	2548.096582
487.343959	2548.149514
487.712333	2550.261758
488.080648	2547.282436
488.448905	2549.180430
488.817104	2551.068342
489.185244	2548.893084
489.553326	2551.771583
489.921350	2552.119423
490.289315	2550.763352
490.657222	2553.364588
491.025070	2551.280071
491.392861	2550.130687
491.760593	2550.271840
492.128267	2551.963147
492.495883	2549.117416
492.863440	2553.291491
493.230939	2553.846018
493.598380	2553.110009
493.965763	2546.231355
494.333088	2550.478527
494.700354	2545.754966
495.067563	2548.620862
495.434713	2547.297559
495.801805	2552.973898
496.168839	2550.710420
496.535815	2550.458363
496.902733	2551.428785
497.269593	2553.523384
497.636395	2550.284443
498.003139	2552.696635
498.369825	2552.729402
498.736453	2550.844011
499.103023	2553.215874
499.469535	2550.075235
499.835989	2553.205791
500.202385	2553.694783
500.568723	2552.381563
500.935003	2549.412323
501.301226	2548.310831
501.667390	2552.124464
502.033497	2550.216387
502.399546	2552.658826
502.765537	2554.488765
503.131470	2553.077242
503.497345	2554.241748
503.863163	2556.353992
504.228923	2553.210832
504.594625	2553.470452
504.960269	2554.627397
505.325856	2553.656975
505.691385	2554.592109
506.056856	2554.934907
506.422270	2554.692932
506.787625	2554.569423
507.152924	2554.967675
507.518164	2555.086142
507.883347	2552.545400
508.248472	2558.803993
508.613540	2552.701676
508.978550	2556.795093
509.343503	2556.046482
509.708398	2554.569423
510.073236	2557.626883
510.438016	2556.406924
510.802738	2557.321893
511.167403	2556.371636
511.532010	2557.957079
511.896561	2558.995557
512.261053	2561.110321
512.625488	2557.765515
512.989866	2555.686039
513.354186	2556.916081
513.718449	2555.943138
514.082655	2557.452963
514.446803	2560.212995
514.810894	2559.003118
515.174927	2563.807338
515.538904	2559.237532
515.902822	2562.133675
516.266684	2560.407080
516.630488	2563.038562
516.994235	2561.309446
517.357925	2562.912533
517.721558	2564.190466
518.085133	2564.802966
518.448651	2562.814231
518.812112	2561.460681
519.175516	2563.411607
519.538863	2564.321536
519.902152	2567.323543
520.265385	2564.661813
520.628560	2566.164077
520.991678	2564.760116
521.354739	2567.358831
521.717743	2566.131310
522.080690	2565.385219
522.443580	2571.134655
522.806413	2566.769016
523.169189	2567.068964
523.531908	2569.135837
523.894569	2570.000395
524.257174	2567.910837
524.619722	2568.634243
524.982213	2571.994172
525.344647	2568.427555
525.707025	2571.132134
526.069345	2571.900910
526.431608	2572.523493
526.793815	2570.088616
527.155964	2571.537947
527.518057	2572.500808
527.880093	2572.909141
528.242072	2572.495767
528.603995	2573.572053
528.965860	2575.613720
529.327669	2576.246385
529.689421	2573.526682
530.051117	2575.086920
530.412755	2578.353587
530.774337	2575.432239
531.135862	2575.328895
531.497331	2576.480799
531.858743	2572.828483
532.220098	2577.294945
532.581396	2572.679769
532.942638	2578.290573
533.303824	2578.693865
533.664953	2582.434401
534.026025	2582.192426
534.387040	2583.987077
534.747999	2584.523960
535.108902	2584.639906
535.469748	2586.870617
535.830537	2586.558065
536.191270	2588.012438
536.551947	2586.951275
536.912567	2588.735844
537.273131	2589.897830
537.633638	2590.885896
537.994089	2592.002511
538.354483	2592.151225
538.714821	2594.439909
539.075103	2594.455033
539.435328	2599.670106
539.795497	2599.070209
540.155609	2600.489294
540.515665	2603.922320
540.875665	2602.790581
541.235609	2608.240068
541.595496	2609.512959
541.955328	2610.657301
542.315102	2612.905656
542.674821	2615.222066
543.034483	2618.302211
543.394090	2617.669546
543.753640	2619.219701
544.113134	2622.630042
544.472571	2622.176338
544.831953	2627.620784
545.191278	2628.437451
545.550548	2630.688326
545.909761	2634.864922
546.268918	2637.572022
546.628019	2643.253402
546.987064	2644.233906
547.346053	2644.375059
547.704986	2651.538538
548.063863	2655.568941
548.422684	2657.834939
548.781449	2660.146308
549.140158	2663.869201
549.498811	2666.034376
549.857408	2667.816424
550.215949	2673.926302
550.574434	2674.944616
550.932864	2682.682787
551.291237	2687.912984
551.649555	2697.622246
552.007817	2701.274562
552.366022	2703.666590
552.724173	2707.878474
553.082267	2710.764534
553.440305	2723.501009
553.798288	2722.752398
554.156215	2734.725138
554.514086	2739.330232
554.871902	2741.286200
555.229661	2747.194432
555.587365	2756.535691
555.945014	2761.717997
556.302606	2772.438010
556.660143	2777.890018
557.017625	2788.909981
557.375050	2793.890641
557.732421	2807.708443
558.089735	2811.743887
558.446994	2821.077583
558.804197	2832.105107
559.161345	2840.198680
559.518437	2841.726149
559.875474	2856.942872
560.232455	2867.070550
560.589381	2873.162785
560.946251	2890.332955
561.303065	2895.464849
561.659825	2909.847261
562.016528	2918.021492
562.373177	2917.093920
562.729770	2939.267435
563.086307	2946.435956
563.442789	2962.257617
563.799216	2974.875625
564.155587	2987.102944
564.511904	2995.151146
564.868164	3007.653208
565.224370	3019.416740
565.580520	3038.686551
565.936615	3042.686706
566.292654	3054.258675
566.648638	3073.135276
567.004567	3089.403079
567.360441	3105.481839
567.716260	3116.083386
568.072023	3133.815644
568.427732	3151.678973
568.783385	3155.094355
569.138982	3181.903211
569.494525	3195.990715
569.850013	3204.714432
570.205445	3236.151067
570.560823	3239.904207
570.916145	3255.398193
571.271412	3280.404837
571.626625	3293.257258
571.981782	3308.519352
572.336884	3329.152794
572.691931	3339.587983
573.046923	3367.979761
573.401860	3379.196328
573.756743	3392.971281
574.111570	3422.683842
574.466342	3433.134154
574.821059	3457.157773
575.175722	3466.080615
575.530330	3494.374091
575.884882	3511.718181
576.239380	3526.887013
576.593823	3535.656100
576.948211	3567.075091
577.302544	3558.973957
577.656823	3598.884772
578.011047	3615.697020
578.365216	3641.134682
578.719330	3650.077689
579.073389	3681.269829
579.427394	3685.176723
579.781344	3709.112121
580.135239	3724.827918
580.489080	3745.841968
580.842866	3758.286057
581.196597	3788.820325
581.550273	3817.098678
581.903895	3841.452492
582.257463	3871.724621
582.610975	3885.728946
582.964434	3909.654262
583.317837	3926.484155
583.671186	3939.334056
584.024481	3970.604333
584.377721	3978.559274
584.730906	4002.792100
585.084037	4034.374929
585.437113	4034.085063
585.790135	4078.268256
586.143103	4076.871856
586.496016	4091.874330
586.848874	4131.762460
587.201679	4149.935819
587.554428	4155.536541
587.907124	4191.117005
588.259765	4206.298440
588.612352	4250.844596
588.964884	4233.177872
589.317362	4268.677678
589.669786	4295.605001
590.022155	4329.491637
590.374470	4361.495402
590.726731	4364.908263
591.078937	4354.369731
591.431090	4416.592693
591.783188	4399.377153
592.135232	4433.311680
592.487222	4443.792239
592.839157	4496.089169
593.191038	4496.978932
593.542866	4504.361702
593.894639	4504.402032
594.246358	4542.772774
594.598022	4577.702929
594.949633	4570.272268
595.301190	4583.298610
595.652692	4617.107108
596.004141	4689.828273
596.355535	4627.320486
596.706876	4652.019619
597.058162	4657.189322
597.409395	4705.569276
597.760573	4758.836628
598.111698	4743.564452
598.462768	4770.854739
598.813785	4777.723311
599.164748	4800.249707
599.515657	4811.496521
599.866511	4821.478006
600.217312	4880.429259
600.568060	4851.941698
600.918753	4919.412501
601.269392	4931.286939
601.619978	4920.549282
601.970510	4973.093228
602.320988	4992.685673
602.671412	5051.384868
603.021783	5040.795924
603.372100	5059.007093
603.722363	5089.906845
604.072572	5100.833546
604.422728	5131.816478
604.772830	5123.296928
605.122878	5150.481350
605.472872	5161.012320
605.822813	5205.072005
606.172701	5206.975040
606.522534	5268.719092
606.872314	5289.564264
607.222041	5306.318538
607.571714	5357.796281
607.921333	5361.383062
608.270899	5390.077310
608.620411	5456.055931
608.969870	5430.978711
609.319276	5456.426456
609.668627	5488.992310
610.017926	5532.563002
610.367171	5583.191311
610.716362	5595.030460
611.065500	5615.008553
611.414585	5657.407177
611.763616	5669.848745
612.112594	5684.500859
612.461518	5720.845057
612.810389	5775.042503
613.159207	5765.665956
613.507971	5755.634060
613.856682	5857.793043
614.205340	5847.408266
614.553945	5917.036683
614.902496	5885.408484
615.250994	5938.811947
615.599439	5945.196568
615.947830	5980.618236
616.296169	5979.869624
616.644454	6010.776939
616.992686	6031.123036
617.340864	6087.538588
617.688990	6051.612805
618.037063	6122.430935
618.385082	6113.198061
618.733048	6191.608168
619.080961	6168.915414
619.428821	6201.352719
619.776628	6233.749694
620.124382	6222.790225
620.472083	6237.172637
620.819731	6271.505416
621.167326	6228.738787
621.514868	6253.778198
621.862357	6198.612852
622.209793	6236.350929
622.557176	6212.274378
622.904506	6214.424431
623.251783	6184.114493
623.599007	6180.825140
623.946179	6202.502102
624.293297	6197.176123
624.640363	6156.627602
624.987376	6162.039280
625.334336	6146.762064
625.681243	6131.547861
626.028097	6141.335262
626.374899	6140.969778
626.721647	6159.680020
627.068343	6119.088650
627.414987	6116.197548
627.761577	6098.833293
628.108115	6139.033975
628.454600	6084.791159
628.801032	6138.930631
629.147412	6111.738647
629.493739	6126.925123
629.840014	6089.124031
630.186236	6143.210571
630.532405	6071.850518
630.878521	6123.419001
631.224585	6107.728409
631.570597	6054.889555
631.916556	6100.537203
632.262462	6108.028358
632.608316	6096.385813
632.954117	6090.986738
633.299866	6090.490184
633.645562	6102.901505
633.991206	6051.012908
634.336797	6017.491756
634.682336	5997.385113
635.027823	5984.353731
635.373257	5991.834803
635.718639	5952.859122
636.063968	5965.963602
636.409245	5897.232510
636.754470	5911.284726
637.099642	5887.664400
637.444762	5846.589078
637.789829	5870.685794
638.134845	5833.840000
638.479808	5835.402758
638.824719	5844.993553
639.169577	5798.473786
639.514383	5831.510987
639.859137	5775.788593
640.203839	5785.195386
640.548489	5784.671106
640.893086	5773.295743
641.237632	5759.858547
641.582125	5789.929030
641.926566	5772.733654
642.270955	5787.642867
642.615292	5794.463548
642.959576	5815.059182
643.303809	5811.555580
643.647990	5828.193908
643.992118	5820.969935
644.336195	5785.167660
