Dividing Wavelength (nm)	Counts (n)	Blue Motor Position (mm): 8.900000	Red Motor Position (mm): 0.000000	
326.493990	2141.013327
326.888308	2141.013327
327.282561	2141.013327
327.676750	2108.329006
328.070874	2106.299941
328.464933	2109.475868
328.858929	2115.028699
329.252859	2125.453805
329.646726	2137.928140
330.040528	2148.854841
330.434265	2164.873108
330.827938	2184.261385
331.221547	2201.295444
331.615091	2222.342262
332.008571	2238.993193
332.401986	2262.081677
332.795338	2280.607918
333.188625	2299.449230
333.581847	2319.684422
333.975006	2336.022801
334.368100	2354.788497
334.761129	2370.335415
335.154095	2388.770915
335.546996	2406.931671
335.939833	2422.425658
336.332606	2438.161619
336.725315	2447.381890
337.117960	2459.034517
337.510540	2467.100363
337.903056	2478.420274
338.295508	2484.724237
338.687896	2493.430310
339.080220	2503.731907
339.472480	2509.501508
339.864676	2514.772034
340.256807	2518.041223
340.648875	2519.286388
341.040879	2522.507685
341.432818	2524.725793
341.824694	2527.858870
342.216506	2526.200330
342.608253	2523.876358
342.999937	2529.653521
343.391557	2525.378622
343.783113	2525.882737
344.174605	2526.790145
344.566033	2523.969620
344.957397	2522.096831
345.348697	2519.367046
345.739934	2521.171779
346.131106	2515.654236
346.522215	2513.005110
346.913260	2512.662312
347.304241	2512.465707
347.695159	2509.012516
348.086012	2508.916734
348.476802	2507.764831
348.867528	2502.930364
349.258191	2501.435662
349.648789	2502.169150
350.039324	2500.684530
350.429796	2500.243429
350.820203	2499.104128
351.210548	2497.611947
351.600828	2498.194200
351.991045	2494.423417
352.381198	2496.197903
352.771288	2494.070536
353.161314	2493.876452
353.551276	2495.497183
353.941175	2494.819148
354.331010	2491.242449
354.720782	2493.989878
355.110490	2493.420227
355.500135	2492.003663
355.889717	2492.883344
356.279235	2491.958293
356.668689	2493.304281
357.058080	2490.977788
357.447408	2490.821513
357.836672	2490.072901
358.225873	2493.258910
358.615010	2494.930053
359.004084	2493.800834
359.393095	2496.202944
359.782043	2496.875938
360.170927	2496.951556
360.559748	2498.912564
360.948505	2497.364930
361.337199	2501.763337
361.725830	2500.813079
362.114398	2502.821979
362.502903	2501.659993
362.891344	2500.561022
363.279722	2501.788543
363.668037	2503.071516
364.056289	2502.635457
364.444478	2501.276866
364.832603	2501.672596
365.220665	2505.130828
365.608665	2506.048318
365.996601	2505.007319
366.384474	2506.013030
366.772284	2504.901455
367.160031	2505.266939
367.547715	2506.751559
367.935336	2505.140910
368.322893	2506.028153
368.710388	2504.969511
369.097820	2509.257012
369.485189	2505.579490
369.872495	2509.171312
370.259738	2504.525889
370.646918	2508.102588
371.034035	2506.242402
371.421090	2511.638957
371.808081	2508.553771
372.195010	2507.555623
372.581875	2507.840448
372.968678	2510.587877
373.355418	2510.729029
373.742096	2510.610562
374.128710	2508.979749
374.515262	2509.589728
374.901751	2510.797085
375.288177	2511.006293
375.674540	2509.725839
376.060841	2511.979235
376.447079	2508.838596
376.833254	2508.770541
377.219367	2505.047649
377.605417	2507.537979
377.991404	2504.762823
378.377329	2510.194667
378.763191	2508.273987
379.148991	2511.051663
379.534727	2512.440501
379.920402	2514.295645
380.306013	2513.249606
380.691563	2512.614421
381.077049	2513.390758
381.462474	2514.071314
381.847835	2514.293125
382.233134	2518.114319
382.618371	2514.204905
383.003545	2514.038547
383.388657	2513.852024
383.773706	2515.384535
384.158693	2512.485871
384.543618	2516.692714
384.928480	2515.303876
385.313280	2515.795389
385.698017	2517.290091
386.082692	2519.054495
386.467305	2516.120543
386.851856	2517.824453
387.236344	2515.142559
387.620770	2516.642303
388.005133	2518.613394
388.389435	2519.097344
388.773674	2517.895029
389.157851	2514.328413
389.541965	2516.112981
389.926018	2516.312107
390.310008	2518.832684
390.693936	2518.681449
391.077802	2516.158352
391.461606	2522.162366
391.845348	2519.268744
392.229027	2520.067767
392.612645	2520.062725
392.996200	2518.936027
393.379694	2517.884947
393.763125	2523.256296
394.146494	2520.745802
394.529801	2521.418796
394.913047	2521.895185
395.296230	2519.215812
395.679351	2520.360153
396.062410	2523.336955
396.445408	2524.037675
396.828343	2520.392921
397.211217	2518.512571
397.594028	2521.514578
397.976778	2520.662623
398.359466	2519.109947
398.742092	2517.136336
399.124656	2522.137160
399.507158	2524.098169
399.889598	2523.946934
400.271977	2526.220495
400.654294	2526.946421
401.036549	2524.330062
401.418742	2521.902747
401.800874	2524.498941
402.182944	2524.420803
402.564952	2522.013652
402.946898	2525.567665
403.328783	2525.653365
403.710606	2525.741585
404.092367	2523.556245
404.474067	2526.263345
404.855705	2526.084384
405.237282	2526.729651
405.618797	2524.836698
406.000250	2526.598581
406.381642	2525.973478
406.762972	2523.573889
407.144240	2530.374406
407.525447	2530.016484
407.906593	2526.497758
408.287677	2526.107069
408.668700	2526.066740
409.049661	2526.187727
409.430560	2526.102028
409.811399	2524.183869
410.192176	2528.196627
410.572891	2527.286699
410.953545	2528.723428
411.334138	2528.753675
411.714669	2526.321318
412.095139	2529.098994
412.475547	2526.979188
412.855894	2529.116638
413.236180	2529.257790
413.616405	2530.444982
413.996568	2529.842564
414.376670	2533.608306
414.756711	2530.795342
415.136691	2530.939015
415.516609	2528.400794
415.896466	2530.996988
416.276262	2532.045548
416.655997	2529.275434
417.035670	2526.437264
417.415283	2527.269055
417.794834	2525.169414
418.174324	2530.903727
418.553753	2530.021525
418.933121	2529.938346
419.312428	2531.352389
419.691674	2531.987575
420.070859	2532.894983
420.449983	2530.283665
420.829045	2531.838861
421.208047	2533.666279
421.586988	2529.270393
421.965867	2532.017822
422.344686	2532.398429
422.723444	2534.314067
423.102141	2532.647966
423.480777	2532.713501
423.859352	2532.842050
424.237866	2533.411701
424.616319	2533.661238
424.994712	2534.165353
425.373044	2532.365661
425.751314	2533.308357
426.129524	2533.963707
426.507673	2534.616537
426.885762	2533.497400
427.263789	2535.034952
427.641756	2530.225692
428.019662	2535.080323
428.397508	2533.978831
428.775292	2538.835982
429.153016	2535.501259
429.530679	2536.607792
429.908282	2533.210055
430.285824	2536.161650
430.663305	2533.348686
431.040726	2533.837678
431.418086	2534.929088
431.795385	2533.615868
432.172624	2534.924047
432.549802	2536.353214
432.926920	2534.596372
433.303977	2534.810621
433.680974	2534.825744
434.057910	2538.195756
434.434786	2534.036804
434.811601	2537.321116
435.188355	2534.392205
435.565050	2536.575025
435.941683	2534.031763
436.318257	2536.073430
436.694770	2535.002185
437.071222	2533.774664
437.447614	2532.128727
437.823946	2532.320291
438.200218	2539.466127
438.576429	2538.533513
438.952580	2538.339429
439.328670	2537.794984
439.704700	2536.227185
440.080670	2536.572504
440.456580	2536.075951
440.832429	2539.524100
441.208218	2539.695499
441.583947	2537.608461
441.959616	2537.263142
442.335224	2538.331867
442.710773	2536.983358
443.086261	2535.937319
443.461689	2539.771116
443.837057	2536.247350
444.212365	2535.143337
444.587612	2539.342618
444.962800	2539.405633
445.337927	2539.360262
445.712995	2540.905376
446.088002	2538.311702
446.462949	2540.837320
446.837837	2538.283976
447.212664	2538.498225
447.587431	2540.507125
447.962139	2538.228523
448.336786	2539.735828
448.711374	2538.795653
449.085901	2537.142155
449.460369	2538.959491
449.834776	2538.513348
450.209124	2540.058462
450.583412	2540.456713
450.957640	2540.444110
451.331808	2539.829090
451.705917	2538.470499
452.079965	2541.376724
452.453954	2538.576363
452.827883	2539.471168
453.201752	2541.238092
453.575562	2540.628112
453.949311	2540.978473
454.323001	2541.018802
454.696632	2540.242464
455.070202	2543.010058
455.443713	2541.220448
455.817164	2539.604758
456.190556	2537.217772
456.563888	2536.428831
456.937160	2535.501259
457.310373	2542.942002
457.683526	2538.291538
458.056619	2541.638864
458.429653	2540.648277
458.802628	2541.220448
459.175542	2539.909748
459.548398	2543.562064
459.921194	2540.030736
460.293930	2540.726415
460.666607	2539.907228
461.039224	2541.268339
461.411782	2542.815973
461.784280	2542.934440
462.156719	2542.667259
462.529099	2543.168854
462.901419	2541.263298
463.273680	2541.901004
463.645882	2542.616848
464.018024	2540.875129
464.390106	2541.729605
464.762130	2542.115253
465.134094	2540.549975
465.505999	2543.168854
465.877845	2541.510314
466.249631	2541.485109
466.621358	2540.741538
466.993026	2545.979297
467.364634	2546.982487
467.736184	2540.655839
468.107674	2542.032074
468.479105	2540.630633
468.850477	2543.756148
469.221790	2542.483257
469.593043	2544.393854
469.964238	2544.933258
470.335373	2541.903524
470.706449	2545.550799
471.077467	2540.481919
471.448425	2544.608103
471.819324	2544.600542
472.190164	2543.962836
472.560945	2540.761703
472.931667	2544.081303
473.302330	2542.044677
473.672934	2547.721016
474.043479	2547.007693
474.413965	2543.814122
474.784393	2538.525951
475.154761	2541.485109
475.525070	2539.826569
475.895321	2539.894625
476.265513	2538.563760
476.635645	2544.744215
477.005719	2545.702034
477.375734	2548.134391
477.745691	2544.222455
478.115588	2546.087682
478.485427	2544.184647
478.855207	2544.862682
479.224928	2544.966025
479.594591	2543.108360
479.964194	2545.770089
480.333739	2547.005172
480.703226	2541.689275
481.072653	2546.755635
481.442022	2542.453010
481.811333	2543.345294
482.180584	2545.558361
482.549777	2549.341747
482.918912	2542.516025
483.287988	2547.116078
483.657005	2545.006355
484.025964	2544.136756
484.394864	2546.067517
484.763706	2548.411654
485.132489	2546.896787
485.501213	2543.617517
485.869879	2542.231199
486.238487	2543.683052
486.607036	2545.412167
486.975527	2545.470141
487.343959	2545.875954
487.712333	2548.169679
488.080648	2543.559543
488.448905	2547.836963
488.817104	2547.070707
489.185244	2548.668753
489.553326	2546.876623
489.921350	2546.067517
490.289315	2547.388300
490.657222	2545.714637
491.025070	2545.694472
491.392861	2547.143804
491.760593	2546.579195
492.128267	2546.032229
492.495883	2549.331665
492.863440	2544.792106
493.230939	2547.569781
493.598380	2547.501726
493.965763	2544.461910
494.333088	2544.086344
494.700354	2545.399565
495.067563	2547.358053
495.434713	2542.092568
495.801805	2548.479710
496.168839	2548.373845
496.535815	2545.475182
496.902733	2547.970553
497.269593	2546.405275
497.636395	2548.250337
498.003139	2547.768907
498.369825	2547.945347
498.736453	2546.586756
499.103023	2546.720347
499.469535	2549.389638
499.835989	2547.655481
500.202385	2547.476520
500.568723	2547.058104
500.935003	2548.341078
501.301226	2548.520039
501.667390	2550.571788
502.033497	2548.411654
502.399546	2547.955430
502.765537	2550.289484
503.131470	2547.766386
503.497345	2549.661860
503.863163	2549.452652
504.228923	2546.279246
504.594625	2546.206149
504.960269	2548.197405
505.325856	2548.991387
505.691385	2548.910728
506.056856	2547.385779
506.422270	2547.665563
506.787625	2548.787220
507.152924	2548.661191
507.518164	2546.758156
507.883347	2548.091541
508.248472	2551.494320
508.613540	2548.477189
508.978550	2546.493495
509.343503	2546.952240
509.708398	2550.017262
510.073236	2547.426108
510.438016	2547.975594
510.802738	2549.538352
511.167403	2549.543393
511.532010	2547.544576
511.896561	2549.613969
512.261053	2551.680842
512.625488	2544.953422
512.989866	2547.552137
513.354186	2546.538865
513.718449	2542.125335
514.082655	2546.357384
514.446803	2548.484751
514.810894	2551.723692
515.174927	2549.261088
515.538904	2549.341747
515.902822	2547.501726
516.266684	2546.180943
516.630488	2548.278063
516.994235	2549.563558
517.357925	2551.398538
517.721558	2550.997766
518.085133	2550.521377
518.448651	2547.693290
518.812112	2550.450801
519.175516	2545.969215
519.538863	2549.485420
519.902152	2550.798640
520.265385	2547.663043
520.628560	2550.097920
520.991678	2546.871582
521.354739	2549.200595
521.717743	2550.975081
522.080690	2549.790410
522.443580	2548.146993
522.806413	2550.002138
523.169189	2551.897612
523.531908	2552.492468
523.894569	2549.999617
524.257174	2549.467776
524.619722	2552.295863
524.982213	2551.423743
525.344647	2549.074566
525.707025	2552.242931
526.069345	2551.474155
526.431608	2549.810574
526.793815	2550.004659
527.155964	2552.356357
527.518057	2550.614638
527.880093	2552.305945
528.242072	2551.847200
528.603995	2553.064639
528.965860	2550.753270
529.327669	2551.771583
529.689421	2548.832590
530.051117	2550.662529
530.412755	2551.801830
530.774337	2551.101110
531.135862	2552.991542
531.497331	2545.838145
531.858743	2549.596325
532.220098	2548.071376
532.581396	2548.136911
532.942638	2549.964329
533.303824	2551.670760
533.664953	2551.854762
534.026025	2550.934752
534.387040	2553.278888
534.747999	2550.067673
535.108902	2551.948023
535.469748	2553.891388
535.830537	2552.444577
536.191270	2553.656975
536.551947	2555.587737
536.912567	2550.213867
537.273131	2553.515822
537.633638	2554.602191
537.994089	2550.627241
538.354483	2552.416851
538.714821	2555.013045
539.075103	2553.425082
539.435328	2555.587737
539.795497	2553.160421
540.155609	2556.454815
540.515665	2555.013045
540.875665	2554.488765
541.235609	2555.275185
541.595496	2556.472459
541.955328	2555.418858
542.315102	2556.646379
542.674821	2555.287788
543.034483	2558.562017
543.394090	2554.919784
543.753640	2555.741492
544.113134	2556.626214
544.472571	2557.495813
544.831953	2555.494475
545.191278	2558.315001
545.550548	2559.003118
545.909761	2555.764177
546.268918	2559.061092
546.628019	2557.279044
546.987064	2555.350802
547.346053	2558.007490
547.704986	2559.456822
548.063863	2562.146278
548.422684	2558.430947
548.781449	2558.055381
549.140158	2556.283416
549.498811	2559.729044
549.857408	2557.495813
550.215949	2556.243087
550.574434	2553.263765
550.932864	2555.323076
551.291237	2558.826678
551.649555	2558.511606
552.007817	2558.909857
552.366022	2558.330124
552.724173	2559.227450
553.082267	2559.247614
553.440305	2560.885989
553.798288	2560.147460
554.156215	2558.844322
554.514086	2558.940104
554.871902	2559.807182
555.229661	2558.758622
555.587365	2558.103272
555.945014	2559.182079
556.302606	2557.946997
556.660143	2560.054199
557.017625	2560.230639
557.375050	2559.839950
557.732421	2561.344734
558.089735	2560.124775
558.446994	2558.070505
558.804197	2559.514795
559.161345	2557.445402
559.518437	2559.464384
559.875474	2560.707028
560.232455	2560.913716
560.589381	2561.793397
560.946251	2562.922615
561.303065	2559.686195
561.659825	2561.130485
562.016528	2560.830537
562.373177	2561.057388
562.729770	2558.887172
563.086307	2558.582182
563.442789	2559.751730
563.799216	2559.151832
564.155587	2557.357182
564.511904	2560.165104
564.868164	2563.008315
565.224370	2560.626370
565.580520	2558.748540
565.936615	2561.949673
566.292654	2556.011193
566.648638	2560.114693
567.004567	2559.759291
567.360441	2558.720814
567.716260	2557.420196
568.072023	2560.608726
568.427732	2554.534135
568.783385	2557.485731
569.138982	2555.318035
569.494525	2555.373488
569.850013	2554.226625
570.205445	2557.800803
570.560823	2559.197203
570.916145	2559.106462
571.271412	2561.853891
571.626625	2559.285423
571.981782	2557.301729
572.336884	2557.810885
572.691931	2557.316852
573.046923	2560.535629
573.401860	2558.773746
573.756743	2559.787018
574.111570	2556.946327
574.466342	2557.624363
574.821059	2555.302911
575.175722	2558.771225
575.530330	2559.285423
575.884882	2560.026473
576.239380	2557.647048
576.593823	2560.291133
576.948211	2556.880792
577.302544	2559.114024
577.656823	2557.354661
578.011047	2559.638304
578.365216	2560.263407
578.719330	2556.787531
579.073389	2559.106462
579.427394	2553.593960
579.781344	2554.045143
580.135239	2559.439178
580.489080	2553.543549
580.842866	2557.258879
581.196597	2560.921277
581.550273	2555.219732
581.903895	2554.544218
582.257463	2558.173848
582.610975	2559.431616
582.964434	2556.994218
583.317837	2555.827191
583.671186	2554.418189
584.024481	2556.328786
584.377721	2557.873900
584.730906	2554.241748
585.084037	2555.325597
585.437113	2554.607232
585.790135	2555.078580
586.143103	2557.074877
586.496016	2555.428940
586.848874	2551.769062
587.201679	2552.144628
587.554428	2551.126315
587.907124	2553.636810
588.259765	2551.393497
588.612352	2556.356512
588.964884	2554.791234
589.317362	2555.408776
589.669786	2556.336348
590.022155	2555.547407
590.374470	2556.038920
590.726731	2555.179403
591.078937	2555.680998
591.431090	2556.795093
591.783188	2556.938766
592.135232	2556.182593
592.487222	2555.159238
592.839157	2553.258723
593.191038	2554.599670
593.542866	2555.401214
593.894639	2557.493293
594.246358	2556.515309
594.598022	2557.894064
594.949633	2555.078580
595.301190	2556.825340
595.652692	2556.512788
596.004141	2553.651933
596.355535	2554.314845
596.706876	2555.557490
597.058162	2557.082439
597.409395	2554.629917
597.760573	2556.112017
598.111698	2554.952551
598.462768	2554.783672
598.813785	2555.560010
599.164748	2556.671585
599.515657	2552.310987
599.866511	2553.972047
600.217312	2555.711245
600.568060	2555.693601
600.918753	2556.570762
601.269392	2556.076728
601.619978	2555.577654
601.970510	2556.011193
602.320988	2555.721327
602.671412	2556.580844
603.021783	2553.851059
603.372100	2555.486913
603.722363	2555.975905
604.072572	2553.319217
604.422728	2558.130999
604.772830	2550.715461
605.122878	2554.859290
605.472872	2553.777962
605.822813	2552.021120
606.172701	2552.424412
606.522534	2558.514126
606.872314	2558.441030
607.222041	2556.124619
607.571714	2557.029507
607.921333	2556.366595
608.270899	2554.750905
608.620411	2556.079249
608.969870	2556.563200
609.319276	2557.326935
609.668627	2562.312636
610.017926	2564.074519
610.367171	2565.307081
610.716362	2566.302709
611.065500	2563.116700
611.414585	2560.981771
611.763616	2560.777604
612.112594	2558.090669
612.461518	2560.011349
612.810389	2555.917932
613.159207	2558.141081
613.507971	2557.226112
613.856682	2560.049158
614.205340	2557.062274
614.553945	2559.542522
614.902496	2555.809547
615.250994	2558.952707
615.599439	2561.110321
615.947830	2557.405073
616.296169	2557.848694
616.644454	2562.005125
616.992686	2554.161090
617.340864	2557.485731
617.688990	2561.284240
618.037063	2560.976730
618.385082	2560.414641
618.733048	2560.477656
619.080961	2559.116544
619.428821	2559.202244
619.776628	2558.264589
620.124382	2560.344065
620.472083	2560.039075
620.819731	2559.308108
621.167326	2561.977399
621.514868	2560.787687
621.862357	2556.389280
622.209793	2560.248283
622.557176	2558.340207
622.904506	2557.856256
623.251783	2556.817778
623.599007	2557.929352
623.946179	2554.937428
624.293297	2555.595298
624.640363	2558.559497
624.987376	2560.099569
625.334336	2557.095042
625.681243	2559.035886
626.028097	2560.089487
626.374899	2559.514795
626.721647	2560.124775
627.068343	2562.768860
627.414987	2560.608726
627.761577	2558.468756
628.108115	2559.529919
628.454600	2562.388253
628.801032	2560.991853
629.147412	2561.780794
629.493739	2561.748027
629.840014	2560.286092
630.186236	2562.637790
630.532405	2563.557801
630.878521	2559.900444
631.224585	2564.235836
631.570597	2561.768191
631.916556	2562.824313
632.262462	2562.897410
632.608316	2561.783315
632.954117	2561.402707
633.299866	2564.497976
633.645562	2567.525189
633.991206	2562.952862
634.336797	2561.138047
634.682336	2563.126782
635.027823	2562.151319
635.373257	2563.131823
635.718639	2562.526885
636.063968	2564.389591
636.409245	2564.482853
636.754470	2566.796742
637.099642	2564.782801
637.444762	2566.784139
637.789829	2563.033521
638.134845	2564.974365
638.479808	2565.470919
638.824719	2564.797925
639.169577	2565.196176
639.514383	2565.579303
639.859137	2565.324725
640.203839	2566.229612
640.548489	2566.169118
640.893086	2564.634087
641.237632	2564.843295
641.582125	2565.859087
641.926566	2560.323901
642.270955	2566.882442
642.615292	2567.706670
642.959576	2569.866805
643.303809	2566.214489
643.647990	2571.795046
643.992118	2568.765313
644.336195	2571.784964
