Dividing Wavelength (nm)	Counts (n)	Blue Motor Position (mm): 9.400000	Red Motor Position (mm): 0.000000	
326.493990	2062.885524
326.888308	2062.885524
327.282561	2062.885524
327.676750	2037.578932
328.070874	2037.629343
328.464933	2044.936496
328.858929	2053.997970
329.252859	2065.030535
329.646726	2076.854562
330.040528	2092.895513
330.434265	2109.987545
330.827938	2133.050824
331.221547	2153.205357
331.615091	2173.052380
332.008571	2194.197500
332.401986	2213.190047
332.795338	2232.535475
333.188625	2254.363671
333.581847	2271.385127
333.975006	2291.590071
334.368100	2307.923410
334.761129	2324.506285
335.154095	2340.196877
335.546996	2369.647298
335.939833	2424.187541
336.332606	2435.315888
336.725315	2446.353494
337.117960	2458.205247
337.510540	2467.871660
337.903056	2475.002372
338.295508	2482.659884
338.687896	2489.588950
339.080220	2493.833602
339.472480	2499.653614
339.864676	2503.147134
340.256807	2504.903976
340.648875	2505.713081
341.040879	2509.289780
341.432818	2509.680469
341.824694	2509.783813
342.216506	2512.087620
342.608253	2514.146931
342.999937	2510.446724
343.391557	2506.887670
343.783113	2506.063441
344.174605	2504.258708
344.566033	2501.130672
344.957397	2500.515651
345.348697	2499.247801
345.739934	2496.878459
346.131106	2495.154384
346.522215	2494.161277
346.913260	2493.944507
347.304241	2492.366626
347.695159	2490.367809
348.086012	2486.080307
348.476802	2484.651140
348.867528	2486.125678
349.258191	2477.167547
349.648789	2479.105871
350.039324	2475.672845
350.429796	2482.649802
350.820203	2480.499750
351.210548	2481.518063
351.600828	2479.499081
351.991045	2475.617393
352.381198	2478.168216
352.771288	2477.023874
353.161314	2477.228041
353.551276	2475.758545
353.941175	2475.478761
354.331010	2473.747124
354.720782	2478.500932
355.110490	2479.572178
355.500135	2474.863740
355.889717	2477.470017
356.279235	2478.480768
356.668689	2478.115284
357.058080	2478.626961
357.447408	2476.267701
357.836672	2478.493371
358.225873	2478.291725
358.615010	2481.450007
359.004084	2480.396406
359.393095	2479.433546
359.782043	2482.589308
360.170927	2483.857158
360.559748	2481.298773
360.948505	2483.698362
361.337199	2484.104175
361.725830	2484.232724
362.114398	2484.013434
362.502903	2483.204329
362.891344	2482.942189
363.279722	2483.655512
363.668037	2487.017962
364.056289	2487.464104
364.444478	2486.521408
364.832603	2489.646924
365.220665	2486.972592
365.608665	2487.010400
365.996601	2487.068373
366.384474	2490.188848
366.772284	2488.260606
367.160031	2488.963847
367.547715	2490.629949
367.935336	2487.524598
368.322893	2487.663230
368.710388	2485.674494
369.097820	2489.236070
369.485189	2486.644917
369.872495	2492.180103
370.259738	2492.623725
370.646918	2489.127685
371.034035	2492.434682
371.421090	2491.575165
371.808081	2490.385453
372.195010	2493.473159
372.581875	2491.434013
372.968678	2491.557521
373.355418	2493.679847
373.742096	2494.365444
374.128710	2493.077429
374.515262	2495.751761
374.901751	2492.331338
375.288177	2493.450474
375.674540	2491.615494
376.060841	2493.437871
376.447079	2494.579693
376.833254	2496.414673
377.219367	2494.070536
377.605417	2495.822337
377.991404	2494.438540
378.377329	2495.988695
378.763191	2495.996257
379.148991	2495.852584
379.534727	2496.185300
379.920402	2495.507265
380.306013	2497.758140
380.691563	2496.031545
381.077049	2497.422903
381.462474	2494.183962
381.847835	2497.619508
382.233134	2497.001967
382.618371	2500.157729
383.003545	2499.872904
383.388657	2498.050527
383.773706	2499.973727
384.158693	2497.601864
384.543618	2497.576659
384.928480	2500.220744
385.313280	2498.310147
385.698017	2499.774602
386.082692	2497.692605
386.467305	2500.437513
386.851856	2501.433141
387.236344	2499.855260
387.620770	2497.496000
388.005133	2499.308295
388.389435	2497.266628
388.773674	2498.874756
389.157851	2501.619664
389.541965	2499.802328
389.926018	2502.312823
390.310008	2503.966321
390.693936	2502.733759
391.077802	2502.872391
391.461606	2504.838441
391.845348	2502.534633
392.229027	2502.849706
392.612645	2502.769047
392.996200	2502.625374
393.379694	2502.343070
393.763125	2502.890035
394.146494	2502.065806
394.529801	2502.567401
394.913047	2502.983296
395.296230	2503.426918
395.679351	2502.459016
396.062410	2504.009171
396.445408	2505.904645
396.828343	2506.559995
397.211217	2507.033863
397.594028	2505.718122
397.976778	2506.219717
398.359466	2504.914058
398.742092	2502.905158
399.124656	2504.553616
399.507158	2504.173008
399.889598	2505.277021
400.271977	2506.973369
400.654294	2505.521517
401.036549	2508.848679
401.418742	2506.149141
401.800874	2506.701147
402.182944	2508.074862
402.564952	2508.089985
402.946898	2506.817094
403.328783	2509.922444
403.710606	2508.347084
404.092367	2507.104439
404.474067	2507.603514
404.855705	2508.198370
405.237282	2508.999913
405.618797	2509.269615
406.000250	2511.684328
406.381642	2509.423370
406.762972	2507.946312
407.144240	2503.754593
407.525447	2509.655263
407.906593	2504.626712
408.287677	2510.592918
408.668700	2509.163751
409.049661	2513.758763
409.430560	2511.490243
409.811399	2511.465038
410.192176	2508.997393
410.572891	2509.040243
410.953545	2510.968484
411.334138	2512.455624
411.714669	2511.122239
412.095139	2510.015706
412.475547	2512.168278
412.855894	2512.092661
413.236180	2509.877074
413.616405	2514.204905
413.996568	2510.769358
414.376670	2512.937054
414.756711	2513.559637
415.136691	2514.711541
415.516609	2512.601818
415.896466	2511.034019
416.276262	2514.252796
416.655997	2515.064421
417.035670	2513.375635
417.415283	2511.091992
417.794834	2511.281035
418.174324	2512.523680
418.553753	2510.673576
418.933121	2517.184227
419.312428	2509.574605
419.691674	2512.082579
420.070859	2513.620131
420.449983	2513.312620
420.829045	2513.685666
421.208047	2515.649195
421.586988	2513.814215
421.965867	2514.991325
422.344686	2515.644154
422.723444	2515.041736
423.102141	2515.233300
423.480777	2515.334123
423.859352	2514.943434
424.237866	2517.098527
424.616319	2514.527538
424.994712	2513.894874
425.373044	2512.362363
425.751314	2512.868999
426.129524	2507.104439
426.507673	2511.291118
426.885762	2508.321878
427.263789	2513.322703
427.641756	2516.175996
428.019662	2512.538803
428.397508	2512.984945
428.775292	2514.590553
429.153016	2514.759432
429.530679	2513.733557
429.908282	2515.281191
430.285824	2517.038033
430.663305	2514.658608
431.040726	2515.775224
431.418086	2515.253465
431.795385	2515.800430
432.172624	2514.167096
432.549802	2515.853362
432.926920	2516.075173
433.303977	2516.438136
433.680974	2514.293125
434.057910	2517.234638
434.434786	2517.300173
434.811601	2516.284381
435.188355	2511.946468
435.565050	2515.492919
435.941683	2515.364370
436.318257	2517.705986
436.694770	2513.897394
437.071222	2515.634072
437.447614	2518.588188
437.823946	2512.558968
438.200218	2516.170955
438.576429	2517.365708
438.952580	2516.324710
439.328670	2516.710358
439.704700	2516.115502
440.080670	2515.941582
440.456580	2514.855213
440.832429	2517.320338
441.208218	2512.281704
441.583947	2514.212466
441.959616	2515.397138
442.335224	2517.043074
442.710773	2514.235152
443.086261	2516.443177
443.461689	2518.449556
443.837057	2516.561644
444.212365	2516.712879
444.587612	2514.096520
444.962800	2512.503515
445.337927	2516.042405
445.712995	2511.790192
446.088002	2516.778414
446.462949	2514.348578
446.837837	2517.141377
447.212664	2516.750687
447.587431	2519.049453
447.962139	2517.804288
448.336786	2518.696573
448.711374	2515.540810
449.085901	2517.406037
449.460369	2516.856552
449.834776	2518.850328
450.209124	2517.337982
450.583412	2517.090965
450.957640	2515.230779
451.331808	2519.334279
451.705917	2517.587519
452.079965	2515.891171
452.453954	2516.082734
452.827883	2515.654236
453.201752	2519.840915
453.575562	2518.515091
453.949311	2517.837056
454.323001	2517.864782
454.696632	2516.917045
455.070202	2520.166069
455.443713	2517.771521
455.817164	2518.920904
456.190556	2518.250431
456.563888	2521.323014
456.937160	2517.960564
457.310373	2518.172293
457.683526	2518.605832
458.056619	2516.990142
458.429653	2517.751356
458.802628	2519.167921
459.175542	2516.196160
459.548398	2520.405524
459.921194	2519.001562
460.293930	2518.000893
460.666607	2520.551717
461.039224	2518.930986
461.411782	2518.885616
461.784280	2518.441994
462.156719	2520.113137
462.529099	2519.160359
462.901419	2517.970647
463.273680	2516.417971
463.645882	2513.022754
464.018024	2517.474093
464.390106	2513.529390
464.762130	2519.843435
465.134094	2518.562982
465.505999	2520.680267
465.877845	2518.368898
466.249631	2521.920391
466.621358	2518.003414
466.993026	2524.380474
467.364634	2522.938704
467.736184	2522.550535
468.107674	2519.392252
468.479105	2520.849145
468.850477	2520.128260
469.221790	2522.326203
469.593043	2519.979546
469.964238	2518.638599
470.335373	2518.739422
470.706449	2520.438291
471.077467	2518.966274
471.448425	2523.410052
471.819324	2522.490041
472.190164	2521.386028
472.560945	2520.249248
472.931667	2519.397293
473.302330	2519.432581
473.672934	2520.856707
474.043479	2518.507529
474.413965	2520.249248
474.784393	2519.593898
475.154761	2523.074815
475.525070	2519.891326
475.895321	2520.027437
476.265513	2520.584485
476.635645	2520.786131
477.005719	2521.290246
477.375734	2522.416944
477.745691	2522.167407
478.115588	2522.555576
478.485427	2522.555576
478.855207	2521.806965
479.224928	2523.596574
479.594591	2523.725124
479.964194	2520.763446
480.333739	2524.206554
480.703226	2522.109434
481.072653	2525.449198
481.442022	2526.921215
481.811333	2520.115657
482.180584	2521.239835
482.549777	2520.435771
482.918912	2518.356295
483.287988	2524.977850
483.657005	2520.652540
484.025964	2523.364681
484.394864	2524.181348
484.763706	2522.469876
485.132489	2521.557428
485.501213	2524.511544
485.869879	2522.396780
486.238487	2523.455422
486.607036	2519.596419
486.975527	2523.135309
487.343959	2525.076153
487.712333	2523.037006
488.080648	2525.199661
488.448905	2524.433406
488.817104	2523.059691
489.185244	2524.138498
489.553326	2528.489014
489.921350	2524.718231
490.289315	2528.073119
490.657222	2527.843746
491.025070	2527.276617
491.392861	2526.149919
491.760593	2524.337624
492.128267	2523.936852
492.495883	2523.405010
492.863440	2523.972140
493.230939	2524.955165
493.598380	2525.867614
493.965763	2524.188910
494.333088	2526.170083
494.700354	2523.546163
495.067563	2526.220495
495.434713	2525.842408
495.801805	2525.358457
496.168839	2525.091276
496.535815	2523.669671
496.902733	2523.820906
497.269593	2527.606812
497.636395	2525.529857
498.003139	2524.735875
498.369825	2528.131092
498.736453	2525.855011
499.103023	2526.432223
499.469535	2524.400638
499.835989	2527.097656
500.202385	2523.140350
500.568723	2520.392921
500.935003	2522.641276
501.301226	2518.318486
501.667390	2524.884589
502.033497	2524.897192
502.399546	2526.021369
502.765537	2524.229239
503.131470	2527.175793
503.497345	2524.569517
503.863163	2524.914836
504.228923	2525.139167
504.594625	2526.283509
504.960269	2523.586492
505.325856	2526.217974
505.691385	2525.557583
506.056856	2526.432223
506.422270	2526.732172
506.787625	2528.327697
507.152924	2526.613705
507.518164	2526.933818
507.883347	2524.385515
508.248472	2526.142357
508.613540	2524.584640
508.978550	2526.737213
509.343503	2524.869466
509.708398	2526.540608
510.073236	2526.210413
510.438016	2528.562111
510.802738	2525.728982
511.167403	2527.301822
511.532010	2526.016328
511.896561	2527.246370
512.261053	2528.289888
512.625488	2527.165711
512.989866	2528.715866
513.354186	2527.286699
513.718449	2526.212933
514.082655	2526.734692
514.446803	2528.597399
514.810894	2528.453726
515.174927	2527.921884
515.538904	2530.659231
515.902822	2530.155115
516.266684	2530.626463
516.630488	2529.076308
516.994235	2529.860208
517.357925	2532.779036
517.721558	2531.591844
518.085133	2532.602596
518.448651	2530.565969
518.812112	2528.113448
519.175516	2531.014632
519.538863	2525.658406
519.902152	2535.871784
520.265385	2532.443799
520.628560	2533.346166
520.991678	2535.007226
521.354739	2533.991433
521.717743	2535.705426
522.080690	2534.898841
522.443580	2538.094933
522.806413	2537.169881
523.169189	2536.096115
523.531908	2537.605941
523.894569	2536.403626
524.257174	2541.953936
524.619722	2542.606765
524.982213	2542.936961
525.344647	2542.294214
525.707025	2540.489481
526.069345	2544.512322
526.431608	2543.877136
526.793815	2545.828063
527.155964	2545.258412
527.518057	2546.259081
527.880093	2546.115408
528.242072	2547.428629
528.603995	2545.969215
528.965860	2549.072045
529.327669	2549.634134
529.689421	2552.270657
530.051117	2550.932231
530.412755	2552.240410
530.774337	2553.649413
531.135862	2553.351985
531.497331	2555.406255
531.858743	2553.727551
532.220098	2555.980947
532.581396	2559.615618
532.942638	2560.210475
533.303824	2561.004456
533.664953	2561.082594
534.026025	2560.681823
534.387040	2561.969837
534.747999	2565.019735
535.108902	2564.455126
535.469748	2564.175342
535.830537	2567.333625
536.191270	2563.661144
536.551947	2563.363716
536.912567	2562.194169
537.273131	2568.848492
537.633638	2565.049982
537.994089	2568.679613
538.354483	2569.904613
538.714821	2573.803946
539.075103	2571.936198
539.435328	2572.843606
539.795497	2575.366704
540.155609	2575.835531
540.515665	2580.748135
540.875665	2582.512539
541.235609	2579.329051
541.595496	2580.349884
541.955328	2582.535224
542.315102	2584.022365
542.674821	2584.776017
543.034483	2585.449011
543.394090	2583.840883
543.753640	2583.611511
544.113134	2585.998497
544.472571	2588.012438
544.831953	2590.464959
545.191278	2589.524784
545.550548	2588.105699
545.909761	2594.286154
546.268918	2593.328335
546.628019	2595.072574
546.987064	2592.035279
547.346053	2593.088880
547.704986	2599.682709
548.063863	2594.492841
548.422684	2595.115424
548.781449	2597.860332
549.140158	2599.818820
549.498811	2598.014087
549.857408	2598.954262
550.215949	2600.393512
550.574434	2601.729418
550.932864	2599.889397
551.291237	2602.944336
551.649555	2600.963162
552.007817	2605.555653
552.366022	2604.736466
552.724173	2604.292844
553.082267	2604.761672
553.440305	2606.304265
553.798288	2604.340735
554.156215	2607.635129
554.514086	2608.066148
554.871902	2603.708071
555.229661	2603.849223
555.587365	2602.503235
555.945014	2608.981117
556.302606	2607.869543
556.660143	2610.165789
557.017625	2610.503546
557.375050	2610.566560
557.732421	2611.463886
558.089735	2608.857609
558.446994	2608.615634
558.804197	2612.419184
559.161345	2611.549585
559.518437	2611.025305
559.875474	2612.603187
560.232455	2615.106119
560.589381	2614.047477
560.946251	2615.368259
561.303065	2616.439505
561.659825	2617.747684
562.016528	2613.687035
562.373177	2612.706530
562.729770	2615.978239
563.086307	2616.656274
563.442789	2617.525873
563.799216	2617.427571
564.155587	2614.274329
564.511904	2616.610904
564.868164	2619.307921
565.224370	2616.106788
565.580520	2616.799947
565.936615	2617.102416
566.292654	2616.958743
566.648638	2618.599639
567.004567	2615.643002
567.360441	2616.988990
567.716260	2618.060236
568.072023	2619.023096
568.427732	2617.994701
568.783385	2619.880092
569.138982	2616.195009
569.494525	2620.437140
569.850013	2620.827829
570.205445	2620.631224
570.560823	2619.660802
570.916145	2618.375308
571.271412	2618.939917
571.626625	2619.784310
571.981782	2618.352622
572.336884	2616.618466
572.691931	2616.908332
573.046923	2615.993362
573.401860	2614.602004
573.756743	2617.687190
574.111570	2619.565020
574.466342	2619.514608
574.821059	2618.786162
575.175722	2615.683332
575.530330	2618.355143
575.884882	2620.701800
576.239380	2618.604680
576.593823	2618.445884
576.948211	2621.546193
577.302544	2616.492437
577.656823	2613.687035
578.011047	2616.691562
578.365216	2615.285080
578.719330	2616.769700
579.073389	2614.329782
579.427394	2614.007148
579.781344	2617.172992
580.135239	2616.759618
580.489080	2617.445215
580.842866	2614.604525
581.196597	2618.269443
581.550273	2617.782972
581.903895	2617.737602
582.257463	2618.050153
582.610975	2617.402365
582.964434	2618.093003
583.317837	2616.862962
583.671186	2613.359360
584.024481	2618.377828
584.377721	2615.920266
584.730906	2617.082252
585.084037	2620.245576
585.437113	2615.456480
585.790135	2618.143415
586.143103	2618.095524
586.496016	2617.999742
586.848874	2618.483692
587.201679	2621.019393
587.554428	2617.694752
587.907124	2619.943107
588.259765	2616.686521
588.612352	2620.011162
588.964884	2619.990997
589.317362	2621.984774
589.669786	2622.849332
590.022155	2619.244907
590.374470	2620.752212
590.726731	2621.301698
591.078937	2620.147273
591.431090	2623.945783
591.783188	2621.221039
592.135232	2623.744137
592.487222	2625.420320
592.839157	2626.393263
593.191038	2627.504837
593.542866	2625.097686
593.894639	2626.458798
594.246358	2626.932666
594.598022	2628.273613
594.949633	2628.044241
595.301190	2628.364354
595.652692	2632.926598
596.004141	2633.728142
596.355535	2629.629684
596.706876	2630.718573
597.058162	2631.411732
597.409395	2634.012967
597.760573	2636.004223
598.111698	2637.413225
598.462768	2636.231075
598.813785	2638.615540
599.164748	2638.285345
599.515657	2644.075110
599.866511	2642.086375
600.217312	2643.502939
600.568060	2641.196611
600.918753	2651.389824
601.269392	2648.541572
601.619978	2649.690955
601.970510	2655.642037
602.320988	2655.468118
602.671412	2659.770742
603.021783	2659.571617
603.372100	2661.688902
603.722363	2661.888027
604.072572	2666.367092
604.422728	2668.822134
604.772830	2667.952535
605.122878	2672.605520
605.472872	2674.067455
605.822813	2677.460151
606.172701	2680.709175
606.522534	2684.762263
606.872314	2687.544980
607.222041	2688.013807
607.571714	2695.346165
607.921333	2690.564631
608.270899	2698.131403
608.620411	2702.101311
608.969870	2709.688248
609.319276	2712.539020
609.668627	2715.389793
610.017926	2724.521843
610.367171	2726.374467
610.716362	2735.735890
611.065500	2737.517938
611.414585	2743.360635
611.763616	2751.043353
612.112594	2755.282964
612.461518	2761.191196
612.810389	2767.086826
613.159207	2774.608227
613.507971	2782.056532
613.856682	2789.575413
614.205340	2794.551032
614.553945	2810.738177
614.902496	2810.100471
615.250994	2819.847542
615.599439	2827.623522
615.947830	2839.661797
616.296169	2845.509535
616.644454	2856.683253
616.992686	2863.052751
617.340864	2880.404402
617.688990	2889.465876
618.037063	2905.653021
618.385082	2916.483940
618.733048	2932.696291
619.080961	2942.932354
619.428821	2955.242852
619.776628	2964.934470
620.124382	2974.260605
620.472083	2983.695124
620.819731	2997.270951
621.167326	2997.006291
621.514868	3010.687982
621.862357	3009.820904
622.209793	3021.166021
622.557176	3022.723737
622.904506	3029.209182
623.251783	3033.985675
623.599007	3041.030687
623.946179	3047.788354
624.293297	3058.712534
624.640363	3061.870817
624.987376	3069.528330
625.334336	3074.554360
625.681243	3082.839497
626.028097	3091.149839
626.374899	3109.421501
626.721647	3120.050774
627.068343	3134.476036
627.414987	3146.582367
627.761577	3155.043943
628.108115	3174.923733
628.454600	3179.599404
628.801032	3200.069009
629.147412	3215.134497
629.493739	3228.543966
629.840014	3239.009402
630.186236	3265.228443
630.532405	3275.136831
630.878521	3299.697332
631.224585	3315.821463
631.570597	3329.246056
631.916556	3353.158769
632.262462	3371.937067
632.608316	3389.840725
632.954117	3408.432500
633.299866	3427.281374
633.645562	3441.227727
633.991206	3445.792491
634.336797	3450.783234
634.682336	3462.640027
635.027823	3472.661841
635.373257	3485.037874
635.718639	3490.900736
636.063968	3502.041686
636.409245	3502.460102
636.754470	3519.226979
637.099642	3529.815923
637.444762	3534.778939
637.789829	3552.465827
638.134845	3563.105183
638.479808	3577.346442
638.824719	3595.275306
639.169577	3597.354782
639.514383	3624.312352
639.859137	3634.276192
640.203839	3657.306704
640.548489	3667.804907
640.893086	3688.156045
641.237632	3702.084753
641.582125	3724.036457
641.926566	3737.960124
642.270955	3763.869134
642.615292	3781.999644
642.959576	3799.235349
643.303809	3819.929286
643.647990	3850.942464
643.992118	3871.354096
644.336195	3895.561717
