Dividing Wavelength (nm)	Counts (n)	Blue Motor Position (mm): 7.400000	Red Motor Position (mm): 0.000000	
326.493990	2061.390822
326.888308	2061.390822
327.282561	2061.390822
327.676750	2037.147913
328.070874	2039.035825
328.464933	2047.749460
328.858929	2055.984185
329.252859	2063.011553
329.646726	2078.492937
330.040528	2094.090267
330.434265	2113.559203
330.827938	2134.638788
331.221547	2154.306849
331.615091	2174.060611
332.008571	2194.923426
332.401986	2217.598536
332.795338	2235.819786
333.188625	2255.424834
333.581847	2274.011568
333.975006	2288.948507
334.368100	2308.679583
334.761129	2326.190031
335.154095	2340.978256
335.546996	2363.673530
335.939833	2393.275186
336.332606	2406.908986
336.725315	2419.463980
337.117960	2428.870773
337.510540	2437.183636
337.903056	2447.853238
338.295508	2450.956068
338.687896	2459.296657
339.080220	2463.425362
339.472480	2471.927268
339.864676	2474.914152
340.256807	2477.326344
340.648875	2478.717702
341.040879	2479.052939
341.432818	2482.727940
341.824694	2484.383959
342.216506	2480.366159
342.608253	2479.194091
342.999937	2482.617035
343.391557	2479.811632
343.783113	2478.689976
344.174605	2475.690489
344.566033	2473.369038
344.957397	2476.741570
345.348697	2469.852833
345.739934	2468.350569
346.131106	2469.628502
346.522215	2467.879221
346.913260	2466.318984
347.304241	2465.671196
347.695159	2462.190279
348.086012	2459.185752
348.476802	2461.066102
348.867528	2454.459670
349.258191	2452.284412
349.648789	2454.900771
350.039324	2447.664194
350.429796	2452.158383
350.820203	2451.127467
351.210548	2451.850873
351.600828	2448.032199
351.991045	2451.820626
352.381198	2449.506736
352.771288	2450.555296
353.161314	2449.849535
353.551276	2447.971705
353.941175	2448.145625
354.331010	2448.637137
354.720782	2449.965481
355.110490	2450.305759
355.500135	2450.560337
355.889717	2450.096551
356.279235	2449.968002
356.668689	2451.997066
357.058080	2450.749381
357.447408	2452.211315
357.836672	2451.321552
358.225873	2452.566717
358.615010	2450.252827
359.004084	2453.630400
359.393095	2452.135698
359.782043	2454.620987
360.170927	2452.760801
360.559748	2456.581996
360.948505	2457.819599
361.337199	2457.101234
361.725830	2454.124433
362.114398	2456.879424
362.502903	2456.493775
362.891344	2458.250617
363.279722	2457.917901
363.668037	2461.048458
364.056289	2458.669033
364.444478	2462.437296
364.832603	2460.314970
365.220665	2462.049127
365.608665	2461.779425
365.996601	2460.607357
366.384474	2461.625670
366.772284	2460.937553
367.160031	2460.372943
367.547715	2462.447378
367.935336	2463.332101
368.322893	2462.001236
368.710388	2459.858746
369.097820	2459.533591
369.485189	2458.805144
369.872495	2463.516103
370.259738	2460.761112
370.646918	2465.116669
371.034035	2465.061216
371.421090	2464.698253
371.808081	2464.312605
372.195010	2462.888479
372.581875	2463.516103
372.968678	2463.266566
373.355418	2467.339818
373.742096	2464.143726
374.128710	2466.180353
374.515262	2463.596761
374.901751	2465.779581
375.288177	2466.550877
375.674540	2467.480970
376.060841	2468.597586
376.447079	2467.186063
376.833254	2466.409725
377.219367	2467.107925
377.605417	2468.368213
377.991404	2468.637915
378.377329	2468.005250
378.763191	2468.917699
379.148991	2469.696557
379.534727	2469.124386
379.920402	2468.884932
380.306013	2465.126751
380.691563	2468.718573
381.077049	2468.337966
381.462474	2469.452061
381.847835	2469.499952
382.233134	2472.154120
382.618371	2469.308388
383.003545	2471.927268
383.388657	2470.687144
383.773706	2473.520272
384.158693	2470.757720
384.543618	2472.665797
384.928480	2470.104891
385.313280	2472.885087
385.698017	2471.312247
386.082692	2469.376444
386.467305	2472.262505
386.851856	2473.129583
387.236344	2475.030098
387.620770	2470.361990
388.005133	2469.202524
388.389435	2470.309058
388.773674	2468.262349
389.157851	2474.825931
389.541965	2471.302165
389.926018	2474.137814
390.310008	2473.633698
390.693936	2474.551188
391.077802	2474.982207
391.461606	2475.642598
391.845348	2475.821559
392.229027	2474.220993
392.612645	2474.798205
392.996200	2475.410705
393.379694	2476.182002
393.763125	2476.562609
394.146494	2475.572022
394.529801	2476.146714
394.913047	2476.877681
395.296230	2479.166365
395.679351	2478.274081
396.062410	2474.415077
396.445408	2478.226190
396.828343	2477.245685
397.211217	2478.752990
397.594028	2479.625110
397.976778	2477.903556
398.359466	2480.643423
398.742092	2480.497229
399.124656	2476.429018
399.507158	2480.305666
399.889598	2478.475727
400.271977	2477.051601
400.654294	2476.638226
401.036549	2481.344143
401.418742	2479.206694
401.800874	2481.921355
402.182944	2478.755511
402.564952	2480.973618
402.946898	2481.921355
403.328783	2477.986735
403.710606	2481.271047
404.092367	2482.153248
404.474067	2480.648464
404.855705	2482.191057
405.237282	2481.371870
405.618797	2481.142497
406.000250	2482.659884
406.381642	2484.096613
406.762972	2481.961685
407.144240	2475.438432
407.525447	2480.749287
407.906593	2479.577219
408.287677	2484.779690
408.668700	2480.245172
409.049661	2484.394041
409.430560	2482.884216
409.811399	2484.096613
410.192176	2480.585450
410.572891	2483.426140
410.953545	2483.305152
411.334138	2484.724237
411.714669	2485.392190
412.095139	2484.457056
412.475547	2484.522591
412.855894	2484.734319
413.236180	2483.143835
413.616405	2485.868579
413.996568	2482.687611
414.376670	2485.127529
414.756711	2485.946717
415.136691	2484.817498
415.516609	2486.995277
415.896466	2485.258599
416.276262	2483.736171
416.655997	2486.065184
417.035670	2484.275574
417.415283	2484.812457
417.794834	2483.721047
418.174324	2486.710452
418.553753	2487.176758
418.933121	2487.136429
419.312428	2486.357571
419.691674	2487.511995
420.070859	2486.670122
420.449983	2486.491161
420.829045	2487.411172
421.208047	2486.506285
421.586988	2487.393528
421.965867	2487.945534
422.344686	2487.542242
422.723444	2486.919659
423.102141	2487.131388
423.480777	2486.350009
423.859352	2490.125833
424.237866	2487.474186
424.616319	2487.837149
424.994712	2485.951758
425.373044	2489.896461
425.751314	2487.353199
426.129524	2483.348002
426.507673	2487.879999
426.885762	2483.776500
427.263789	2486.929742
427.641756	2488.767242
428.019662	2488.724393
428.397508	2489.525936
428.775292	2487.317911
429.153016	2490.773622
429.530679	2490.927377
429.908282	2490.118272
430.285824	2490.098107
430.663305	2491.491986
431.040726	2487.023003
431.418086	2491.002994
431.795385	2488.462253
432.172624	2489.291522
432.549802	2489.417551
432.926920	2488.489979
433.303977	2491.237408
433.680974	2493.644559
434.057910	2489.372181
434.434786	2489.737664
434.811601	2490.743375
435.188355	2492.046513
435.565050	2490.135916
435.941683	2491.590288
436.318257	2493.382419
436.694770	2488.666419
437.071222	2489.253714
437.447614	2488.880668
437.823946	2492.074239
438.200218	2490.902171
438.576429	2493.006853
438.952580	2491.005515
439.328670	2492.689260
439.704700	2491.789414
440.080670	2492.311173
440.456580	2492.341420
440.832429	2491.129023
441.208218	2491.834784
441.583947	2490.854280
441.959616	2492.384270
442.335224	2493.803355
442.710773	2489.939311
443.086261	2492.364106
443.461689	2491.602891
443.837057	2491.076091
444.212365	2492.018787
444.587612	2488.404279
444.962800	2490.246821
445.337927	2488.346306
445.712995	2486.019813
446.088002	2493.395022
446.462949	2491.691112
446.837837	2492.167501
447.212664	2493.742861
447.587431	2494.012563
447.962139	2492.893427
448.336786	2491.499548
448.711374	2491.282778
449.085901	2490.803868
449.460369	2491.209681
449.834776	2491.444095
450.209124	2493.248828
450.583412	2491.749085
450.957640	2493.725217
451.331808	2492.487614
451.705917	2490.937459
452.079965	2493.412666
452.453954	2494.078098
452.827883	2493.306801
453.201752	2493.347131
453.575562	2495.741679
453.949311	2493.652120
454.323001	2493.805876
454.696632	2495.197234
455.070202	2492.898468
455.443713	2492.109527
455.817164	2494.309991
456.190556	2495.693788
456.563888	2495.371154
456.937160	2493.957110
457.310373	2492.646410
457.683526	2494.269662
458.056619	2494.650269
458.429653	2493.899137
458.802628	2494.574652
459.175542	2494.723366
459.548398	2493.531133
459.921194	2495.134220
460.293930	2495.139261
460.666607	2495.736637
461.039224	2495.587923
461.411782	2495.789570
461.784280	2495.028355
462.156719	2492.933756
462.529099	2494.236894
462.901419	2494.206647
463.273680	2493.851246
463.645882	2491.219764
464.018024	2490.687922
464.390106	2490.362768
464.762130	2493.536174
465.134094	2494.393170
465.505999	2495.464415
465.877845	2495.691267
466.249631	2496.276041
466.621358	2496.124806
466.993026	2493.291678
467.364634	2497.884169
467.736184	2495.230002
468.107674	2494.756133
468.479105	2495.645897
468.850477	2495.847543
469.221790	2495.809734
469.593043	2497.710249
469.964238	2495.000629
470.335373	2495.711432
470.706449	2496.384426
471.077467	2496.460043
471.448425	2499.454488
471.819324	2498.831906
472.190164	2495.910557
472.560945	2493.702532
472.931667	2495.469456
473.302330	2494.791421
473.672934	2498.602533
474.043479	2495.701349
474.413965	2494.884682
474.784393	2493.919302
475.154761	2498.647904
475.525070	2495.779487
475.895321	2497.319560
476.265513	2497.707729
476.635645	2498.300064
477.005719	2494.516678
477.375734	2497.100270
477.745691	2499.245281
478.115588	2495.829899
478.485427	2499.401556
478.855207	2497.765702
479.224928	2498.978099
479.594591	2497.420383
479.964194	2497.289313
480.333739	2496.661689
480.703226	2495.250166
481.072653	2496.999447
481.442022	2498.204282
481.811333	2496.535660
482.180584	2493.813437
482.549777	2497.410301
482.918912	2493.465598
483.287988	2497.218737
483.657005	2497.959786
484.025964	2498.262256
484.394864	2498.952894
484.763706	2498.577328
485.132489	2497.785867
485.501213	2497.143119
485.869879	2497.732934
486.238487	2498.766371
486.607036	2502.138903
486.975527	2500.102277
487.343959	2498.726042
487.712333	2498.325270
488.080648	2502.033039
488.448905	2497.052379
488.817104	2496.054230
489.185244	2501.644870
489.553326	2498.894920
489.921350	2500.765188
490.289315	2499.641011
490.657222	2499.688902
491.025070	2500.482884
491.392861	2501.130672
491.760593	2503.512617
492.128267	2502.673265
492.495883	2500.039262
492.863440	2499.633449
493.230939	2500.727380
493.598380	2499.832575
493.965763	2498.242091
494.333088	2498.705877
494.700354	2499.767040
495.067563	2499.772081
495.434713	2500.775271
495.801805	2502.214520
496.168839	2498.723521
496.535815	2500.634118
496.902733	2499.421721
497.269593	2500.190497
497.636395	2501.569252
498.003139	2498.206803
498.369825	2503.409274
498.736453	2499.572956
499.103023	2503.840292
499.469535	2501.342401
499.835989	2499.487256
500.202385	2500.868532
500.568723	2498.383243
500.935003	2499.048676
501.301226	2495.401401
501.667390	2501.047493
502.033497	2499.358707
502.399546	2502.383399
502.765537	2499.464571
503.131470	2502.138903
503.497345	2501.614623
503.863163	2500.757627
504.228923	2502.766527
504.594625	2504.167967
504.960269	2501.415497
505.325856	2501.637308
505.691385	2501.896927
506.056856	2501.904489
506.422270	2501.831393
506.787625	2501.949860
507.152924	2501.387771
507.518164	2501.561691
507.883347	2500.906341
508.248472	2499.416680
508.613540	2503.850375
508.978550	2503.381547
509.343503	2502.320384
509.708398	2501.397853
510.073236	2502.587566
510.438016	2502.030518
510.802738	2499.247801
511.167403	2499.512462
511.532010	2500.616474
511.896561	2502.769047
512.261053	2502.416166
512.625488	2501.473471
512.989866	2501.775940
513.354186	2502.443893
513.718449	2503.767196
514.082655	2502.479181
514.446803	2500.419869
514.810894	2502.874911
515.174927	2502.335508
515.538904	2504.780468
515.902822	2502.106135
516.266684	2500.230826
516.630488	2501.667555
516.994235	2503.099243
517.357925	2500.704695
517.721558	2506.449089
518.085133	2502.779129
518.448651	2502.002792
518.812112	2498.358038
519.175516	2497.785867
519.538863	2497.541371
519.902152	2502.728718
520.265385	2501.269304
520.628560	2503.366424
520.991678	2501.899448
521.354739	2500.424911
521.717743	2504.041938
522.080690	2501.614623
522.443580	2504.553616
522.806413	2504.183091
523.169189	2503.787360
523.531908	2505.110663
523.894569	2502.516989
524.257174	2503.646208
524.619722	2506.212155
524.982213	2502.978255
525.344647	2504.309120
525.707025	2504.387258
526.069345	2503.101763
526.431608	2503.550426
526.793815	2503.084119
527.155964	2501.392812
527.518057	2504.299037
527.880093	2505.211486
528.242072	2504.208297
528.603995	2506.050838
528.965860	2504.528410
529.327669	2504.735097
529.689421	2506.905314
530.051117	2506.665859
530.412755	2505.171157
530.774337	2506.764162
531.135862	2504.551095
531.497331	2504.543533
531.858743	2505.697958
532.220098	2505.735766
532.581396	2506.872546
532.942638	2506.096209
533.303824	2508.021929
533.664953	2506.683503
534.026025	2509.700634
534.387040	2506.993534
534.747999	2506.227279
535.108902	2507.661487
535.469748	2507.099398
535.830537	2509.743483
536.191270	2507.694254
536.551947	2507.805160
536.912567	2507.573267
537.273131	2506.963287
537.633638	2505.939933
537.994089	2510.524862
538.354483	2510.144255
538.714821	2511.472599
539.075103	2511.596107
539.435328	2508.778103
539.795497	2513.572240
540.155609	2511.563340
540.515665	2512.284225
540.875665	2514.285563
541.235609	2512.992507
541.595496	2514.590553
541.955328	2513.635254
542.315102	2513.277332
542.674821	2513.879750
543.034483	2513.894874
543.394090	2513.862106
543.753640	2514.489730
544.113134	2516.561644
544.472571	2517.048115
544.831953	2515.926459
545.191278	2517.769000
545.550548	2516.508712
545.909761	2518.789834
546.268918	2517.653054
546.628019	2518.991480
546.987064	2519.238497
547.346053	2515.293794
547.704986	2520.155987
548.063863	2517.756397
548.422684	2519.551048
548.781449	2521.330576
549.140158	2518.270595
549.498811	2518.205060
549.857408	2520.834022
550.215949	2522.671523
550.574434	2521.847294
550.932864	2524.874507
551.291237	2522.280833
551.649555	2521.464166
552.007817	2521.242355
552.366022	2521.580113
552.724173	2522.774866
553.082267	2523.442819
553.440305	2525.083715
553.798288	2524.675381
554.156215	2522.749660
554.514086	2522.918539
554.871902	2520.219001
555.229661	2521.171779
555.587365	2521.887623
555.945014	2525.915505
556.302606	2525.161853
556.660143	2526.354085
557.017625	2523.334434
557.375050	2525.970958
557.732421	2529.149405
558.089735	2525.935670
558.446994	2526.286030
558.804197	2527.289219
559.161345	2526.013808
559.518437	2528.168901
559.875474	2528.362985
560.232455	2530.548325
560.589381	2529.459436
560.946251	2529.124199
561.303065	2529.822399
561.659825	2528.960362
562.016528	2529.219981
562.373177	2529.547656
562.729770	2528.950280
563.086307	2530.497914
563.442789	2531.352389
563.799216	2531.808614
564.155587	2530.893644
564.511904	2532.569828
564.868164	2530.059333
565.224370	2533.797349
565.580520	2532.269879
565.936615	2534.475384
566.292654	2530.238294
566.648638	2534.067051
567.004567	2533.318439
567.360441	2532.153933
567.716260	2533.381454
568.072023	2532.910106
568.427732	2532.458923
568.783385	2533.830117
569.138982	2531.480939
569.494525	2535.292051
569.850013	2535.100487
570.205445	2534.825744
570.560823	2533.573018
570.916145	2533.262987
571.271412	2536.975797
571.626625	2532.988244
571.981782	2537.986548
572.336884	2531.579241
572.691931	2531.647297
573.046923	2537.172402
573.401860	2530.923891
573.756743	2535.055117
574.111570	2532.020342
574.466342	2536.660724
574.821059	2535.980169
575.175722	2538.669624
575.530330	2535.498738
575.884882	2537.076620
576.239380	2536.932947
576.593823	2537.842875
576.948211	2535.042514
577.302544	2535.392874
577.656823	2537.016126
578.011047	2539.715664
578.365216	2540.691127
578.719330	2539.735828
579.073389	2537.820190
579.427394	2539.617361
579.781344	2539.103163
580.135239	2537.512679
580.489080	2537.338760
580.842866	2537.260622
581.196597	2543.499050
581.550273	2540.348328
581.903895	2538.901517
582.257463	2542.047197
582.610975	2536.494366
582.964434	2535.927237
583.317837	2538.611651
583.671186	2539.398071
584.024481	2539.670293
584.377721	2538.694830
584.730906	2537.240457
585.084037	2541.948895
585.437113	2540.282793
585.790135	2539.995448
586.143103	2538.261291
586.496016	2538.551157
586.848874	2540.993596
587.201679	2538.684748
587.554428	2539.483771
587.907124	2540.060983
588.259765	2537.242978
588.612352	2539.423277
588.964884	2538.193235
589.317362	2542.949564
589.669786	2541.364121
590.022155	2538.261291
590.374470	2537.290869
590.726731	2536.093595
591.078937	2534.155271
591.431090	2538.699871
591.783188	2537.800025
592.135232	2536.373379
592.487222	2535.846578
592.839157	2537.863040
593.191038	2539.410674
593.542866	2538.455375
593.894639	2537.134593
594.246358	2537.951260
594.598022	2536.627957
594.949633	2540.212217
595.301190	2536.945550
595.652692	2539.884542
596.004141	2537.560570
596.355535	2536.275076
596.706876	2536.701054
597.058162	2536.789274
597.409395	2539.319933
597.760573	2536.897659
598.111698	2535.854140
598.462768	2535.324819
598.813785	2539.907227
599.164748	2536.005374
599.515657	2536.459078
599.866511	2536.527134
600.217312	2534.792977
600.568060	2537.084181
600.918753	2537.618544
601.269392	2538.394881
601.619978	2536.413708
601.970510	2537.351363
602.320988	2534.699716
602.671412	2538.601569
603.021783	2535.254242
603.372100	2540.761703
603.722363	2538.029398
604.072572	2536.612833
604.422728	2540.522248
604.772830	2536.638039
605.122878	2538.402443
605.472872	2539.622402
605.822813	2537.280786
606.172701	2539.614841
606.522534	2539.027546
606.872314	2538.019315
607.222041	2535.917154
607.571714	2540.123997
607.921333	2536.454037
608.270899	2535.423121
608.620411	2534.442617
608.969870	2540.668442
609.319276	2538.432690
609.668627	2539.098122
610.017926	2541.719522
610.367171	2541.825387
610.716362	2541.563247
611.065500	2541.061652
611.414585	2540.028215
611.763616	2544.212373
612.112594	2543.057949
612.461518	2542.243802
612.810389	2543.201622
613.159207	2543.572146
613.507971	2546.536345
613.856682	2546.874102
614.205340	2545.243289
614.553945	2545.528114
614.902496	2543.481406
615.250994	2545.835624
615.599439	2546.138094
615.947830	2546.750594
616.296169	2548.172199
616.644454	2550.571788
616.992686	2549.896274
617.340864	2550.438198
617.688990	2554.143446
618.037063	2551.973229
618.385082	2555.386090
618.733048	2554.168652
619.080961	2553.583878
619.428821	2556.411965
619.776628	2557.916750
620.124382	2553.382232
620.472083	2560.560835
620.819731	2556.918601
621.167326	2556.790052
621.514868	2561.342214
621.862357	2560.747357
622.209793	2560.190310
622.557176	2561.319528
622.904506	2560.596123
623.251783	2558.546894
623.599007	2561.553942
623.946179	2559.996226
624.293297	2560.258366
624.640363	2561.909343
624.987376	2560.454971
625.334336	2554.647561
625.681243	2560.452450
626.028097	2557.299208
626.374899	2562.927657
626.721647	2567.099211
627.068343	2565.531412
627.414987	2565.712894
627.761577	2567.232802
628.108115	2569.652556
628.454600	2567.782288
628.801032	2569.244222
629.147412	2572.309244
629.493739	2572.130283
629.840014	2578.124215
630.186236	2576.742939
630.532405	2577.602455
630.878521	2576.770665
631.224585	2580.901891
631.570597	2583.016655
631.916556	2585.358271
632.262462	2591.044692
632.608316	2591.359764
632.954117	2594.702049
633.299866	2593.618201
633.645562	2596.481577
633.991206	2597.462081
634.336797	2595.717842
634.682336	2598.351845
635.027823	2597.290682
635.373257	2601.041300
635.718639	2601.963831
636.063968	2604.711260
636.409245	2600.015425
636.754470	2603.640015
637.099642	2604.741507
637.444762	2604.595314
637.789829	2607.211672
638.134845	2611.148814
638.479808	2610.478340
638.824719	2613.349277
639.169577	2613.752570
639.514383	2618.312293
639.859137	2618.072838
640.203839	2619.867489
640.548489	2620.974022
640.893086	2624.890999
641.237632	2625.901750
641.582125	2628.722276
641.926566	2630.174128
642.270955	2630.378295
642.615292	2631.951135
642.959576	2640.112763
643.303809	2639.434728
643.647990	2645.264822
643.992118	2650.893271
644.336195	2650.580719
