Dividing Wavelength (nm)	Counts (n)	Blue Motor Position (mm): 20.700000	Red Motor Position (mm): 0.000000	
326.493990	2185.942610
326.888308	2185.942610
327.282561	2185.942610
327.676750	2143.922072
328.070874	2141.096506
328.464933	2140.859571
328.858929	2144.088430
329.252859	2150.586478
329.646726	2160.041162
330.040528	2172.996927
330.434265	2183.474965
330.827938	2203.329550
331.221547	2222.191027
331.615091	2237.669890
332.008571	2255.140008
332.401986	2274.417381
332.795338	2292.023611
333.188625	2309.090437
333.581847	2327.641883
333.975006	2348.759277
334.368100	2368.618902
334.761129	2386.378887
335.154095	2401.666186
335.546996	2427.623087
335.939833	2457.396142
336.332606	2474.417598
336.725315	2483.804226
337.117960	2497.327122
337.510540	2508.473113
337.903056	2521.234794
338.295508	2529.217461
338.687896	2542.543751
339.080220	2546.538865
339.472480	2555.698642
339.864676	2559.492110
340.256807	2562.874724
340.648875	2568.808162
341.040879	2570.363358
341.432818	2572.883935
341.824694	2578.474575
342.216506	2575.555747
342.608253	2578.956005
342.999937	2576.319482
343.391557	2577.307548
343.783113	2575.328895
344.174605	2578.109091
344.566033	2573.859399
344.957397	2573.546847
345.348697	2572.614234
345.739934	2570.141548
346.131106	2568.137689
346.522215	2567.787329
346.913260	2566.521999
347.304241	2565.319684
347.695159	2561.886658
348.086012	2559.393808
348.476802	2558.970351
348.867528	2553.467931
349.258191	2551.244782
349.648789	2549.193033
350.039324	2545.487785
350.429796	2552.394166
350.820203	2549.739998
351.210548	2548.421736
351.600828	2547.670604
351.991045	2544.444266
352.381198	2545.351674
352.771288	2544.542568
353.161314	2544.703885
353.551276	2546.173382
353.941175	2543.751107
354.331010	2546.077600
354.720782	2543.917465
355.110490	2541.686755
355.500135	2543.332692
355.889717	2542.354708
356.279235	2542.972249
356.668689	2543.378062
357.058080	2544.046015
357.447408	2542.294214
357.836672	2545.971736
358.225873	2542.826056
358.615010	2542.485778
359.004084	2545.525593
359.393095	2544.862682
359.782043	2546.392672
360.170927	2544.784544
360.559748	2547.378218
360.948505	2548.031047
361.337199	2547.751263
361.725830	2547.700851
362.114398	2548.141952
362.502903	2550.168496
362.891344	2547.675646
363.279722	2548.053732
363.668037	2551.093548
364.056289	2551.643034
364.444478	2550.697817
364.832603	2551.373332
365.220665	2549.946685
365.608665	2554.254351
365.996601	2551.920297
366.384474	2555.423899
366.772284	2551.665719
367.160031	2555.244938
367.547715	2552.973898
367.935336	2552.623538
368.322893	2554.902140
368.710388	2551.287632
369.097820	2553.304094
369.485189	2549.840821
369.872495	2555.872562
370.259738	2558.143602
370.646918	2556.474980
371.034035	2558.221739
371.421090	2557.770556
371.808081	2556.699311
372.195010	2558.080587
372.581875	2556.747202
372.968678	2558.977913
373.355418	2561.422872
373.742096	2560.480176
374.128710	2560.449929
374.515262	2561.816082
374.901751	2557.768036
375.288177	2560.303736
375.674540	2558.761143
376.060841	2564.142575
376.447079	2561.501010
376.833254	2562.322718
377.219367	2561.962276
377.605417	2562.363047
377.991404	2560.593602
378.377329	2562.300033
378.763191	2564.762637
379.148991	2562.695763
379.534727	2563.804817
379.920402	2562.020249
380.306013	2561.453119
380.691563	2565.170970
381.077049	2564.192986
381.462474	2563.562842
381.847835	2563.945970
382.233134	2565.692729
382.618371	2564.354303
383.003545	2567.232802
383.388657	2563.734241
383.773706	2565.720456
384.158693	2564.157698
384.543618	2566.559808
384.928480	2567.376475
385.313280	2565.849005
385.698017	2563.600651
386.082692	2567.202555
386.467305	2563.638459
386.851856	2568.785477
387.236344	2568.039387
387.620770	2567.010991
388.005133	2562.925136
388.389435	2566.491752
388.773674	2563.298181
389.157851	2568.145251
389.541965	2567.252967
389.926018	2570.350756
390.310008	2567.747000
390.693936	2569.261866
391.077802	2569.718091
391.461606	2570.237330
391.845348	2568.621640
392.229027	2571.769840
392.612645	2571.038873
392.996200	2572.150447
393.379694	2570.159192
393.763125	2573.027608
394.146494	2571.991651
394.529801	2573.572053
394.913047	2572.412587
395.296230	2574.171950
395.679351	2572.183215
396.062410	2573.332598
396.445408	2570.955694
396.828343	2572.647001
397.211217	2571.091805
397.594028	2574.660942
397.976778	2575.228072
398.359466	2575.676735
398.742092	2575.681776
399.124656	2572.508369
399.507158	2576.077506
399.889598	2575.712023
400.271977	2574.572722
400.654294	2574.335788
401.036549	2576.054821
401.418742	2577.259657
401.800874	2576.969791
402.182944	2575.870819
402.564952	2576.425346
402.946898	2573.745973
403.328783	2575.525500
403.710606	2576.788309
404.092367	2574.242526
404.474067	2578.376272
404.855705	2575.994327
405.237282	2577.244533
405.618797	2577.610017
406.000250	2581.040522
406.381642	2578.318299
406.762972	2574.136662
407.144240	2574.439131
407.525447	2576.490881
407.906593	2572.468040
408.287677	2581.257292
408.668700	2577.453741
409.049661	2579.666808
409.430560	2579.044225
409.811399	2581.418609
410.192176	2579.893660
410.572891	2579.823084
410.953545	2581.209401
411.334138	2581.627817
411.714669	2581.532035
412.095139	2582.613362
412.475547	2580.327199
412.855894	2584.415575
413.236180	2582.257961
413.616405	2583.276274
413.996568	2582.663774
414.376670	2584.327355
414.756711	2582.668815
415.136691	2584.387848
415.516609	2581.905080
415.896466	2582.731829
416.276262	2584.609659
416.655997	2582.530183
417.035670	2583.193095
417.415283	2584.483630
417.794834	2584.715523
418.174324	2581.602611
418.553753	2581.222004
418.933121	2583.493044
419.312428	2584.022365
419.691674	2583.072107
420.070859	2587.140318
420.449983	2588.987901
420.829045	2583.430029
421.208047	2585.849783
421.586988	2585.030596
421.965867	2585.960688
422.344686	2586.215267
422.723444	2589.134095
423.102141	2584.975143
423.480777	2586.767273
423.859352	2588.514033
424.237866	2587.072263
424.616319	2589.716348
424.994712	2589.847418
425.373044	2587.828436
425.751314	2584.730647
426.129524	2585.438929
426.507673	2586.598394
426.885762	2585.133939
427.263789	2588.493868
427.641756	2589.005545
428.019662	2587.785586
428.397508	2588.624938
428.775292	2589.670978
429.153016	2589.247521
429.530679	2589.015628
429.908282	2592.307501
430.285824	2589.696183
430.663305	2590.883375
431.040726	2590.447315
431.418086	2590.127202
431.795385	2589.693663
432.172624	2589.923035
432.549802	2591.858838
432.926920	2591.067377
433.303977	2593.293047
433.680974	2592.594847
434.057910	2592.196596
434.434786	2592.743561
434.811601	2593.235073
435.188355	2591.853797
435.565050	2592.252048
435.941683	2595.007039
436.318257	2594.026535
436.694770	2594.132399
437.071222	2594.051740
437.447614	2595.911926
437.823946	2592.521750
438.200218	2593.230032
438.576429	2594.097111
438.952580	2594.795311
439.328670	2594.026535
439.704700	2593.202306
440.080670	2596.335383
440.456580	2595.816144
440.832429	2598.581217
441.208218	2596.479056
441.583947	2596.463932
441.959616	2596.819334
442.335224	2594.369333
442.710773	2596.784046
443.086261	2597.570466
443.461689	2598.024170
443.837057	2595.894282
444.212365	2596.620208
444.587612	2594.313880
444.962800	2594.036617
445.337927	2595.153232
445.712995	2593.214909
446.088002	2598.974427
446.462949	2596.552153
446.837837	2602.036928
447.212664	2598.820672
447.587431	2599.183635
447.962139	2604.635643
448.336786	2602.357041
448.711374	2604.093719
449.085901	2601.316043
449.460369	2600.844695
449.834776	2604.318050
450.209124	2602.664552
450.583412	2602.402412
450.957640	2605.200252
451.331808	2605.752258
451.705917	2606.352156
452.079965	2602.246136
452.453954	2602.578852
452.827883	2605.207814
453.201752	2603.153544
453.575562	2599.914602
453.949311	2602.162957
454.323001	2602.301589
454.696632	2606.304265
455.070202	2603.665221
455.443713	2606.057248
455.817164	2603.216558
456.190556	2605.069182
456.563888	2608.305603
456.937160	2607.955243
457.310373	2607.720829
457.683526	2606.518514
458.056619	2607.085644
458.429653	2608.043463
458.802628	2607.002465
459.175542	2607.204111
459.548398	2609.596138
459.921194	2612.575460
460.293930	2610.657301
460.666607	2609.384410
461.039224	2615.592591
461.411782	2614.397837
461.784280	2613.629061
462.156719	2614.362549
462.529099	2616.379011
462.901419	2612.086468
463.273680	2610.808536
463.645882	2610.506067
464.018024	2611.194184
464.390106	2609.591097
464.762130	2616.247941
465.134094	2616.041253
465.505999	2619.292798
465.877845	2624.785135
466.249631	2629.276803
466.621358	2627.963582
466.993026	2630.595065
467.364634	2632.765281
467.736184	2627.711525
468.107674	2624.512912
468.479105	2625.095166
468.850477	2623.940742
469.221790	2625.279168
469.593043	2625.009466
469.964238	2624.097017
470.335373	2625.493417
470.706449	2627.726648
471.077467	2624.943931
471.448425	2629.944756
471.819324	2640.415232
472.190164	2641.972949
472.560945	2639.641415
472.931667	2637.057824
473.302330	2635.185035
473.672934	2635.875673
474.043479	2638.184522
474.413965	2636.652011
474.784393	2642.169554
475.154761	2644.082672
475.525070	2644.604431
475.895321	2646.141983
476.265513	2646.033598
476.635645	2652.768580
477.005719	2656.385608
477.375734	2657.313180
477.745691	2662.455157
478.115588	2666.977072
478.485427	2673.215500
478.855207	2680.719257
479.224928	2693.342307
479.594591	2707.674307
479.964194	2712.750749
480.333739	2715.291490
480.703226	2720.153683
481.072653	2728.494272
481.442022	2735.050293
481.811333	2754.763725
482.180584	2757.488469
482.549777	2765.355189
482.918912	2767.923657
483.287988	2790.903757
483.657005	2798.412556
484.025964	2808.386478
484.394864	2821.493478
484.763706	2832.122751
485.132489	2840.639781
485.501213	2860.126361
485.869879	2878.824001
486.238487	2897.403173
486.607036	2918.709610
486.975527	2934.979934
487.343959	2966.194758
487.712333	2990.117554
488.080648	3012.553209
488.448905	3046.112170
488.817104	3072.127045
489.185244	3125.722072
489.553326	3167.248577
489.921350	3227.102196
490.289315	3350.146679
490.657222	3461.384780
491.025070	3527.030686
491.392861	3574.084816
491.760593	3602.642952
492.128267	3624.708083
492.495883	3631.012045
492.863440	3660.054133
493.230939	3682.028522
493.598380	3745.045466
493.965763	3787.766724
494.333088	3831.034948
494.700354	3897.079104
495.067563	3967.587202
495.434713	4030.710010
495.801805	4099.083180
496.168839	4184.117363
496.535815	4255.298455
496.902733	4352.406202
497.269593	4399.077204
497.636395	4512.011653
498.003139	4598.732102
498.369825	4687.474054
498.736453	4779.845637
499.103023	4862.651630
499.469535	4968.546107
499.835989	5091.454479
500.202385	5211.000402
500.568723	5250.258387
500.935003	5368.100399
501.301226	5444.796514
501.667390	5648.212113
502.033497	5839.319735
502.399546	5882.608123
502.765537	5965.512418
503.131470	6127.525021
503.497345	6275.172855
503.863163	6270.812257
504.228923	6503.050653
504.594625	6677.018352
504.960269	6701.765376
505.325856	6938.734895
505.691385	6980.820967
506.056856	7209.333951
506.422270	7389.643421
506.787625	7406.259064
507.152924	7683.036054
507.518164	7800.633571
507.883347	7900.637460
508.248472	7967.972152
508.613540	8311.216756
508.978550	8445.225748
509.343503	8595.195034
509.708398	8827.413265
510.073236	9013.651132
510.438016	9230.677847
510.802738	9334.059309
511.167403	9555.630624
511.532010	9628.427406
511.896561	10046.891066
512.261053	10239.813503
512.625488	10339.003246
512.989866	10478.290327
513.354186	10574.558721
513.718449	10829.116826
514.082655	11105.485483
514.446803	11223.445962
514.810894	11559.819473
515.174927	11541.605784
515.538904	11729.671070
515.902822	12083.532343
516.266684	12208.207640
516.630488	12330.470744
516.994235	12520.862522
517.357925	12833.746776
517.721558	13126.990696
518.085133	13343.188140
518.448651	13486.593843
518.812112	13574.728336
519.175516	13805.865240
519.538863	14116.206232
519.902152	14167.540302
520.265385	14523.239076
520.628560	14593.585858
520.991678	14806.682992
521.354739	15020.654767
521.717743	15251.504326
522.080690	15292.340192
522.443580	15702.412852
522.806413	15850.771489
523.169189	16132.650127
523.531908	16296.469983
523.894569	16302.766384
524.257174	16516.821338
524.619722	16812.908468
524.982213	16785.666073
525.344647	17039.309208
525.707025	17270.224301
526.069345	17465.357284
526.431608	17631.639744
526.793815	17961.905897
527.155964	17704.149180
527.518057	18015.584103
527.880093	18174.143515
528.242072	18430.546682
528.603995	18406.152538
528.965860	18435.096323
529.327669	18696.923772
529.689421	18795.823648
530.051117	18827.895469
530.412755	19162.426438
530.774337	19134.914341
531.135862	19182.608698
531.497331	19493.136213
531.858743	19296.115318
532.220098	19827.150464
532.581396	19676.361991
532.942638	19833.696402
533.303824	20004.047073
533.664953	20169.976652
534.026025	20053.848632
534.387040	20349.545072
534.747999	20560.376208
535.108902	20793.027979
535.469748	20511.154382
535.830537	20799.972168
536.191270	20985.524439
536.551947	21060.065460
536.912567	20863.054647
537.273131	21221.273998
537.633638	21089.188206
537.994089	21402.695043
538.354483	21116.044953
538.714821	21631.628962
539.075103	21796.827574
539.435328	21705.534798
539.795497	21410.833986
540.155609	21866.231660
540.515665	22209.014998
540.875665	21632.475876
541.235609	21958.366308
541.595496	22039.833875
541.955328	22413.317840
542.315102	22425.847627
542.674821	22147.621306
543.034483	22105.368875
543.394090	22311.063075
543.753640	22187.030526
544.113134	22832.928362
544.472571	22558.971898
544.831953	22899.801789
545.191278	22585.054828
545.550548	22602.713990
545.909761	22838.776101
546.268918	23124.468372
546.628019	23128.347539
546.987064	22943.067492
547.346053	22761.437239
547.704986	22928.833794
548.063863	23138.329024
548.422684	23150.838647
548.781449	22809.761740
549.140158	23221.634091
549.498811	22875.460577
549.857408	22649.206031
550.215949	23128.702941
550.574434	22839.670906
550.932864	23094.443259
551.291237	23249.718359
551.649555	23175.321011
552.007817	23255.346808
552.366022	23171.114168
552.724173	23240.125044
553.082267	23204.698335
553.440305	23696.931720
553.798288	23010.142564
554.156215	23562.237130
554.514086	23661.691534
554.871902	23064.191295
555.229661	23370.796792
555.587365	23261.255040
555.945014	23114.812041
556.302606	23414.357403
556.660143	23342.629345
557.017625	23626.002685
557.375050	23197.585267
557.732421	23586.182611
558.089735	23419.927878
558.446994	23492.238189
558.804197	23531.050032
559.161345	23510.749306
559.518437	23242.315425
559.875474	23472.610456
560.232455	23651.609226
560.589381	23517.819524
560.946251	23479.143792
561.303065	23815.151819
561.659825	23911.221088
562.016528	23525.169526
562.373177	23282.879069
562.729770	23630.023006
563.086307	23525.242623
563.442789	23702.676115
563.799216	23521.053424
564.155587	23546.291961
564.511904	23537.883316
564.868164	23471.519046
565.224370	23476.913081
565.580520	23363.504763
565.936615	23511.066898
566.292654	23181.975334
566.648638	23513.637887
567.004567	23330.177695
567.360441	23289.603969
567.716260	23016.968286
568.072023	23348.598072
568.427732	23107.479683
568.783385	22901.987129
569.138982	23130.651347
569.494525	23177.092977
569.850013	22930.459566
570.205445	23025.755018
570.560823	22826.851251
570.916145	22602.535029
571.271412	22777.425258
571.626625	22539.639073
571.981782	22643.423827
572.336884	22462.330458
572.691931	22586.955343
573.046923	22323.502122
573.401860	22216.238971
573.756743	22212.130431
574.111570	22135.051188
574.466342	22076.243608
574.821059	22159.019354
575.175722	21859.763859
575.530330	21846.682065
575.884882	21874.080736
576.239380	21789.467489
576.593823	21672.361486
576.948211	21657.984115
577.302544	21500.082573
577.656823	21375.808049
578.011047	21458.336778
578.365216	21350.705623
578.719330	21231.668858
579.073389	21138.896503
579.427394	21275.093357
579.781344	21052.423071
580.135239	20955.191816
580.489080	20928.909760
580.842866	20681.202584
581.196597	20866.250739
581.550273	20851.341526
581.903895	20744.224569
582.257463	21052.788554
582.610975	20591.598595
582.964434	20876.824559
583.317837	20601.222158
583.671186	20700.643794
584.024481	20667.583907
584.377721	20442.193918
584.730906	20486.979529
585.084037	20522.978409
585.437113	20428.376116
585.790135	20611.364959
586.143103	20098.351938
586.496016	20095.468398
586.848874	20345.318065
587.201679	20296.013060
587.554428	19962.351689
587.907124	20290.876124
588.259765	20074.134235
588.612352	20149.970833
588.964884	19727.234795
589.317362	19899.072606
589.669786	19936.404871
590.022155	20005.526652
590.374470	20167.350211
590.726731	19973.779985
591.078937	19721.210616
591.431090	19830.220527
591.783188	19570.265867
592.135232	19551.414472
592.487222	19656.638476
592.839157	19683.033958
593.191038	19555.139885
593.542866	19459.231933
593.894639	19165.670421
594.246358	19386.523371
594.598022	19305.360794
594.949633	19055.498524
595.301190	19006.722840
595.652692	19167.104629
596.004141	19422.665923
596.355535	18750.831350
596.706876	18759.892824
597.058162	18651.848294
597.409395	18866.833341
597.760573	18956.815417
598.111698	18744.731554
598.462768	18677.359053
598.813785	18632.452455
599.164748	18462.184963
599.515657	18494.632350
599.866511	18283.534033
600.217312	18641.884454
600.568060	18192.432821
600.918753	18482.689857
601.269392	18387.568325
601.619978	18158.049631
601.970510	18372.903608
602.320988	18321.786308
602.671412	18528.153503
603.021783	18427.554757
603.372100	18173.291560
603.722363	18294.312020
604.072572	18249.181090
604.422728	18367.557464
604.772830	18134.194891
605.122878	18080.153722
605.472872	18085.270493
605.822813	18074.144667
606.172701	18027.435856
606.522534	18231.468996
606.872314	18248.775277
607.222041	18080.017611
607.571714	18304.076735
607.921333	18130.910579
608.270899	18207.011838
608.620411	18404.315038
608.969870	18156.184404
609.319276	18166.722936
609.668627	18187.374023
610.017926	18331.677052
610.367171	18438.572199
610.716362	18471.105285
611.065500	18302.294687
611.414585	18436.838042
611.763616	18411.047499
612.112594	18373.251448
612.461518	18332.634871
612.810389	18529.968318
613.159207	18380.432571
613.507971	18286.160474
613.856682	18573.176048
614.205340	18499.804574
614.553945	18638.395975
614.902496	18378.748826
615.250994	18624.744531
615.599439	18564.404440
615.947830	18547.940031
616.296169	18582.454291
616.644454	18562.256908
616.992686	18536.988125
617.340864	18739.395493
617.688990	18500.964039
618.037063	18684.451957
618.385082	18520.871556
618.733048	18812.963571
619.080961	18673.558023
619.428821	18708.077324
619.776628	18601.492209
620.124382	18528.531589
620.472083	18556.613337
620.819731	18588.591896
621.167326	18272.503988
621.514868	18326.232606
621.862357	18089.260566
622.209793	18095.045290
622.557176	17928.233510
622.904506	17765.162265
623.251783	17656.003640
623.599007	17434.563396
623.946179	17383.743524
624.293297	17320.527455
624.640363	17081.458295
624.987376	17094.179647
625.334336	16889.773461
625.681243	16739.277375
626.028097	16745.407418
626.374899	16677.611461
626.721647	16540.257662
627.068343	16369.022269
627.414987	16303.560366
627.761577	16274.898886
628.108115	16334.666806
628.454600	16042.035387
628.801032	16136.196579
629.147412	16072.342803
629.493739	16089.144969
629.840014	15899.043058
630.186236	15995.828170
630.532405	15768.267965
630.878521	15966.309694
631.224585	15848.238309
631.570597	15679.102557
631.916556	15706.186156
632.262462	15697.918663
632.608316	15603.384426
632.954117	15557.003290
633.299866	15548.902156
633.645562	15472.213603
633.991206	15223.871241
634.336797	15089.514408
634.682336	15055.781528
635.027823	14953.365446
635.373257	14838.971583
635.718639	14732.993926
636.063968	14684.830742
636.409245	14431.038893
636.754470	14460.527122
637.099642	14311.523218
637.444762	14077.822887
637.789829	14136.640550
638.134845	13973.138286
638.479808	13991.281399
638.824719	13944.179378
639.169577	13789.226912
