Dividing Wavelength (nm)	Counts (n)	Blue Motor Position (mm): 49.800000	Red Motor Position (mm): 0.000000	
326.493990	2130.164763
326.888308	2130.164763
327.282561	2130.164763
327.676750	2096.976327
328.070874	2093.868456
328.464933	2099.464137
328.858929	2107.945878
329.252859	2117.438371
329.646726	2126.356172
330.040528	2137.650877
330.434265	2157.268527
330.827938	2173.652277
331.221547	2192.556604
331.615091	2210.535879
332.008571	2231.139075
332.401986	2250.398803
332.795338	2268.869591
333.188625	2287.766356
333.581847	2306.771506
333.975006	2327.147850
334.368100	2341.847855
334.761129	2359.698580
335.154095	2378.008051
335.546996	2399.566546
335.939833	2426.783735
336.332606	2440.450303
336.725315	2452.934721
337.117960	2465.628346
337.510540	2470.407360
337.903056	2483.153918
338.295508	2488.225318
338.687896	2495.857625
339.080220	2506.582680
339.472480	2514.194822
339.864676	2517.136336
340.256807	2518.270595
340.648875	2525.252593
341.040879	2527.453057
341.432818	2527.001874
341.824694	2529.015815
342.216506	2529.391381
342.608253	2530.888603
342.999937	2529.081350
343.391557	2530.331556
343.783113	2527.069929
344.174605	2529.744261
344.566033	2521.628004
344.957397	2525.912984
345.348697	2522.419465
345.739934	2522.258148
346.131106	2520.891995
346.522215	2518.759587
346.913260	2515.588701
347.304241	2514.726664
347.695159	2513.022754
348.086012	2513.536952
348.476802	2510.353463
348.867528	2508.581497
349.258191	2506.176867
349.648789	2507.210304
350.039324	2501.954901
350.429796	2503.384068
350.820203	2500.636639
351.210548	2501.470950
351.600828	2502.096053
351.991045	2501.120590
352.381198	2496.185300
352.771288	2498.579848
353.161314	2499.356186
353.551276	2499.779643
353.941175	2498.274858
354.331010	2498.743686
354.720782	2500.407267
355.110490	2499.484735
355.500135	2499.953563
355.889717	2500.876094
356.279235	2498.673110
356.668689	2500.220744
357.058080	2499.310816
357.447408	2496.238232
357.836672	2498.547081
358.225873	2496.850732
358.615010	2496.099601
359.004084	2500.709736
359.393095	2502.126300
359.782043	2503.799963
360.170927	2503.580673
360.559748	2506.859943
360.948505	2503.797443
361.337199	2506.897752
361.725830	2509.562002
362.114398	2507.716940
362.502903	2507.069151
362.891344	2508.616786
363.279722	2507.296003
363.668037	2509.607372
364.056289	2510.272805
364.444478	2511.286077
364.832603	2511.684328
365.220665	2513.519308
365.608665	2512.276663
365.996601	2514.547703
366.384474	2514.527538
366.772284	2514.154493
367.160031	2518.900739
367.547715	2517.532066
367.935336	2520.508868
368.322893	2523.745288
368.710388	2524.713190
369.097820	2532.504293
369.485189	2535.198790
369.872495	2539.299768
370.259738	2548.378887
370.646918	2556.069167
371.034035	2560.790207
371.421090	2571.379151
371.808081	2582.878023
372.195010	2587.848601
372.581875	2605.185129
372.968678	2617.087293
373.355418	2625.735392
373.742096	2644.009575
374.128710	2654.966523
374.515262	2670.924295
374.901751	2688.548169
375.288177	2701.380426
375.674540	2723.374981
376.060841	2741.349215
376.447079	2761.435692
376.833254	2779.677107
377.219367	2793.265537
377.605417	2831.306084
377.991404	2838.870336
378.377329	2862.667102
378.763191	2879.290307
379.148991	2917.038467
379.534727	2940.615944
379.920402	2971.596355
380.306013	2981.298055
380.691563	3035.679503
381.077049	3053.704148
381.462474	3072.164853
381.847835	3112.577263
382.233134	3136.618526
382.618371	3134.357568
383.003545	3204.560677
383.388657	3210.594938
383.773706	3243.075092
384.158693	3261.694594
384.543618	3287.517905
384.928480	3321.384376
385.313280	3368.965307
385.698017	3370.210472
386.082692	3423.069490
386.467305	3425.811878
386.851856	3461.926704
387.236344	3479.462358
387.620770	3515.660363
388.005133	3536.361861
388.389435	3564.007549
388.773674	3580.051021
389.157851	3619.394706
389.541965	3635.450781
389.926018	3600.266048
390.310008	3669.995288
390.693936	3692.234338
391.077802	3731.129361
391.461606	3718.997824
391.845348	3784.668935
392.229027	3782.105508
392.612645	3795.583033
392.996200	3871.737224
393.379694	3908.764499
393.763125	3978.004747
394.146494	3945.441414
394.529801	4006.255373
394.913047	4056.039288
395.296230	4019.259029
395.679351	4076.516455
396.062410	4099.143674
396.445408	4080.070468
396.828343	4116.938947
397.211217	4140.385353
397.594028	4058.824525
397.976778	4123.628558
398.359466	4150.628978
398.742092	4181.795912
399.124656	4102.007049
399.507158	4183.577960
399.889598	4208.493863
400.271977	4269.806896
400.654294	4240.779932
401.036549	4249.682610
401.418742	4217.094071
401.800874	4320.898990
402.182944	4338.041434
402.564952	4403.979726
402.946898	4393.189137
403.328783	4388.402561
403.710606	4299.640445
404.092367	4496.535311
404.474067	4460.324703
404.855705	4468.841732
405.237282	4395.550917
405.618797	4509.735572
406.000250	4539.793452
406.381642	4622.707830
406.762972	4582.928085
407.144240	4592.493674
407.525447	4594.467286
407.906593	4653.065658
408.287677	4698.793965
408.668700	4623.680773
409.049661	4674.465357
409.430560	4717.151327
409.811399	4642.345645
410.192176	4805.293381
410.572891	4741.232919
410.953545	4846.741748
411.334138	4727.089962
411.714669	4796.037823
412.095139	4692.157286
412.475547	4833.975026
412.855894	4813.802849
413.236180	4824.580836
413.616405	4778.217344
413.996568	4859.654664
414.376670	4806.898989
414.756711	4763.313172
415.136691	4790.618582
415.516609	4871.735789
415.896466	4905.491355
416.276262	4942.432930
416.655997	4918.888221
417.035670	5100.457980
417.415283	5195.362742
417.794834	5140.144464
418.174324	5093.972536
418.553753	4996.136342
418.933121	5182.134755
419.312428	5248.922481
419.691674	5190.992062
420.070859	5314.361699
420.449983	5227.915993
420.829045	5343.232387
421.208047	5253.038583
421.586988	5321.338656
421.965867	5328.628165
422.344686	5462.445594
422.723444	5320.426207
423.102141	5142.312160
423.480777	5442.714518
423.859352	5206.788518
424.237866	5465.172858
424.616319	5459.831755
424.994712	5568.491306
425.373044	5444.002532
425.751314	5585.885807
426.129524	5388.333070
426.507673	5582.909006
426.885762	5667.900339
427.263789	5597.276294
427.641756	5477.647193
428.019662	5601.261327
428.397508	5609.123006
428.775292	5554.101332
429.153016	5659.373227
429.530679	5582.672072
429.908282	5665.137787
430.285824	5538.619949
430.663305	5810.532226
431.040726	5551.001023
431.418086	5544.739910
431.795385	5649.943749
432.172624	5666.216594
432.549802	5660.958670
432.926920	5665.856151
433.303977	5676.707235
433.680974	5714.654521
434.057910	5733.027006
434.434786	5740.303911
434.811601	5712.754006
435.188355	5940.278923
435.565050	5815.412063
435.941683	5798.912366
436.318257	6013.219378
436.694770	5997.964846
437.071222	6034.805598
437.447614	5965.567871
437.823946	5877.259458
438.200218	6030.747470
438.576429	5893.670935
438.952580	5999.220093
439.328670	6039.393048
439.704700	5945.239418
440.080670	5931.630823
440.456580	6202.000507
440.832429	6083.235963
441.208218	5933.289363
441.583947	6088.458599
441.959616	6093.199804
442.335224	6017.350603
442.710773	6159.990051
443.086261	6183.877559
443.461689	5975.924922
443.837057	6128.818077
444.212365	6280.970182
444.587612	6169.893398
444.962800	6330.018088
445.337927	6310.967568
445.712995	5919.027939
446.088002	6496.151834
446.462949	6326.426266
446.837837	6258.229537
447.212664	6428.872595
447.587431	6574.566982
447.962139	7117.446319
448.336786	8042.235910
448.711374	7780.703369
449.085901	6858.157092
449.460369	6775.794720
449.834776	6711.610749
450.209124	7102.216993
450.583412	7247.218222
450.957640	7395.244143
451.331808	7163.487177
451.705917	6713.866666
452.079965	6635.083513
452.453954	6845.513878
452.827883	6723.724642
453.201752	6821.344066
453.575562	6627.688141
453.949311	6821.102090
454.323001	6714.274999
454.696632	6789.252080
455.070202	6927.621671
455.443713	7081.949034
455.817164	7183.099786
456.190556	7266.694720
456.563888	7337.654001
456.937160	7387.044706
457.310373	7043.260699
457.683526	7062.190232
458.056619	6950.692512
458.429653	6941.026099
458.802628	6878.679629
459.175542	6984.778273
459.548398	7341.225659
459.921194	7505.116091
460.293930	7504.014599
460.666607	8034.089405
461.039224	8341.685489
461.411782	8466.098646
461.784280	8481.118764
462.156719	8375.501549
462.529099	8254.884382
462.901419	7836.282090
463.273680	7732.298210
463.645882	7751.099193
464.018024	7612.371680
464.390106	7784.706045
464.762130	8172.338008
465.134094	8641.087178
465.505999	9670.047172
465.877845	10885.529858
466.249631	11542.024200
466.621358	11153.119345
466.993026	10525.926710
467.364634	10268.948852
467.736184	9901.892358
468.107674	9567.835257
468.479105	9599.181152
468.850477	9366.063074
469.221790	9133.431468
469.593043	8806.386613
469.964238	8670.910644
470.335373	8680.750977
470.706449	8741.385975
471.077467	8725.261844
471.448425	10036.965034
471.819324	11107.443971
472.190164	11128.057249
472.560945	9874.551660
472.931667	9091.468904
473.302330	8954.528480
473.672934	8600.944470
474.043479	8955.768604
474.413965	8898.589317
474.784393	8777.052138
475.154761	8933.159029
475.525070	9029.913895
475.895321	8848.049229
476.265513	9031.191827
476.635645	9200.907313
477.005719	9199.601654
477.375734	9316.594232
477.745691	9556.351509
478.115588	9684.971508
478.485427	9928.365977
478.855207	10464.059150
479.224928	11280.290013
479.594591	11913.302660
479.964194	11719.666900
480.333739	11660.733291
480.703226	11572.762636
481.072653	11671.473469
481.442022	11908.395097
481.811333	12093.939805
482.180584	11896.369424
482.549777	11609.008532
482.918912	11434.526635
483.287988	11454.792074
483.657005	11461.973198
484.025964	11146.044086
484.394864	11274.744744
484.763706	11247.179714
485.132489	11009.877479
485.501213	10968.015738
485.869879	11046.264528
486.238487	10884.327543
486.607036	11002.446819
486.975527	10777.293764
487.343959	10972.600667
487.712333	11016.219251
488.080648	10948.350197
488.448905	10987.015847
488.817104	10928.364542
489.185244	11196.896725
489.553326	11349.885662
489.921350	11888.278372
490.289315	12957.917957
490.657222	13290.319039
491.025070	13198.814535
491.392861	13079.840784
491.760593	12697.991024
492.128267	12341.412568
492.495883	12022.378106
492.863440	11676.880107
493.230939	11339.359733
493.598380	11280.937801
493.965763	11141.852367
494.333088	11042.597088
494.700354	10959.720519
495.067563	11021.514983
495.434713	10857.241423
495.801805	10986.942750
496.168839	10908.754454
496.535815	10840.963537
496.902733	10837.459936
497.269593	10780.620926
497.636395	10876.044927
498.003139	10865.614780
498.369825	10737.022507
498.736453	10896.658205
499.103023	10816.140896
499.469535	10840.560245
499.835989	10838.770636
500.202385	10796.137598
500.568723	10649.145113
500.935003	10874.338497
501.301226	10680.876656
501.667390	10931.658936
502.033497	11028.597804
502.399546	10893.656198
502.765537	10800.389811
503.131470	10869.332631
503.497345	11044.636235
503.863163	10660.034005
504.228923	10970.559000
504.594625	11029.041426
504.960269	10781.044383
505.325856	11001.826757
505.691385	10787.444128
506.056856	10951.049735
506.422270	10972.235184
506.787625	10857.667401
507.152924	10983.928140
507.518164	10956.773965
507.883347	10879.742613
508.248472	10799.033740
508.613540	11034.402693
508.978550	10917.523541
509.343503	10885.993644
509.708398	11010.976451
510.073236	11129.007507
510.438016	11130.461879
510.802738	11077.650752
511.167403	11136.009669
511.532010	11029.653926
511.896561	11259.790161
512.261053	11337.524753
512.625488	11200.256654
512.989866	11187.684017
513.354186	11171.890082
513.718449	11074.810062
514.082655	11261.602456
514.446803	11162.354739
514.810894	11283.544078
515.174927	11148.718418
515.538904	11174.438385
515.902822	11327.160141
516.266684	11207.679753
516.630488	11153.376444
516.994235	11206.064064
517.357925	11269.121337
517.721558	11365.427540
518.085133	11372.280988
518.448651	11380.195600
518.812112	11265.879875
519.175516	11280.368151
519.538863	11400.609752
519.902152	11322.318112
520.265385	11476.514406
520.628560	11387.497711
520.991678	11369.720082
521.354739	11431.065883
521.717743	11365.374608
522.080690	11337.202119
522.443580	11480.701084
522.806413	11443.046185
523.169189	11466.510236
523.531908	11524.793536
523.894569	11340.070536
524.257174	11350.299037
524.619722	11470.379322
524.982213	11414.309088
525.344647	11471.443005
525.707025	11415.103070
526.069345	11510.133861
526.431608	11428.590677
526.793815	11543.450847
527.155964	11320.150416
527.518057	11378.043027
527.880093	11335.596512
528.242072	11400.912222
528.603995	11300.497478
528.965860	11224.612989
529.327669	11276.131061
529.689421	11219.211393
530.051117	11192.402537
530.412755	11296.091510
530.774337	11185.833913
531.135862	11159.594708
531.497331	11195.321365
531.858743	11038.619618
532.220098	11211.130423
532.581396	11082.679303
532.942638	11062.451673
533.303824	11030.150480
533.664953	11040.142047
534.026025	10954.414705
534.387040	11055.590662
534.747999	11059.424460
535.108902	11118.453851
535.469748	10872.135512
535.830537	10976.389094
536.191270	10962.349481
536.551947	10975.330452
536.912567	10976.358847
537.273131	10903.957796
537.633638	10883.566329
537.994089	10868.533608
538.354483	10820.582153
538.714821	10968.063629
539.075103	10969.495317
539.435328	10940.773343
539.795497	10769.474935
540.155609	10917.591597
540.515665	11013.174394
540.875665	10739.182641
541.235609	10811.124948
541.595496	10810.028497
541.955328	10957.920827
542.315102	10851.736483
542.674821	10796.664398
543.034483	10793.120467
543.394090	10796.359408
543.753640	10721.634385
544.113134	10957.109202
544.472571	10806.880296
544.831953	10948.997985
545.191278	10755.079920
545.550548	10776.560277
545.909761	10926.121229
546.268918	10895.854141
546.628019	10986.350414
546.987064	10838.528660
547.346053	10757.817267
547.704986	10866.502023
548.063863	10846.778508
548.422684	10844.348672
548.781449	10760.539490
549.140158	10864.324244
549.498811	10732.881199
549.857408	10598.494120
550.215949	10824.244551
550.574434	10678.736686
550.932864	10780.497418
551.291237	10832.461632
551.649555	10788.727101
552.007817	10794.526949
552.366022	10761.714078
552.724173	10750.560526
553.082267	10738.242466
553.440305	10874.159536
553.798288	10668.014152
554.156215	10831.922228
554.514086	10802.862497
554.871902	10650.115535
555.229661	10688.743377
555.587365	10668.462815
555.945014	10561.855014
556.302606	10683.540906
556.660143	10577.487632
557.017625	10732.356919
557.375050	10625.928079
557.732421	10766.470407
558.089735	10679.535709
558.446994	10678.119145
558.804197	10714.748169
559.161345	10712.819927
559.518437	10566.296270
559.875474	10655.214662
560.232455	10681.373210
560.589381	10631.460745
560.946251	10627.589139
561.303065	10739.288506
561.659825	10667.048771
562.016528	10602.201888
562.373177	10483.336522
562.729770	10603.263051
563.086307	10515.005050
563.442789	10603.278175
563.799216	10488.533952
564.155587	10528.348985
564.511904	10486.686369
564.868164	10478.194545
565.224370	10493.607873
565.580520	10418.436707
565.936615	10424.289487
566.292654	10297.912801
566.648638	10426.845352
567.004567	10382.440348
567.360441	10370.439882
567.716260	10280.634246
568.072023	10377.195028
568.427732	10318.311830
568.783385	10228.349919
569.138982	10301.479418
569.494525	10320.227469
569.850013	10197.810609
570.205445	10271.429099
570.560823	10166.983953
570.916145	10088.286501
571.271412	10160.417851
571.626625	10098.245300
571.981782	10079.192259
572.336884	10049.429287
572.691931	10056.189474
573.046923	10001.404735
573.401860	9962.033323
573.756743	9886.166478
574.111570	9941.268811
574.466342	9921.096633
574.821059	9954.713568
575.175722	9838.351134
575.530330	9850.790181
575.884882	9841.524541
576.239380	9773.070713
576.593823	9755.754349
576.948211	9765.972768
577.302544	9641.932657
577.656823	9664.759002
578.011047	9664.466615
578.365216	9633.445874
578.719330	9562.201768
579.073389	9574.532430
579.427394	9517.272484
579.781344	9493.395059
580.135239	9442.713819
580.489080	9454.842835
580.842866	9357.220891
581.196597	9358.289615
581.550273	9402.956759
581.903895	9369.412921
582.257463	9433.488507
582.610975	9316.639602
582.964434	9333.940842
583.317837	9259.745140
583.671186	9243.247964
584.024481	9235.224968
584.377721	9155.652875
584.730906	9130.678998
585.084037	9164.144698
585.437113	9100.651366
585.790135	9122.973595
586.143103	9020.865024
586.496016	8991.402000
586.848874	9054.895333
587.201679	9039.509731
587.554428	8923.754757
587.907124	8974.546902
588.259765	8944.650339
588.612352	8942.923744
588.964884	8818.989497
589.317362	8830.253956
589.669786	8832.320829
590.022155	8883.944765
590.374470	8902.670131
590.726731	8835.380809
591.078937	8686.603756
591.431090	8802.699009
591.783188	8675.422477
592.135232	8664.208430
592.487222	8669.453751
592.839157	8718.887305
593.191038	8653.022110
593.542866	8595.290816
593.894639	8495.140733
594.246358	8548.387921
594.598022	8567.090601
594.949633	8463.333573
595.301190	8437.601003
595.652692	8468.838513
596.004141	8575.945388
596.355535	8348.823763
596.706876	8331.310795
597.058162	8269.551619
597.409395	8342.489553
597.760573	8409.340295
598.111698	8316.855286
598.462768	8302.145199
598.813785	8268.016588
599.164748	8236.902586
599.515657	8226.606029
599.866511	8137.856516
600.217312	8265.775795
600.568060	8121.117365
600.918753	8223.684681
601.269392	8200.124848
601.619978	8107.516332
601.970510	8172.365735
602.320988	8164.315012
602.671412	8221.590081
603.021783	8160.355186
603.372100	8135.676217
603.722363	8135.512379
604.072572	8110.099923
604.422728	8122.649875
604.772830	8051.032723
605.122878	8056.552787
605.472872	8046.571302
605.822813	8083.860717
606.172701	8028.234105
606.522534	8101.905527
606.872314	8101.532482
607.222041	8073.717916
607.571714	8122.390256
607.921333	8081.037671
608.270899	8090.071419
608.620411	8179.425871
608.969870	8080.596570
609.319276	8076.372083
609.668627	8095.004188
610.017926	8132.578428
610.367171	8176.587701
610.716362	8149.985532
611.065500	8140.939182
611.414585	8167.576638
611.763616	8162.898448
612.112594	8140.253585
612.461518	8156.163466
612.810389	8221.345585
613.159207	8151.931417
613.507971	8109.462217
613.856682	8228.970331
614.205340	8178.195829
614.553945	8257.614167
614.902496	8155.374526
615.250994	8210.524749
615.599439	8188.162190
615.947830	8205.511321
616.296169	8179.025099
616.644454	8192.033796
616.992686	8192.104372
617.340864	8245.404492
617.688990	8147.681725
618.037063	8241.623627
618.385082	8189.316614
618.733048	8273.166126
619.080961	8213.257054
619.428821	8231.974858
619.776628	8234.225733
620.124382	8185.079525
620.472083	8164.365423
620.819731	8200.008902
621.167326	8091.550997
621.514868	8097.935619
621.862357	7983.987898
622.209793	8005.274170
622.557176	7937.342101
622.904506	7906.293635
623.251783	7837.920465
623.599007	7793.248280
623.946179	7800.699106
624.293297	7759.480111
624.640363	7678.194026
624.987376	7651.057495
625.334336	7607.403623
625.681243	7554.068215
626.028097	7542.488685
626.374899	7516.078080
626.721647	7513.834767
627.068343	7443.389683
627.414987	7416.734582
627.761577	7369.035184
628.108115	7407.347953
628.454600	7300.480533
628.801032	7347.370825
629.147412	7312.090310
629.493739	7297.657487
629.840014	7235.177426
630.186236	7294.078267
630.532405	7176.783220
630.878521	7228.795325
631.224585	7186.328645
631.570597	7114.159487
631.916556	7138.465410
632.262462	7137.265615
632.608316	7100.918896
632.954117	7073.237920
633.299866	7069.817497
633.645562	7058.973976
633.991206	6979.049002
634.336797	6921.105980
634.682336	6879.370267
635.027823	6840.581109
635.373257	6837.626993
635.718639	6765.770386
636.063968	6781.113137
636.409245	6672.015006
636.754470	6670.842938
637.099642	6631.753831
637.444762	6575.018165
637.789829	6587.079126
638.134845	6522.418766
638.479808	6511.129102
638.824719	6516.341655
639.169577	6440.706703
639.514383	6463.669159
639.859137	6386.841974
640.203839	6397.695579
640.548489	6381.410131
