Dividing Wavelength (nm)	Counts (n)	Blue Motor Position (mm): 26.600000	Red Motor Position (mm): 0.000000	
326.493990	2203.332070
326.888308	2203.332070
327.282561	2203.332070
327.676750	2162.375216
328.070874	2157.790287
328.464933	2159.824392
328.858929	2164.003509
329.252859	2167.900321
329.646726	2176.180416
330.040528	2191.944104
330.434265	2202.167564
330.827938	2220.580378
331.221547	2236.805332
331.615091	2253.544483
332.008571	2273.608276
332.401986	2292.883127
332.795338	2310.764100
333.188625	2328.781184
333.581847	2347.320027
333.975006	2367.179653
334.368100	2383.999462
334.761129	2404.915210
335.154095	2421.475400
335.546996	2446.131684
335.939833	2482.642240
336.332606	2500.808038
336.725315	2510.809687
337.117960	2525.171935
337.510540	2532.801721
337.903056	2547.741181
338.295508	2553.397355
338.687896	2563.363716
339.080220	2572.644481
339.472480	2577.236972
339.864676	2583.737540
340.256807	2589.602922
340.648875	2593.421596
341.040879	2594.278592
341.432818	2597.930908
341.824694	2602.568770
342.216506	2602.795622
342.608253	2604.713781
342.999937	2603.566918
343.391557	2602.974583
343.783113	2603.546754
344.174605	2602.767895
344.566033	2602.639346
344.957397	2601.613471
345.348697	2597.928388
345.739934	2595.097780
346.131106	2596.998295
346.522215	2593.497213
346.913260	2593.315732
347.304241	2592.274734
347.695159	2586.782397
348.086012	2586.787438
348.476802	2584.728126
348.867528	2579.931468
349.258191	2575.880901
349.648789	2576.145562
350.039324	2573.614903
350.429796	2577.196642
350.820203	2573.758576
351.210548	2573.299831
351.600828	2572.319326
351.991045	2575.951478
352.381198	2568.672051
352.771288	2570.985941
353.161314	2568.359500
353.551276	2567.608368
353.941175	2567.948646
354.331010	2569.788667
354.720782	2566.877401
355.110490	2568.397308
355.500135	2567.149623
355.889717	2570.176836
356.279235	2567.232802
356.668689	2570.116342
357.058080	2568.089798
357.447408	2570.680951
357.836672	2569.483677
358.225873	2568.601475
358.615010	2569.637432
359.004084	2568.195662
359.393095	2566.942936
359.782043	2572.483164
360.170927	2570.012998
360.559748	2572.586507
360.948505	2572.949470
361.337199	2574.731518
361.725830	2572.949470
362.114398	2575.928792
362.502903	2575.840572
362.891344	2576.082547
363.279722	2574.295458
363.668037	2576.639595
364.056289	2576.198494
364.444478	2581.930286
364.832603	2577.809143
365.220665	2580.246541
365.608665	2578.726633
365.996601	2579.986921
366.384474	2581.153948
366.772284	2579.681931
367.160031	2579.719740
367.547715	2583.523291
367.935336	2581.625296
368.322893	2581.809298
368.710388	2578.396437
369.097820	2579.142528
369.485189	2577.675552
369.872495	2583.500605
370.259738	2581.045563
370.646918	2581.216963
371.034035	2584.932293
371.421090	2584.516398
371.808081	2583.626634
372.195010	2584.178641
372.581875	2583.828280
372.968678	2584.677715
373.355418	2583.727457
373.742096	2586.782397
374.128710	2585.131419
374.515262	2585.990935
374.901751	2583.853486
375.288177	2589.003025
375.674540	2587.064701
376.060841	2588.214084
376.447079	2584.874320
376.833254	2586.462283
377.219367	2589.504620
377.605417	2589.295412
377.991404	2587.861203
378.377329	2589.688622
378.763191	2588.105699
379.148991	2590.898499
379.534727	2588.914805
379.920402	2587.052098
380.306013	2586.656368
380.691563	2591.130392
381.077049	2589.960844
381.462474	2591.921853
381.847835	2589.078642
382.233134	2591.536205
382.618371	2591.047213
383.003545	2591.526122
383.388657	2591.269023
383.773706	2594.621391
384.158693	2594.636514
384.543618	2595.211206
384.928480	2594.414703
385.313280	2592.047882
385.698017	2594.480238
386.082692	2592.539394
386.467305	2594.674323
386.851856	2593.081318
387.236344	2595.271700
387.620770	2591.009404
388.005133	2591.543766
388.389435	2593.119127
388.773674	2591.926894
389.157851	2595.551484
389.541965	2595.362440
389.926018	2599.367637
390.310008	2598.124993
390.693936	2599.150867
391.077802	2599.765888
391.461606	2597.401587
391.845348	2597.711618
392.229027	2596.249683
392.612645	2596.380753
392.996200	2598.099787
393.379694	2599.072730
393.763125	2600.779160
394.146494	2600.499376
394.529801	2601.401743
394.913047	2599.717997
395.296230	2601.888214
395.679351	2601.865529
396.062410	2600.484253
396.445408	2602.974583
396.828343	2602.646908
397.211217	2601.547936
397.594028	2603.075406
397.976778	2601.195055
398.359466	2603.776126
398.742092	2604.479367
399.124656	2602.412494
399.507158	2602.551126
399.889598	2607.982969
400.271977	2603.995416
400.654294	2604.630602
401.036549	2605.290993
401.418742	2604.673452
401.800874	2606.019440
402.182944	2604.696137
402.564952	2603.619850
402.946898	2607.380551
403.328783	2606.631940
403.710606	2605.911055
404.092367	2607.869543
404.474067	2605.898452
404.855705	2608.260232
405.237282	2606.740325
405.618797	2609.981787
406.000250	2611.700820
406.381642	2608.464399
406.762972	2609.391972
407.144240	2607.625047
407.525447	2609.187805
407.906593	2602.813266
408.287677	2610.294338
408.668700	2610.017075
409.049661	2611.980604
409.430560	2610.944647
409.811399	2610.614451
410.192176	2613.003958
410.572891	2612.305758
410.953545	2611.237034
411.334138	2614.307097
411.714669	2610.894235
412.095139	2613.906325
412.475547	2614.362549
412.855894	2617.515791
413.236180	2615.859772
413.616405	2617.175513
413.996568	2613.934051
414.376670	2614.889350
414.756711	2615.854731
415.136691	2614.347426
415.516609	2616.497478
415.896466	2616.547889
416.276262	2614.821294
416.655997	2616.310955
417.035670	2617.183075
417.415283	2620.837911
417.794834	2617.982098
418.174324	2616.709206
418.553753	2615.819443
418.933121	2617.770369
419.312428	2620.051491
419.691674	2621.125257
420.070859	2621.843622
420.449983	2619.663322
420.829045	2621.173148
421.208047	2622.239352
421.586988	2620.293467
421.965867	2622.972840
422.344686	2622.627521
422.723444	2624.185237
423.102141	2620.971502
423.480777	2622.927470
423.859352	2623.194651
424.237866	2625.143057
424.616319	2625.886627
424.994712	2626.098355
425.373044	2624.510392
425.751314	2624.724641
426.129524	2624.371760
426.507673	2625.725310
426.885762	2621.543673
427.263789	2629.390229
427.641756	2628.205558
428.019662	2629.029786
428.397508	2628.291257
428.775292	2631.537760
429.153016	2631.373923
429.530679	2631.545322
429.908282	2633.458440
430.285824	2632.041876
430.663305	2631.507513
431.040726	2633.322329
431.418086	2634.602782
431.795385	2638.139151
432.172624	2633.904582
432.549802	2635.391722
432.926920	2636.372227
433.303977	2636.614202
433.680974	2639.631333
434.057910	2639.369193
434.434786	2641.511683
434.811601	2636.815848
435.188355	2642.804739
435.565050	2642.368679
435.941683	2644.206180
436.318257	2647.150214
436.694770	2645.501757
437.071222	2650.679022
437.447614	2650.285812
437.823946	2654.699342
438.200218	2652.932417
438.576429	2657.915598
438.952580	2661.172183
439.328670	2662.520692
439.704700	2663.972544
440.080670	2664.680826
440.456580	2673.326405
440.832429	2678.846469
441.208218	2682.208918
441.583947	2688.308714
441.959616	2693.881710
442.335224	2700.604089
442.710773	2711.624051
443.086261	2722.775083
443.461689	2725.139384
443.837057	2743.753845
444.212365	2761.997781
444.587612	2767.553132
444.962800	2786.984260
445.337927	2805.013947
445.712995	2810.171047
446.088002	2860.070908
446.462949	2877.626727
446.837837	2906.651170
447.212664	2934.067485
447.587431	2985.663695
447.962139	3047.869013
448.336786	3202.902137
448.711374	3297.663227
449.085901	3222.736557
449.460369	3243.846389
449.834776	3262.483535
450.209124	3383.756052
450.583412	3487.213132
450.957640	3642.112666
451.331808	3638.041934
451.705917	3611.946402
452.079965	3612.261474
452.453954	3791.025830
452.827883	3827.942200
453.201752	3946.162299
453.575562	3970.069971
453.949311	4106.730610
454.323001	4192.193292
454.696632	4323.722037
455.070202	4469.897854
455.443713	4616.121563
455.817164	4821.898942
456.190556	4928.121095
456.563888	5131.844204
456.937160	5281.397594
457.310373	5243.384774
457.683526	5363.565882
458.056619	5376.241863
458.429653	5523.067989
458.802628	5513.978789
459.175542	5728.394185
459.548398	6117.132682
459.921194	6376.308483
460.293930	6529.516711
460.666607	6979.079249
461.039224	7481.276474
461.411782	7928.595699
461.784280	8063.282727
462.156719	8255.083508
462.529099	8273.453472
462.901419	8028.234105
463.273680	8106.787885
463.645882	8198.864560
464.018024	8227.263900
464.390106	8488.443560
464.762130	9001.401129
465.134094	9482.543975
465.505999	10560.929962
465.877845	12337.099861
466.249631	14054.943610
466.621358	14216.174834
466.993026	13755.922529
467.364634	13695.521944
467.736184	13176.845187
468.107674	12907.486254
468.479105	13175.012727
468.850477	13076.107809
469.221790	13013.111030
469.593043	12778.525977
469.964238	12652.290444
470.335373	12598.312289
470.706449	13047.980691
471.077467	12883.820557
471.448425	14235.971445
471.819324	17118.472967
472.190164	18885.387308
472.560945	16688.366762
472.931667	15134.305060
473.302330	14830.719214
473.672934	14581.918107
474.043479	15044.393561
474.413965	15052.071238
474.784393	14924.895530
475.154761	15570.122893
475.525070	15750.795326
475.895321	15583.335757
476.265513	16186.469485
476.635645	16779.097449
477.005719	16762.083555
477.375734	17048.373203
477.745691	17605.539170
478.115588	18140.312331
478.485427	18743.350278
478.855207	19752.979967
479.224928	21330.528405
479.594591	23388.534092
479.964194	23642.439368
480.333739	24047.596902
480.703226	23801.601197
481.072653	23640.652278
481.442022	24225.973090
481.811333	25140.377904
482.180584	25231.703447
482.549777	24480.614373
482.918912	24252.766823
483.287988	24428.904738
483.657005	24256.908130
484.025964	24050.508168
484.394864	24107.059832
484.763706	23920.327932
485.132489	23447.031642
485.501213	23654.764989
485.869879	23659.874198
486.238487	23490.781295
486.607036	23724.753848
486.975527	23454.653866
487.343959	23833.741074
487.712333	23853.643549
488.080648	23563.978849
488.448905	24055.254415
488.817104	23850.273538
489.185244	24518.213819
489.553326	24549.340424
489.921350	25498.118345
490.289315	27701.425210
490.657222	29551.639577
491.025070	30042.595029
491.392861	29908.172662
491.760593	29108.423851
492.128267	28272.441747
492.495883	27273.259849
492.863440	26414.196822
493.230939	25562.239302
493.598380	25417.595995
493.965763	25041.299066
494.333088	24622.580827
494.700354	24551.525764
495.067563	24465.919410
495.434713	24210.242169
495.801805	24358.530230
496.168839	24203.716396
496.535815	24025.398181
496.902733	24239.679987
497.269593	23909.537342
497.636395	24107.223670
498.003139	24102.585808
498.369825	23863.587225
498.736453	24042.394431
499.103023	23938.914666
499.469535	23961.806546
499.835989	24162.015971
500.202385	24200.106929
500.568723	23689.559032
500.935003	23979.022086
501.301226	23553.432755
501.667390	24377.900864
502.033497	24636.073476
502.399546	24360.884449
502.765537	23956.258756
503.131470	24347.979095
503.497345	24469.838907
503.863163	23676.888092
504.228923	24306.692045
504.594625	24479.979188
504.960269	23998.110415
505.325856	24511.685525
505.691385	23923.150978
506.056856	24516.542677
506.422270	24487.702236
506.787625	24083.149640
507.152924	24493.489480
507.518164	24515.814230
507.883347	24311.523991
508.248472	24016.238405
508.613540	24793.912003
508.978550	24572.691048
509.343503	24559.493308
509.708398	24830.684699
510.073236	24994.345759
510.438016	25191.003691
510.802738	24887.092690
511.167403	25134.510001
511.532010	24811.782893
511.896561	25613.200326
512.261053	25576.394862
512.625488	25416.224801
512.989866	25315.580685
513.354186	25172.210270
513.718449	25254.928043
514.082655	25643.865665
514.446803	25387.701952
514.810894	25834.055796
515.174927	25320.132847
515.538904	25346.959347
515.902822	25841.907393
516.266684	25592.067809
516.630488	25503.099005
516.994235	25486.611912
517.357925	25785.935462
517.721558	25975.535779
518.085133	26055.795989
518.448651	25993.021021
518.812112	25689.480545
519.175516	25887.484465
519.538863	26048.418261
519.902152	25840.591652
520.265385	26141.198177
520.628560	25914.265595
520.991678	25930.172956
521.354739	26003.269687
521.717743	26059.881845
522.080690	25859.511103
522.443580	26186.533273
522.806413	26191.466042
523.169189	26285.690249
523.531908	26345.070000
523.894569	25932.600272
524.257174	26010.564237
524.619722	26208.051438
524.982213	25878.128084
525.344647	25963.005991
525.707025	26077.001603
526.069345	26084.883447
526.431608	26031.152309
526.793815	26224.596505
527.155964	25679.151221
527.518057	25851.878796
527.880093	25764.049293
528.242072	26004.769430
528.603995	25710.945778
528.965860	25505.057493
529.327669	25555.300153
529.689421	25555.930298
530.051117	25381.090479
530.412755	25552.557766
530.774337	25366.692944
531.135862	25227.678085
531.497331	25439.348574
531.858743	24973.591329
532.220098	25469.038449
532.581396	25138.731967
532.942638	25096.303096
533.303824	25178.224366
533.664953	25205.169333
534.026025	24866.355904
534.387040	25096.194711
534.747999	25169.518293
535.108902	25319.971530
535.469748	24811.399765
535.830537	25006.898232
536.191270	25126.865091
536.551947	25011.132801
536.912567	24669.866851
537.273131	24985.914429
537.633638	24707.617531
537.994089	24916.371712
538.354483	24463.711385
538.714821	24956.582476
539.075103	24996.087478
539.435328	24794.471571
539.795497	24341.455842
540.155609	24748.345013
540.515665	25038.309662
540.875665	24283.449805
541.235609	24560.642691
541.595496	24534.085892
541.955328	24878.084148
542.315102	24800.485667
542.674821	24373.217632
543.034483	24244.126285
543.394090	24405.380193
543.753640	24189.555794
544.113134	24834.921789
544.472571	24419.865949
544.831953	24714.886875
545.191278	24321.717204
545.550548	24254.566514
545.909761	24470.509381
546.268918	24700.958167
546.628019	24649.767770
546.987064	24359.848492
547.346053	24121.674137
547.704986	24251.398149
548.063863	24401.790892
548.422684	24400.825511
548.781449	23954.622902
549.140158	24353.904972
549.498811	23929.825466
549.857408	23663.473582
550.215949	24112.589978
550.574434	23782.217961
550.932864	24008.724565
551.291237	24148.493076
551.649555	24019.270659
552.007817	24073.029523
552.366022	23937.140180
552.724173	23993.091947
553.082267	23921.817593
553.440305	24383.869590
553.798288	23664.262522
554.156215	24186.195865
554.514086	24262.529017
554.871902	23632.941834
555.229661	23936.396610
555.587365	23791.077789
555.945014	23637.642710
556.302606	23899.608790
556.660143	23829.314941
557.017625	24097.864768
557.375050	23630.640547
557.732421	24024.432800
558.089735	23835.422298
558.446994	23892.223499
558.804197	23913.724021
559.161345	23862.195867
559.518437	23614.697898
559.875474	23816.210461
560.232455	23995.426001
560.589381	23824.482995
560.946251	23794.979642
561.303065	24116.534681
561.659825	24203.986097
562.016528	23811.033196
562.373177	23557.216141
562.729770	23901.169027
563.086307	23775.745119
563.442789	23943.179482
563.799216	23773.806796
564.155587	23778.172435
564.511904	23761.226596
564.868164	23690.685730
565.224370	23683.176932
565.580520	23586.313681
565.936615	23715.447878
566.292654	23392.504001
566.648638	23717.131623
567.004567	23523.838662
567.360441	23471.229180
567.716260	23198.495195
568.072023	23533.802502
568.427732	23282.334625
568.783385	23078.596392
569.138982	23317.030366
569.494525	23342.987267
569.850013	23094.944854
570.205445	23191.155275
570.560823	22992.375017
570.916145	22763.783896
571.271412	22922.643257
571.626625	22689.671373
571.981782	22798.343526
572.336884	22599.722065
572.691931	22738.873034
573.046923	22477.164053
573.401860	22360.113502
573.756743	22353.549920
574.111570	22276.475718
574.466342	22198.973019
574.821059	22295.445580
575.175722	21989.994507
575.530330	21978.293989
575.884882	22018.058611
576.239380	21914.956932
576.593823	21798.549128
576.948211	21785.041356
577.302544	21626.451697
577.656823	21493.947489
578.011047	21595.614959
578.365216	21463.776183
578.719330	21358.216943
579.073389	21246.371383
579.427394	21397.008621
579.781344	21172.445382
580.135239	21058.830377
580.489080	21024.873165
580.842866	20783.974067
581.196597	20970.693364
581.550273	20950.009510
581.903895	20850.010662
582.257463	21168.092346
582.610975	20689.767504
582.964434	20992.642548
583.317837	20714.023016
583.671186	20807.339815
584.024481	20759.925242
584.377721	20538.520286
584.730906	20584.311607
585.084037	20628.754419
585.437113	20526.000580
585.790135	20733.771736
586.143103	20208.763289
586.496016	20205.950326
586.848874	20452.981988
587.201679	20392.674664
587.554428	20052.500123
587.907124	20394.431506
588.259765	20176.489822
588.612352	20248.540514
588.964884	19822.273148
589.317362	19992.306226
589.669786	20040.802126
590.022155	20092.705846
590.374470	20275.689648
590.726731	20072.364790
591.078937	19829.224899
591.431090	19928.026473
591.783188	19673.493574
592.135232	19649.081787
592.487222	19747.346478
592.839157	19765.345918
593.191038	19654.256531
593.542866	19541.185971
593.894639	19252.915150
594.246358	19475.149376
594.598022	19389.389267
594.949633	19146.982863
595.301190	19097.138455
595.652692	19267.191697
596.004141	19506.608697
596.355535	18827.605603
596.706876	18846.381380
597.058162	18736.229648
597.409395	18963.593248
597.760573	19053.736641
598.111698	18830.368155
598.462768	18762.423483
598.813785	18725.002998
599.164748	18543.471048
599.515657	18577.614783
599.866511	18362.017236
600.217312	18734.671932
600.568060	18257.761134
600.918753	18564.711950
601.269392	18469.711406
601.619978	18247.991377
601.970510	18462.348801
602.320988	18402.774965
602.671412	18618.480897
603.021783	18513.022479
603.372100	18244.570955
603.722363	18385.637563
604.072572	18326.104056
604.422728	18463.805694
604.772830	18221.300988
605.122878	18166.107916
605.472872	18166.264191
605.822813	18157.474940
606.172701	18123.348849
606.522534	18321.372933
606.872314	18338.134770
607.222041	18179.877827
607.571714	18383.674033
607.921333	18220.691009
608.270899	18291.148696
608.620411	18478.273806
608.969870	18235.020489
609.319276	18245.347292
609.668627	18276.887271
610.017926	18410.757632
610.367171	18529.537299
610.716362	18566.947702
611.065500	18391.084529
611.414585	18522.134365
611.763616	18500.301127
612.112594	18452.715156
612.461518	18412.713600
612.810389	18608.451522
613.159207	18458.545250
613.507971	18366.481178
613.856682	18655.535898
614.205340	18587.739941
614.553945	18725.234892
614.902496	18463.258729
615.250994	18704.795533
615.599439	18651.795362
615.947830	18632.248288
616.296169	18676.933076
616.644454	18650.356113
616.992686	18620.310836
617.340864	18822.249377
617.688990	18594.434593
618.037063	18765.256612
618.385082	18603.922045
618.733048	18894.373165
619.080961	18750.407893
619.428821	18799.967477
619.776628	18686.269293
620.124382	18614.574003
620.472083	18640.399834
620.819731	18672.653136
621.167326	18366.304738
621.514868	18407.803516
621.862357	18168.676383
622.209793	18176.822888
622.557176	18017.106531
622.904506	17842.917022
623.251783	17746.333555
623.599007	17505.184920
623.946179	17465.158158
624.293297	17393.798105
624.640363	17148.694685
624.987376	17173.245104
625.334336	16982.376937
625.681243	16809.014177
626.028097	16821.831310
626.374899	16758.242196
626.721647	16613.644259
627.068343	16446.225020
627.414987	16379.591048
627.761577	16354.818818
628.108115	16392.632513
628.454600	16108.543329
628.801032	16217.515431
629.147412	16150.276521
629.493739	16162.627348
629.840014	15979.635984
630.186236	16085.855616
630.532405	15833.366905
630.878521	16047.530244
631.224585	15928.722851
631.570597	15748.544451
631.916556	15779.686179
632.262462	15762.488282
632.608316	15683.977352
632.954117	15621.288084
633.299866	15624.847138
633.645562	15539.412183
633.991206	15296.312622
634.336797	15162.772456
634.682336	15129.717610
635.027823	15016.997410
635.373257	14904.758641
635.718639	14799.295182
636.063968	14756.994860
636.409245	14508.922199
636.754470	14528.935580
637.099642	14379.409916
637.444762	14155.295339
