Dividing Wavelength (nm)	Counts (n)	Blue Motor Position (mm): 36.900000	Red Motor Position (mm): 0.000000	
326.493990	2129.451440
326.888308	2129.451440
327.282561	2129.451440
327.676750	2096.593199
328.070874	2093.709659
328.464933	2096.699064
328.858929	2103.701226
329.252859	2115.396703
329.646726	2124.833743
330.040528	2140.909983
330.434265	2153.306180
330.827938	2172.449962
331.221547	2191.437468
331.615091	2209.051259
332.008571	2230.939949
332.401986	2248.551220
332.795338	2267.687440
333.188625	2287.370626
333.581847	2305.977524
333.975006	2326.668940
334.368100	2343.834069
334.761129	2359.953159
335.154095	2377.327495
335.546996	2396.766185
335.939833	2423.824578
336.332606	2440.241095
336.725315	2452.881789
337.117960	2459.896554
337.510540	2468.093470
337.903056	2479.940182
338.295508	2488.162304
338.687896	2495.618170
339.080220	2503.961280
339.472480	2509.740963
339.864676	2515.908815
340.256807	2518.207581
340.648875	2523.205885
341.040879	2524.088087
341.432818	2527.435413
341.824694	2527.261493
342.216506	2528.635208
342.608253	2531.067564
342.999937	2529.376257
343.391557	2528.315094
343.783113	2524.806451
344.174605	2524.982892
344.566033	2522.185051
344.957397	2523.238652
345.348697	2521.038189
345.739934	2518.557941
346.131106	2519.694721
346.522215	2517.090965
346.913260	2515.994514
347.304241	2516.034843
347.695159	2509.940088
348.086012	2509.125942
348.476802	2506.819614
348.867528	2505.821466
349.258191	2502.700992
349.648789	2506.353308
350.039324	2501.362565
350.429796	2501.039931
350.820203	2499.146978
351.210548	2498.998264
351.600828	2497.173366
351.991045	2498.776453
352.381198	2496.651607
352.771288	2494.365444
353.161314	2496.475167
353.551276	2496.671772
353.941175	2495.056082
354.331010	2494.526761
354.720782	2492.875783
355.110490	2496.086998
355.500135	2493.150526
355.889717	2492.386791
356.279235	2494.652789
356.668689	2495.172028
357.058080	2496.767553
357.447408	2495.300578
357.836672	2493.730258
358.225873	2494.557008
358.615010	2492.903509
359.004084	2496.326453
359.393095	2497.611947
359.782043	2498.945332
360.170927	2502.287617
360.559748	2501.972545
360.948505	2501.715446
361.337199	2499.777122
361.725830	2502.330467
362.114398	2503.205107
362.502903	2501.213851
362.891344	2501.760816
363.279722	2502.312823
363.668037	2504.634274
364.056289	2505.251815
364.444478	2503.583193
364.832603	2504.215858
365.220665	2509.173833
365.608665	2506.743997
365.996601	2507.921106
366.384474	2510.368587
366.772284	2508.238699
367.160031	2507.553102
367.547715	2505.624861
367.935336	2508.261384
368.322893	2508.989831
368.710388	2510.789523
369.097820	2509.803977
369.485189	2507.169974
369.872495	2510.630727
370.259738	2510.020747
370.646918	2510.971004
371.034035	2508.820952
371.421090	2511.694410
371.808081	2511.109636
372.195010	2513.042919
372.581875	2510.290449
372.968678	2513.151303
373.355418	2513.025275
373.742096	2512.264060
374.128710	2514.396468
374.515262	2515.354288
374.901751	2514.431757
375.288177	2514.716582
375.674540	2515.066942
376.060841	2512.894205
376.447079	2516.506191
376.833254	2515.666839
377.219367	2512.775737
377.605417	2516.745646
377.991404	2510.318175
378.377329	2512.725326
378.763191	2513.736077
379.148991	2517.950482
379.534727	2518.429392
379.920402	2517.017868
380.306013	2517.227076
380.691563	2518.215142
381.077049	2517.237159
381.462474	2519.790503
381.847835	2518.583147
382.233134	2520.372756
382.618371	2519.724968
383.003545	2522.971471
383.388657	2519.306552
383.773706	2521.355781
384.158693	2520.808816
384.543618	2521.791841
384.928480	2522.754702
385.313280	2521.131450
385.698017	2523.498272
386.082692	2525.963396
386.467305	2522.789990
386.851856	2524.196472
387.236344	2526.172604
387.620770	2528.330218
388.005133	2526.447347
388.389435	2526.162522
388.773674	2525.212264
389.157851	2526.885927
389.541965	2527.642100
389.926018	2526.855680
390.310008	2525.386184
390.693936	2529.726617
391.077802	2532.791639
391.461606	2527.082532
391.845348	2528.095804
392.229027	2530.697039
392.612645	2533.381454
392.996200	2529.338448
393.379694	2531.574200
393.763125	2532.680733
394.146494	2531.659900
394.529801	2533.323481
394.913047	2532.423635
395.296230	2536.075951
395.679351	2534.573687
396.062410	2538.210879
396.445408	2538.924202
396.828343	2540.660880
397.211217	2542.241282
397.594028	2545.172713
397.976778	2553.230997
398.359466	2552.522715
398.742092	2557.818447
399.124656	2568.309088
399.507158	2578.638412
399.889598	2587.188209
400.271977	2598.682040
400.654294	2611.809205
401.036549	2623.096348
401.418742	2637.100674
401.800874	2656.153715
402.182944	2672.345901
402.564952	2693.032276
402.946898	2712.332333
403.328783	2732.940570
403.710606	2742.307034
404.092367	2786.815381
404.474067	2802.503452
404.855705	2829.191320
405.237282	2840.884277
405.618797	2886.521842
406.000250	2920.342944
406.381642	2967.820531
406.762972	2991.418172
407.144240	3023.056453
407.525447	3055.191288
407.906593	3103.130141
408.287677	3147.237717
408.668700	3161.504182
409.049661	3214.542162
409.430560	3263.763988
409.811399	3281.992800
410.192176	3375.105432
410.572891	3391.539594
410.953545	3477.216524
411.334138	3466.004998
411.714669	3535.532592
412.095139	3527.902805
412.475547	3637.898262
412.855894	3672.147861
413.236180	3718.828945
413.616405	3737.544229
413.996568	3825.966067
414.376670	3834.692305
414.756711	3847.610262
415.136691	3907.327770
415.516609	3992.588805
415.896466	4056.588774
416.276262	4123.799957
416.655997	4150.550840
417.035670	4312.056807
417.415283	4414.868619
417.794834	4414.629164
418.174324	4416.055810
418.553753	4391.129825
418.933121	4567.943255
419.312428	4661.106299
419.691674	4650.960977
420.070859	4784.763282
420.449983	4749.087036
420.829045	4869.467270
421.208047	4830.650385
421.586988	4918.888221
421.965867	4960.452535
422.344686	5106.792190
422.723444	4997.888143
423.102141	4860.431001
423.480777	5147.071009
423.859352	4965.166014
424.237866	5222.451382
424.616319	5230.963371
424.994712	5347.991237
425.373044	5253.020939
425.751314	5410.456174
426.129524	5238.331017
426.507673	5437.207057
426.885762	5532.928486
427.263789	5476.293643
427.641756	5371.732551
428.019662	5500.977653
428.397508	5517.215210
428.775292	5472.880782
429.153016	5580.267441
429.530679	5516.466598
429.908282	5602.577068
430.285824	5480.669365
430.663305	5756.213793
431.040726	5503.231049
431.418086	5505.292881
431.795385	5614.630467
432.172624	5631.120081
432.549802	5625.781499
432.926920	5642.036699
433.303977	5650.427700
433.680974	5690.741807
434.057910	5707.566658
434.434786	5716.794490
434.811601	5688.944636
435.188355	5921.205717
435.565050	5795.728877
435.941683	5777.656341
436.318257	5992.036449
436.694770	5978.140509
437.071222	6012.581672
437.447614	5944.984840
437.823946	5858.508887
438.200218	6016.649883
438.576429	5877.370364
438.952580	5981.021528
439.328670	6028.892325
439.704700	5938.002842
440.080670	5919.673206
440.456580	6192.039187
440.832429	6074.666002
441.208218	5921.488022
441.583947	6073.793882
441.959616	6079.818061
442.335224	6008.153018
442.710773	6146.658720
443.086261	6174.574109
443.461689	5967.057532
443.837057	6110.790910
444.212365	6271.676815
444.587612	6160.786554
444.962800	6319.623229
445.337927	6297.840403
445.712995	5912.252628
446.088002	6477.318083
446.462949	6311.509492
446.837837	6243.920222
447.212664	6418.369351
447.587431	6561.911165
447.962139	7098.501663
448.336786	8030.893314
448.711374	7761.007581
449.085901	6840.011458
449.460369	6760.459530
449.834776	6698.443255
450.209124	7086.964982
450.583412	7243.727223
450.957640	7388.753657
451.331808	7149.790362
451.705917	6705.188319
452.079965	6628.431711
452.453954	6838.506674
452.827883	6718.444033
453.201752	6808.988198
453.575562	6603.493123
453.949311	6815.670247
454.323001	6699.771599
454.696632	6770.060408
455.070202	6913.327479
455.443713	7068.950419
455.817164	7170.776686
456.190556	7250.862976
456.563888	7324.650345
456.937160	7369.569546
457.310373	7027.338215
457.683526	7047.787655
458.056619	6937.736746
458.429653	6925.338028
458.802628	6865.126487
459.175542	6972.687066
459.548398	7327.304512
459.921194	7483.736558
460.293930	7492.737538
460.666607	8020.180862
461.039224	8328.840629
461.411782	8452.338816
461.784280	8467.399263
462.156719	8355.180658
462.529099	8234.578614
462.901419	7822.325656
463.273680	7715.606949
463.645882	7729.439875
464.018024	7598.264011
464.390106	7766.477233
464.762130	8157.446440
465.134094	8621.532542
465.505999	9642.910641
465.877845	10857.644716
466.249631	11508.089673
466.621358	11123.666404
466.993026	10496.004942
467.364634	10234.207740
467.736184	9876.184994
468.107674	9544.199807
468.479105	9579.039222
468.850477	9337.497376
469.221790	9109.203683
469.593043	8785.049929
469.964238	8645.314186
470.335373	8662.582658
470.706449	8718.511739
471.077467	8700.066157
471.448425	10005.523358
471.819324	11077.804507
472.190164	11093.056518
472.560945	9842.152164
472.931667	9063.770284
473.302330	8934.240357
473.672934	8574.211231
474.043479	8932.007125
474.413965	8874.782467
474.784393	8756.103624
475.154761	8914.214373
475.525070	9000.115634
475.895321	8828.408893
476.265513	9007.357252
476.635645	9172.611316
477.005719	9174.370679
477.375734	9288.502402
477.745691	9521.638123
478.115588	9654.558227
478.485427	9901.673068
478.855207	10438.833216
479.224928	11250.101063
479.594591	11874.576516
479.964194	11680.703822
480.333739	11626.483692
480.703226	11532.887109
481.072653	11632.283539
481.442022	11869.943696
481.811333	12057.830020
482.180584	11865.527645
482.549777	11575.399159
482.918912	11394.028526
483.287988	11420.373596
483.657005	11430.231572
484.025964	11116.323963
484.394864	11241.276523
484.763706	11219.861702
485.132489	10975.784156
485.501213	10939.268558
485.869879	11014.606082
486.238487	10861.607062
486.607036	10969.031530
486.975527	10747.913920
487.343959	10939.331573
487.712333	10983.406381
488.080648	10921.017061
488.448905	10958.031733
488.817104	10895.707948
489.185244	11162.732826
489.553326	11326.729122
489.921350	11862.790299
490.289315	12920.124427
490.657222	13257.271755
491.025070	13166.508301
491.392861	13037.815205
491.760593	12658.904437
492.128267	12309.557517
492.495883	11979.873617
492.863440	11646.605457
493.230939	11309.533746
493.598380	11246.383212
493.965763	11113.445465
494.333088	11009.451502
494.700354	10928.853534
495.067563	11001.526808
495.434713	10830.762763
495.801805	10959.687752
496.168839	10880.403005
496.535815	10813.942953
496.902733	10808.901799
497.269593	10755.158058
497.636395	10849.664569
498.003139	10841.044196
498.369825	10705.101921
498.736453	10864.893895
499.103023	10786.088057
499.469535	10822.893522
499.835989	10808.175873
500.202385	10767.072825
500.568723	10625.335743
500.935003	10848.250525
501.301226	10647.567232
501.667390	10906.811089
502.033497	10999.654019
502.399546	10864.898936
502.765537	10772.877714
503.131470	10845.538385
503.497345	11011.523416
503.863163	10624.461103
504.228923	10942.515061
504.594625	11001.962868
504.960269	10754.474982
505.325856	10969.941459
505.691385	10769.174986
506.056856	10917.455485
506.422270	10949.509662
506.787625	10833.757208
507.152924	10943.379619
507.518164	10931.616087
507.883347	10849.223468
508.248472	10768.232290
508.613540	11001.819195
508.978550	10893.038657
509.343503	10862.133863
509.708398	10986.259674
510.073236	11096.524832
510.438016	11104.797365
510.802738	11051.746783
511.167403	11101.248393
511.532010	11001.776345
511.896561	11234.377704
512.261053	11301.440174
512.625488	11175.055926
512.989866	11158.601600
513.354186	11136.793569
513.718449	11042.776049
514.082655	11232.094062
514.446803	11133.206788
514.810894	11250.348080
515.174927	11117.833789
515.538904	11148.857050
515.902822	11293.828032
516.266684	11182.763851
516.630488	11123.275715
516.994235	11182.910044
517.357925	11238.360216
517.721558	11332.279432
518.085133	11347.022287
518.448651	11356.164419
518.812112	11244.160063
519.175516	11255.187587
519.538863	11373.402645
519.902152	11284.396033
520.265385	11451.563215
520.628560	11356.378668
520.991678	11343.707728
521.354739	11405.376163
521.717743	11338.185144
522.080690	11317.004736
522.443580	11448.956938
522.806413	11401.176882
523.169189	11437.805906
523.531908	11489.734832
523.894569	11311.633387
524.257174	11326.313227
524.619722	11438.960330
524.982213	11387.112063
525.344647	11428.298290
525.707025	11386.401260
526.069345	11479.985240
526.431608	11402.331306
526.793815	11517.251970
527.155964	11295.708382
527.518057	11345.724190
527.880093	11297.344236
528.242072	11367.592715
528.603995	11271.863724
528.965860	11192.770541
529.327669	11246.652914
529.689421	11194.789523
530.051117	11167.829432
530.412755	11267.896336
530.774337	11166.188537
531.135862	11138.051337
531.497331	11165.071921
531.858743	11014.757316
532.220098	11186.267453
532.581396	11052.235775
532.942638	11041.016687
533.303824	11003.661737
533.664953	11014.422080
534.026025	10932.856210
534.387040	11028.602845
534.747999	11025.817608
535.108902	11082.581000
535.469748	10839.393218
535.830537	10952.211721
536.191270	10925.947309
536.551947	10953.532503
536.912567	10950.515372
537.273131	10881.373427
537.633638	10854.793943
537.994089	10849.684734
538.354483	10789.732812
538.714821	10938.706469
539.075103	10945.403642
539.435328	10910.644887
539.795497	10734.668288
540.155609	10896.965716
540.515665	10985.359828
540.875665	10725.800898
541.235609	10784.661411
541.595496	10790.463779
541.955328	10938.338465
542.315102	10815.672069
542.674821	10773.840574
543.034483	10770.856211
543.394090	10773.147415
543.753640	10703.337517
544.113134	10919.623182
544.472571	10780.383992
544.831953	10923.275498
545.191278	10729.294418
545.550548	10760.652916
545.909761	10886.757379
546.268918	10871.734741
546.628019	10952.564601
546.987064	10816.841616
547.346053	10743.480225
547.704986	10844.280617
548.063863	10824.922586
548.422684	10822.757410
548.781449	10734.259955
549.140158	10833.427012
549.498811	10714.443179
549.857408	10572.693494
550.215949	10795.633482
550.574434	10649.369444
550.932864	10755.861299
551.291237	10812.228961
551.649555	10754.709395
552.007817	10772.136664
552.366022	10730.113606
552.724173	10727.245189
553.082267	10706.957065
553.440305	10846.728097
553.798288	10649.503035
554.156215	10799.610953
554.514086	10780.759558
554.871902	10627.926897
555.229661	10665.208750
555.587365	10646.412808
555.945014	10534.005159
556.302606	10667.777218
556.660143	10555.679600
557.017625	10709.104597
557.375050	10604.717424
557.732421	10737.967723
558.089735	10654.801288
558.446994	10659.174489
558.804197	10690.908552
559.161345	10695.402741
559.518437	10540.427589
559.875474	10628.025199
560.232455	10656.404375
560.589381	10605.987795
560.946251	10607.517785
561.303065	10709.182735
561.659825	10644.761830
562.016528	10577.739689
562.373177	10452.938364
562.729770	10577.243136
563.086307	10487.656791
563.442789	10580.348487
563.799216	10464.089397
564.155587	10516.348518
564.511904	10464.112082
564.868164	10455.428694
565.224370	10470.481580
565.580520	10385.351615
565.936615	10401.468183
566.292654	10272.502865
566.648638	10399.915508
567.004567	10356.133087
567.360441	10340.699594
567.716260	10248.852292
568.072023	10350.315595
568.427732	10298.966402
568.783385	10199.443943
569.138982	10270.783832
569.494525	10288.705134
569.850013	10161.665536
570.205445	10246.177960
570.560823	10144.376899
570.916145	10062.468231
571.271412	10130.803592
571.626625	10080.003885
571.981782	10055.904649
572.336884	10026.590339
572.691931	10031.603767
573.046923	9978.165016
573.401860	9935.219426
573.756743	9875.887566
574.111570	9915.770654
574.466342	9900.316997
574.821059	9927.609804
575.175722	9816.795160
575.530330	9825.718003
575.884882	9820.959153
576.239380	9750.985417
576.593823	9726.689577
576.948211	9741.482842
577.302544	9621.861303
577.656823	9634.975865
578.011047	9640.233788
578.365216	9611.705898
578.719330	9534.377119
579.073389	9546.037308
579.427394	9499.774639
579.781344	9469.575607
580.135239	9423.249924
580.489080	9432.397097
580.842866	9329.290378
581.196597	9330.964041
581.550273	9374.101194
581.903895	9346.379889
582.257463	9411.529241
582.610975	9290.559193
582.964434	9315.943923
583.317837	9239.114218
583.671186	9218.455569
584.024481	9217.419612
584.377721	9140.055545
584.730906	9117.675342
585.084037	9137.020770
585.437113	9077.746883
585.790135	9095.590047
586.143103	8995.805448
586.496016	8977.692582
586.848874	9025.886013
587.201679	9011.483436
587.554428	8903.421263
587.907124	8952.877502
588.259765	8923.575796
588.612352	8923.099407
588.964884	8800.768247
589.317362	8815.954723
589.669786	8812.330133
590.022155	8860.531126
590.374470	8875.374803
590.726731	8814.712078
591.078937	8670.076333
591.431090	8777.576418
591.783188	8650.887181
592.135232	8646.844176
592.487222	8646.347622
592.839157	8702.465747
593.191038	8634.271538
593.542866	8575.370697
593.894639	8485.736461
594.246358	8528.036782
594.598022	8542.063793
594.949633	8439.985469
595.301190	8421.479393
595.652692	8445.840769
596.004141	8558.069457
596.355535	8336.593924
596.706876	8318.002149
597.058162	8250.889267
597.409395	8321.881317
597.760573	8389.498313
598.111698	8297.265362
598.462768	8280.914380
598.813785	8242.226045
599.164748	8218.426757
599.515657	8203.547792
599.866511	8119.768856
600.217312	8244.159327
600.568060	8098.152388
600.918753	8209.619862
601.269392	8173.961260
601.619978	8085.945234
601.970510	8153.605081
602.320988	8144.956981
602.671412	8200.190383
603.021783	8140.659397
603.372100	8109.399202
603.722363	8111.589584
604.072572	8089.703414
604.422728	8101.608099
604.772830	8027.571193
605.122878	8040.910086
605.472872	8034.396916
605.822813	8061.286430
606.172701	8007.320878
606.522534	8080.173113
606.872314	8079.437105
607.222041	8049.457363
607.571714	8102.906196
607.921333	8067.658449
608.270899	8067.913027
608.620411	8158.253024
608.969870	8061.959424
609.319276	8060.011018
609.668627	8076.414933
610.017926	8108.869881
610.367171	8159.775453
610.716362	8135.197307
611.065500	8124.542829
611.414585	8154.789752
611.763616	8140.147720
612.112594	8121.755071
612.461518	8136.475240
612.810389	8200.303809
613.159207	8135.845096
613.507971	8084.276612
613.856682	8202.884880
614.205340	8159.851070
614.553945	8235.236485
614.902496	8139.363821
615.250994	8186.785955
615.599439	8169.419180
615.947830	8180.895367
616.296169	8156.223960
616.644454	8170.160230
616.992686	8165.497163
617.340864	8227.163077
617.688990	8124.981409
618.037063	8222.555462
618.385082	8166.268459
618.733048	8258.579548
619.080961	8191.501955
619.428821	8215.679328
619.776628	8210.139100
620.124382	8167.385075
620.472083	8149.645254
620.819731	8183.047940
621.167326	8068.429745
621.514868	8077.758400
621.862357	7964.745813
622.209793	7986.334555
622.557176	7915.844101
622.904506	7891.366778
623.251783	7829.002664
623.599007	7772.917307
623.946179	7777.807226
624.293297	7740.101916
624.640363	7656.144019
624.987376	7638.547872
625.334336	7578.805157
625.681243	7535.045421
626.028097	7516.887185
626.374899	7502.056111
626.721647	7499.296079
627.068343	7423.696415
627.414987	7398.316726
627.761577	7349.674633
628.108115	7392.191724
628.454600	7279.290043
628.801032	7335.793816
629.147412	7298.113711
629.493739	7281.775332
629.840014	7222.622432
630.186236	7278.158304
630.532405	7162.330232
630.878521	7211.347892
631.224585	7166.337950
631.570597	7092.119562
631.916556	7124.617360
632.262462	7118.215095
632.608316	7080.227480
632.954117	7060.166208
633.299866	7046.454270
633.645562	7042.625514
633.991206	6961.427649
634.336797	6902.884729
634.682336	6859.745055
635.027823	6824.242729
635.373257	6816.033210
635.718639	6753.142295
636.063968	6761.634119
636.409245	6654.597820
636.754470	6658.875239
637.099642	6612.093331
637.444762	6558.397481
637.789829	6567.249747
638.134845	6511.169431
638.479808	6489.847871
638.824719	6501.563512
639.169577	6426.788077
639.514383	6448.959072
639.859137	6373.011569
640.203839	6383.850050
640.548489	6372.814964
