Dividing Wavelength (nm)	Counts (n)	Blue Motor Position (mm): 22.600000	Red Motor Position (mm): 0.000000	
326.493990	2134.663993
326.888308	2134.663993
327.282561	2134.663993
327.676750	2099.874991
328.070874	2102.118304
328.464933	2104.147368
328.858929	2107.247678
329.252859	2120.783176
329.646726	2129.915226
330.040528	2144.106074
330.434265	2159.940339
330.827938	2177.145797
331.221547	2193.940401
331.615091	2216.544935
332.008571	2235.431618
332.401986	2253.461304
332.795338	2274.409819
333.188625	2294.385391
333.581847	2310.766621
333.975006	2329.560042
334.368100	2347.398165
334.761129	2366.698223
335.154095	2384.208670
335.546996	2403.470919
335.939833	2424.968920
336.332606	2438.340580
336.725315	2452.657457
337.117960	2459.647017
337.510540	2470.102370
337.903056	2481.339102
338.295508	2488.336224
338.687896	2497.344766
339.080220	2506.237361
339.472480	2510.913031
339.864676	2517.625328
340.256807	2521.229752
340.648875	2523.924249
341.040879	2526.626308
341.432818	2528.962882
341.824694	2528.741072
342.216506	2529.608150
342.608253	2528.582275
342.999937	2530.074457
343.391557	2530.936494
343.783113	2528.645290
344.174605	2526.651513
344.566033	2526.308715
344.957397	2523.273940
345.348697	2524.539270
345.739934	2518.736902
346.131106	2517.368229
346.522215	2517.458969
346.913260	2516.412930
347.304241	2512.682476
347.695159	2512.995028
348.086012	2511.162568
348.476802	2511.941427
348.867528	2506.875067
349.258191	2505.710560
349.648789	2503.227792
350.039324	2503.714263
350.429796	2501.165960
350.820203	2502.874911
351.210548	2499.613285
351.600828	2496.442399
351.991045	2496.991885
352.381198	2496.276041
352.771288	2497.105311
353.161314	2494.499034
353.551276	2497.501041
353.941175	2495.451812
354.331010	2493.178252
354.720782	2497.521206
355.110490	2497.188490
355.500135	2497.175887
355.889717	2496.719663
356.279235	2496.003819
356.668689	2497.838799
357.058080	2499.792246
357.447408	2492.774960
357.836672	2492.313694
358.225873	2493.815958
358.615010	2494.020125
359.004084	2497.763181
359.393095	2498.990702
359.782043	2500.379540
360.170927	2499.111690
360.559748	2503.386588
360.948505	2501.662514
361.337199	2501.765858
361.725830	2501.160919
362.114398	2502.428769
362.502903	2502.529592
362.891344	2505.599655
363.279722	2503.195025
363.668037	2503.731908
364.056289	2505.443379
364.444478	2503.925992
364.832603	2505.750890
365.220665	2508.566374
365.608665	2508.208452
365.996601	2505.808863
366.384474	2507.842968
366.772284	2509.030160
367.160031	2506.991013
367.547715	2509.425891
367.935336	2508.258864
368.322893	2510.250119
368.710388	2507.447238
369.097820	2514.295645
369.485189	2508.586539
369.872495	2512.816067
370.259738	2510.688700
370.646918	2510.282887
371.034035	2509.635099
371.421090	2514.000738
371.808081	2510.923113
372.195010	2508.954543
372.581875	2512.092661
372.968678	2511.805315
373.355418	2513.330264
373.742096	2513.945285
374.128710	2511.505367
374.515262	2513.229441
374.901751	2512.216169
375.288177	2514.401510
375.674540	2512.644668
376.060841	2515.465193
376.447079	2518.494927
376.833254	2517.383352
377.219367	2508.566374
377.605417	2512.412774
377.991404	2509.572084
378.377329	2512.722805
378.763191	2510.678618
379.148991	2514.893022
379.534727	2515.571057
379.920402	2517.199350
380.306013	2516.659947
380.691563	2519.573733
381.077049	2515.709689
381.462474	2517.063239
381.847835	2518.066428
382.233134	2518.542818
382.618371	2515.190450
383.003545	2519.619104
383.388657	2520.390400
383.773706	2519.636748
384.158693	2518.615914
384.543618	2520.584485
384.928480	2521.711183
385.313280	2519.432581
385.698017	2521.224711
386.082692	2522.026255
386.467305	2519.833353
386.851856	2519.137674
387.236344	2519.079700
387.620770	2519.213291
388.005133	2519.099865
388.389435	2521.239835
388.773674	2521.033148
389.157851	2521.146573
389.541965	2521.607839
389.926018	2522.537932
390.310008	2521.791841
390.693936	2519.876203
391.077802	2518.794875
391.461606	2523.097500
391.845348	2522.716893
392.229027	2522.860566
392.612645	2522.855525
392.996200	2524.975330
393.379694	2525.781914
393.763125	2524.478776
394.146494	2523.853673
394.529801	2523.301667
394.913047	2526.331400
395.296230	2526.439785
395.679351	2525.837367
396.062410	2523.344517
396.445408	2524.294774
396.828343	2524.350227
397.211217	2522.154804
397.594028	2523.042047
397.976778	2521.847294
398.359466	2522.394259
398.742092	2523.762932
399.124656	2528.579755
399.507158	2523.357119
399.889598	2525.950793
400.271977	2527.309384
400.654294	2528.337779
401.036549	2525.870135
401.418742	2530.119827
401.800874	2529.204858
402.182944	2527.594209
402.564952	2529.013294
402.946898	2528.834333
403.328783	2528.756195
403.710606	2530.472708
404.092367	2530.961700
404.474067	2530.414735
404.855705	2528.383150
405.237282	2529.555218
405.618797	2530.114786
406.000250	2531.286854
406.381642	2531.675023
406.762972	2531.105373
407.144240	2531.934643
407.525447	2531.972451
407.906593	2533.905734
408.287677	2531.309540
408.668700	2530.346679
409.049661	2532.216947
409.430560	2532.937832
409.811399	2529.638397
410.192176	2531.314581
410.572891	2533.804911
410.953545	2530.132430
411.334138	2532.083357
411.714669	2532.506814
412.095139	2530.621422
412.475547	2530.422297
412.855894	2533.462112
413.236180	2532.118645
413.616405	2534.954294
413.996568	2532.411032
414.376670	2533.245343
414.756711	2534.608975
415.136691	2530.071936
415.516609	2534.699716
415.896466	2534.929088
416.276262	2535.960004
416.655997	2532.640404
417.035670	2526.432223
417.415283	2533.300795
417.794834	2530.170239
418.174324	2534.765251
418.553753	2533.194931
418.933121	2536.784233
419.312428	2532.554705
419.691674	2536.605272
420.070859	2537.104346
420.449983	2536.033101
420.829045	2535.465971
421.208047	2536.751465
421.586988	2537.958822
421.965867	2537.580735
422.344686	2536.217103
422.723444	2539.670293
423.102141	2536.237267
423.480777	2541.946374
423.859352	2535.103008
424.237866	2540.003009
424.616319	2535.483615
424.994712	2540.794471
425.373044	2538.042001
425.751314	2539.524100
426.129524	2537.389171
426.507673	2538.306661
426.885762	2540.373534
427.263789	2537.121990
427.641756	2538.591486
428.019662	2539.957639
428.397508	2538.631816
428.775292	2536.753986
429.153016	2541.825387
429.530679	2542.193391
429.908282	2540.978473
430.285824	2540.849923
430.663305	2542.304296
431.040726	2541.938813
431.418086	2541.056611
431.795385	2540.744059
432.172624	2539.551826
432.549802	2541.502753
432.926920	2540.247505
433.303977	2542.697506
433.680974	2541.870757
434.057910	2540.542413
434.434786	2542.579039
434.811601	2540.149203
435.188355	2540.658359
435.565050	2540.817156
435.941683	2542.831097
436.318257	2539.614841
436.694770	2539.720705
437.071222	2541.217927
437.447614	2539.272042
437.823946	2539.882022
438.200218	2541.487629
438.576429	2542.190870
438.952580	2540.222300
439.328670	2544.388813
439.704700	2543.680531
440.080670	2544.625747
440.456580	2541.278421
440.832429	2540.517207
441.208218	2543.299924
441.583947	2542.405119
441.959616	2544.103988
442.335224	2543.128525
442.710773	2543.420912
443.086261	2544.918134
443.461689	2545.298742
443.837057	2545.018958
444.212365	2545.964174
444.587612	2544.174564
444.962800	2543.541899
445.337927	2547.718495
445.712995	2542.117773
446.088002	2545.807898
446.462949	2547.494164
446.837837	2548.041129
447.212664	2546.697662
447.587431	2547.584905
447.962139	2547.373176
448.336786	2549.268650
448.711374	2546.427960
449.085901	2548.426777
449.460369	2547.436191
449.834776	2550.438198
450.209124	2550.377704
450.583412	2548.494833
450.957640	2550.075235
451.331808	2549.631613
451.705917	2548.310831
452.079965	2548.802343
452.453954	2549.319062
452.827883	2552.341233
453.201752	2552.013558
453.575562	2550.309648
453.949311	2549.029195
454.323001	2548.376366
454.696632	2549.908877
455.070202	2551.373332
455.443713	2548.961140
455.817164	2547.698331
456.190556	2548.915769
456.563888	2550.450801
456.937160	2549.929041
457.310373	2554.392983
457.683526	2553.215874
458.056619	2553.377191
458.429653	2553.646892
458.802628	2553.087324
459.175542	2551.660678
459.548398	2555.139074
459.921194	2551.960626
460.293930	2556.275854
460.666607	2556.757284
461.039224	2557.687377
461.411782	2556.278375
461.784280	2558.761143
462.156719	2559.141750
462.529099	2559.204764
462.901419	2559.169476
463.273680	2558.849363
463.645882	2559.484548
464.018024	2559.310629
464.390106	2562.592420
464.762130	2564.543346
465.134094	2565.874211
465.505999	2572.775551
465.877845	2579.828125
466.249631	2583.888774
466.621358	2585.774166
466.993026	2585.600246
467.364634	2590.449836
467.736184	2587.382294
468.107674	2588.574527
468.479105	2594.155084
468.850477	2594.873448
469.221790	2599.617174
469.593043	2599.004674
469.964238	2601.051382
470.335373	2606.793257
470.706449	2613.054370
471.077467	2619.484362
471.448425	2639.336425
471.819324	2663.677637
472.190164	2668.156702
472.560945	2658.570948
472.931667	2655.319404
473.302330	2660.035403
473.672934	2663.438182
474.043479	2681.324196
474.413965	2685.420133
474.784393	2689.185875
475.154761	2704.155582
475.525070	2715.919114
475.895321	2723.468242
476.265513	2736.212279
476.635645	2756.825557
477.005719	2771.923813
477.375734	2789.419137
477.745691	2811.819504
478.115588	2831.926146
478.485427	2858.225846
478.855207	2901.582290
479.224928	2973.572487
479.594591	3022.098634
479.964194	3031.760005
480.333739	3041.247457
480.703226	3064.272927
481.072653	3103.747682
481.442022	3159.840601
481.811333	3194.894264
482.180584	3213.007130
482.549777	3221.093141
482.918912	3242.608786
483.287988	3280.258643
483.657005	3313.494970
484.025964	3318.503357
484.394864	3363.195706
484.763706	3395.285171
485.132489	3406.458888
485.501213	3445.011113
485.869879	3482.600476
486.238487	3514.211031
486.607036	3560.627455
486.975527	3588.807505
487.343959	3648.167092
487.712333	3699.743137
488.080648	3736.437696
488.448905	3799.217705
488.817104	3833.066533
489.185244	3923.323351
489.553326	4007.203110
489.921350	4162.450484
490.289315	4424.154424
490.657222	4539.929563
491.025070	4598.767390
491.392861	4635.726610
491.760593	4628.432060
492.128267	4620.212459
492.495883	4612.444041
492.863440	4604.340386
493.230939	4598.860652
493.598380	4648.374865
493.965763	4692.222821
494.333088	4716.561512
494.700354	4778.875214
495.067563	4846.227550
495.434713	4876.023290
495.801805	4978.174711
496.168839	5027.315879
496.535815	5084.742183
496.902733	5142.506244
497.269593	5201.139905
497.636395	5294.333195
498.003139	5372.261872
498.369825	5386.208224
498.736453	5522.818452
499.103023	5560.654832
499.469535	5649.444675
499.835989	5712.534715
500.202385	5776.693480
500.568723	5795.116377
500.935003	5940.465445
501.301226	5964.973015
501.667390	6119.993537
502.033497	6245.626652
502.399546	6248.051447
502.765537	6285.582838
503.131470	6396.848665
503.497345	6555.929836
503.863163	6444.774914
504.228923	6666.457134
504.594625	6762.939778
504.960269	6719.051492
505.325856	6899.302989
505.691385	6876.713579
506.056856	7027.388626
506.422270	7122.507637
506.787625	7123.972093
507.152924	7272.383662
507.518164	7324.330232
507.883347	7361.024791
508.248472	7378.187399
508.613540	7592.766633
508.978550	7595.879545
509.343503	7653.885582
509.708398	7793.497817
510.073236	7936.459899
510.438016	8007.855241
510.802738	8044.912762
511.167403	8152.107858
511.532010	8156.516347
511.896561	8361.840023
512.261053	8486.018765
512.625488	8469.077968
512.989866	8526.968058
513.354186	8579.963188
513.718449	8579.872447
514.082655	8769.016539
514.446803	8768.640973
514.810894	8914.509280
515.174927	8883.969970
515.538904	8953.931103
515.902822	9136.327611
516.266684	9105.367365
516.630488	9123.823029
516.994235	9209.520124
517.357925	9333.154422
517.721558	9452.488616
518.085133	9520.017392
518.448651	9575.828007
518.812112	9527.949648
519.175516	9601.610988
519.538863	9747.849820
519.902152	9725.273012
520.265385	9920.360625
520.628560	9877.646928
520.991678	9918.908773
521.354739	10009.253811
521.717743	10001.992029
522.080690	10025.188899
522.443580	10192.046050
522.806413	10194.916987
523.169189	10262.962482
523.531908	10350.691161
523.894569	10235.152956
524.257174	10279.931005
524.619722	10417.725905
524.982213	10406.479090
525.344647	10493.794396
525.707025	10479.749741
526.069345	10597.667371
526.431608	10562.349047
526.793815	10685.214569
527.155964	10530.867041
527.518057	10605.203896
527.880093	10590.897101
528.242072	10680.009578
528.603995	10621.839703
528.965860	10566.112268
529.327669	10644.277879
529.689421	10628.017637
530.051117	10618.295772
530.412755	10746.257901
530.774337	10657.004272
531.135862	10667.447022
531.497331	10700.504388
531.858743	10577.885883
532.220098	10759.637123
532.581396	10657.415126
532.942638	10655.509570
533.303824	10637.673967
533.664953	10660.833028
534.026025	10600.661816
534.387040	10705.878258
534.747999	10729.574202
535.108902	10792.112236
535.469748	10575.196427
535.830537	10688.761021
536.191270	10674.623105
536.551947	10702.636797
536.912567	10719.975845
537.273131	10651.065793
537.633638	10640.769236
537.994089	10644.787036
538.354483	10601.785993
538.714821	10746.429300
539.075103	10763.055025
539.435328	10739.351520
539.795497	10568.584954
540.155609	10735.099307
540.515665	10830.235962
540.875665	10578.629453
541.235609	10648.845164
541.595496	10655.355815
541.955328	10804.039606
542.315102	10697.099089
542.674821	10646.564042
543.034483	10664.951651
543.394090	10665.493575
543.753640	10603.154667
544.113134	10824.708337
544.472571	10678.560246
544.831953	10824.405868
545.191278	10637.127002
545.550548	10666.514409
545.909761	10801.458535
546.268918	10781.518251
546.628019	10865.887002
546.987064	10735.936138
547.346053	10658.347739
547.704986	10755.924313
548.063863	10748.241595
548.422684	10739.449823
548.781449	10655.524693
549.140158	10767.889492
549.498811	10646.521192
549.857408	10505.724286
550.215949	10729.985056
550.574434	10586.584394
550.932864	10682.983858
551.291237	10738.547456
551.649555	10696.214367
552.007817	10706.455471
552.366022	10661.848821
552.724173	10669.990284
553.082267	10652.467233
553.440305	10787.759200
553.798288	10595.608059
554.156215	10738.562579
554.514086	10725.558923
554.871902	10573.555532
555.229661	10613.967942
555.587365	10587.829559
555.945014	10488.266770
556.302606	10603.754564
556.660143	10506.591365
557.017625	10654.924796
557.375050	10564.186547
557.732421	10696.670591
558.089735	10600.780283
558.446994	10603.812537
558.804197	10645.704526
559.161345	10644.822324
559.518437	10495.576443
559.875474	10583.428632
560.232455	10615.114804
560.589381	10562.996835
560.946251	10555.906452
561.303065	10668.596405
561.659825	10602.862280
562.016528	10536.069512
562.373177	10415.585935
562.729770	10533.503564
563.086307	10448.434093
563.442789	10542.580162
563.799216	10416.790771
564.155587	10467.320776
564.511904	10426.235372
564.868164	10414.209700
565.224370	10433.161918
565.580520	10355.913797
565.936615	10359.568633
566.292654	10230.585671
566.648638	10359.646771
567.004567	10318.699999
567.360441	10301.081166
567.716260	10210.370644
568.072023	10305.499738
568.427732	10257.815463
568.783385	10171.357154
569.138982	10236.632535
569.494525	10254.105174
569.850013	10133.051947
570.205445	10208.049193
570.560823	10110.449934
570.916145	10031.981853
571.271412	10100.735630
571.626625	10042.543071
571.981782	10026.338282
572.336884	9994.929373
572.691931	10001.755095
573.046923	9945.717629
573.401860	9901.846987
573.756743	9839.651752
574.111570	9886.148834
574.466342	9864.683601
574.821059	9901.819261
575.175722	9792.043095
575.530330	9798.861256
575.884882	9790.563516
576.239380	9713.151558
576.593823	9696.699752
576.948211	9705.380619
577.302544	9593.961037
577.656823	9603.854301
578.011047	9614.891908
578.365216	9579.873532
578.719330	9511.870888
579.073389	9521.572588
579.427394	9467.133168
579.781344	9447.492832
580.135239	9394.046519
580.489080	9401.061285
580.842866	9304.268611
581.196597	9308.593921
581.550273	9348.255198
581.903895	9316.639602
582.257463	9383.896156
582.610975	9261.718752
582.964434	9284.240106
583.317837	9206.946615
583.671186	9193.993370
584.024481	9192.430613
584.377721	9104.638918
584.730906	9081.631092
585.084037	9112.034291
585.437113	9048.278818
585.790135	9075.826203
586.143103	8970.387950
586.496016	8943.195966
586.848874	9003.473043
587.201679	8987.878233
587.554428	8878.376810
587.907124	8924.107637
588.259765	8893.207885
588.612352	8898.911950
588.964884	8769.399667
589.317362	8790.592678
589.669786	8785.284343
590.022155	8838.647477
590.374470	8848.686935
590.726731	8784.301318
591.078937	8645.745204
591.431090	8752.509281
591.783188	8628.272565
592.135232	8624.958006
592.487222	8620.171431
592.839157	8673.567332
593.191038	8605.859595
593.542866	8552.783807
593.894639	8457.422820
594.246358	8503.256991
594.598022	8521.679888
594.949633	8422.419568
595.301190	8397.831340
595.652692	8421.471831
596.004141	8538.759317
596.355535	8308.797002
596.706876	8290.863097
597.058162	8227.452943
597.409395	8303.965056
597.760573	8365.005867
598.111698	8271.404243
598.462768	8258.181297
598.813785	8226.817758
599.164748	8196.999333
599.515657	8184.535080
599.866511	8094.482428
600.217312	8221.161583
600.568060	8080.389883
600.918753	8181.094492
601.269392	8155.424937
601.619978	8064.807676
601.970510	8130.362841
602.320988	8128.719425
602.671412	8178.921755
603.021783	8120.068805
603.372100	8093.396060
603.722363	8096.153571
604.072572	8068.802791
604.422728	8084.596726
604.772830	8003.976073
605.122878	8019.026437
605.472872	8011.021085
605.822813	8036.922534
606.172701	7984.960840
606.522534	8062.367758
606.872314	8058.539001
607.222041	8032.196452
607.571714	8081.524142
607.921333	8044.930407
608.270899	8051.897281
608.620411	8136.951629
608.969870	8045.101806
609.319276	8042.939151
609.668627	8055.912560
610.017926	8085.231911
610.367171	8136.197976
610.716362	8114.518494
611.065500	8104.577339
611.414585	8136.818038
611.763616	8119.915049
612.112594	8099.039631
612.461518	8113.258206
612.810389	8176.882608
613.159207	8115.128474
613.507971	8065.581493
613.856682	8182.561468
614.205340	8137.428018
614.553945	8216.601860
614.902496	8116.277857
615.250994	8172.184253
615.599439	8147.117116
615.947830	8161.875093
616.296169	8136.054303
616.644454	8154.802355
616.992686	8143.555540
617.340864	8207.893266
617.688990	8114.551262
618.037063	8204.535858
618.385082	8146.088720
618.733048	8232.978048
619.080961	8172.839603
619.428821	8192.013632
619.776628	8193.062192
620.124382	8142.610324
620.472083	8128.898386
620.819731	8156.770925
621.167326	8051.693114
621.514868	8062.239208
621.862357	7952.074873
622.209793	7964.566852
622.557176	7903.810866
622.904506	7869.510856
623.251783	7806.808984
623.599007	7761.834330
623.946179	7764.117973
624.293297	7718.669450
624.640363	7638.366390
624.987376	7621.914584
625.334336	7570.041111
625.681243	7518.928853
626.028097	7505.521904
626.374899	7485.599264
626.721647	7477.646844
627.068343	7406.397696
627.414987	7382.104375
627.761577	7330.540933
628.108115	7371.427212
628.454600	7270.271418
628.801032	7319.452915
629.147412	7286.715662
629.493739	7269.732015
629.840014	7205.790020
630.186236	7261.928309
630.532405	7148.643500
630.878521	7197.446910
631.224585	7153.697256
631.570597	7079.632624
631.916556	7110.285360
632.262462	7106.277643
632.608316	7068.365645
632.954117	7045.390587
633.299866	7031.408946
633.645562	7024.492483
633.991206	6950.679909
634.336797	6890.848974
634.682336	6849.083015
635.027823	6816.325597
635.373257	6805.739174
635.718639	6741.414051
636.063968	6747.281954
636.409245	6647.963661
636.754470	6641.710110
637.099642	6603.946827
637.444762	6545.343413
637.789829	6553.343724
638.134845	6497.558316
638.479808	6482.530636
638.824719	6491.939950
639.169577	6415.712662
639.514383	6434.483399
639.859137	6364.575198
640.203839	6375.617845
640.548489	6360.353232
640.893086	6339.923956
641.237632	6308.414223
641.582125	6330.819632
641.926566	6294.982069
642.270955	6311.713659
