Dividing Wavelength (nm)	Counts (n)	Blue Motor Position (mm): 32.200000	Red Motor Position (mm): 0.000000	
326.493990	2129.388426
326.888308	2129.388426
327.282561	2129.388426
327.676750	2098.821389
328.070874	2100.505135
328.464933	2101.011771
328.858929	2104.981679
329.252859	2115.011055
329.646726	2127.129989
330.040528	2142.623975
330.434265	2157.848260
330.827938	2175.399037
331.221547	2193.030473
331.615091	2212.368339
332.008571	2233.571432
332.401986	2250.429050
332.795338	2268.615013
333.188625	2289.281223
333.581847	2306.975673
333.975006	2326.240442
334.368100	2343.624861
334.761129	2363.224867
335.154095	2378.053422
335.546996	2398.631412
335.939833	2422.082859
336.332606	2441.408123
336.725315	2452.906994
337.117960	2462.091977
337.510540	2468.395940
337.903056	2483.718527
338.295508	2488.580720
338.687896	2496.666730
339.080220	2505.733246
339.472480	2512.722805
339.864676	2515.717251
340.256807	2522.119516
340.648875	2523.256296
341.040879	2526.223015
341.432818	2529.104035
341.824694	2530.669313
342.216506	2529.469518
342.608253	2529.615712
342.999937	2529.877852
343.391557	2530.659231
343.783113	2527.876514
344.174605	2529.351051
344.566033	2528.725948
344.957397	2525.555063
345.348697	2519.994670
345.739934	2522.313601
346.131106	2519.994670
346.522215	2518.409227
346.913260	2515.916376
347.304241	2515.949144
347.695159	2513.725995
348.086012	2510.378669
348.476802	2509.834224
348.867528	2506.096209
349.258191	2505.037566
349.648789	2505.892042
350.039324	2503.031187
350.429796	2504.921620
350.820203	2499.807369
351.210548	2501.533964
351.600828	2499.217554
351.991045	2498.295023
352.381198	2494.982985
352.771288	2497.254025
353.161314	2494.163798
353.551276	2500.082112
353.941175	2496.061792
354.331010	2498.663027
354.720782	2496.328973
355.110490	2495.550115
355.500135	2495.381236
355.889717	2495.852584
356.279235	2494.302429
356.668689	2499.502379
357.058080	2497.851402
357.447408	2497.949704
357.836672	2495.338386
358.225873	2497.513644
358.615010	2491.428972
359.004084	2499.409118
359.393095	2499.807369
359.782043	2497.039776
360.170927	2499.154540
360.559748	2500.210662
360.948505	2502.436331
361.337199	2502.385919
361.725830	2503.247957
362.114398	2503.046311
362.502903	2504.125118
362.891344	2502.325426
363.279722	2504.477998
363.668037	2505.324912
364.056289	2505.594614
364.444478	2504.750221
364.832603	2507.018740
365.220665	2506.544871
365.608665	2506.282731
365.996601	2506.060921
366.384474	2505.513955
366.772284	2506.068482
367.160031	2508.631909
367.547715	2509.972856
367.935336	2507.797598
368.322893	2509.753566
368.710388	2510.229955
369.097820	2511.402023
369.485189	2510.976046
369.872495	2508.548730
370.259738	2510.895387
370.646918	2510.973525
371.034035	2511.785151
371.421090	2513.811695
371.808081	2508.921775
372.195010	2512.763135
372.581875	2512.402692
372.968678	2513.725995
373.355418	2510.928155
373.742096	2514.247754
374.128710	2515.732374
374.515262	2516.372601
374.901751	2512.649709
375.288177	2513.007631
375.674540	2516.392765
376.060841	2516.899401
376.447079	2514.643485
376.833254	2516.168434
377.219367	2509.607372
377.605417	2515.041736
377.991404	2509.529234
378.377329	2512.906808
378.763191	2510.179543
379.148991	2516.581809
379.534727	2516.886798
379.920402	2517.206912
380.306013	2517.698424
380.691563	2516.423012
381.077049	2518.794875
381.462474	2518.086593
381.847835	2520.047602
382.233134	2520.334948
382.618371	2518.923425
383.003545	2519.982067
383.388657	2518.545338
383.773706	2519.752694
384.158693	2518.943589
384.543618	2519.755215
384.928480	2520.261851
385.313280	2519.717406
385.698017	2517.746315
386.082692	2522.769825
386.467305	2518.807478
386.851856	2523.614218
387.236344	2522.046419
387.620770	2524.781245
388.005133	2520.347551
388.389435	2524.685463
388.773674	2522.721934
389.157851	2520.229083
389.541965	2522.880730
389.926018	2524.322500
390.310008	2526.873324
390.693936	2525.096318
391.077802	2524.544311
391.461606	2523.016842
391.845348	2524.614887
392.229027	2526.346524
392.612645	2525.688653
392.996200	2524.166225
393.379694	2525.819723
393.763125	2528.539426
394.146494	2524.541791
394.529801	2528.796524
394.913047	2528.685619
395.296230	2528.037831
395.679351	2527.445495
396.062410	2529.565300
396.445408	2528.405835
396.828343	2528.181504
397.211217	2526.059178
397.594028	2527.168232
397.976778	2527.614374
398.359466	2524.819054
398.742092	2527.629497
399.124656	2534.114942
399.507158	2531.843902
399.889598	2529.338448
400.271977	2533.207534
400.654294	2531.690147
401.036549	2532.292565
401.418742	2529.338448
401.800874	2532.143851
402.182944	2531.987575
402.564952	2534.568646
402.946898	2534.130065
403.328783	2530.059333
403.710606	2535.748276
404.092367	2534.787936
404.474067	2537.502597
404.855705	2536.335570
405.237282	2531.712832
405.618797	2537.437062
406.000250	2535.002185
406.381642	2535.173584
406.762972	2538.094933
407.144240	2536.827082
407.525447	2543.617517
407.906593	2539.105684
408.287677	2536.678368
408.668700	2540.640715
409.049661	2538.657021
409.430560	2539.622402
409.811399	2542.251364
410.192176	2544.184647
410.572891	2541.238092
410.953545	2542.669780
411.334138	2542.667259
411.714669	2543.506611
412.095139	2542.727753
412.475547	2544.035932
412.855894	2548.330996
413.236180	2549.742519
413.616405	2552.053888
413.996568	2558.017573
414.376670	2559.335834
414.756711	2560.570917
415.136691	2563.323387
415.516609	2570.751527
415.896466	2575.354101
416.276262	2579.954154
416.655997	2585.701069
417.035670	2593.454364
417.415283	2608.040942
417.794834	2612.764503
418.174324	2624.800258
418.553753	2633.844088
418.933121	2649.098620
419.312428	2667.990344
419.691674	2673.969152
420.070859	2695.822554
420.449983	2702.676003
420.829045	2729.137019
421.208047	2738.264028
421.586988	2756.737337
421.965867	2778.147117
422.344686	2810.163485
422.723444	2819.119095
423.102141	2819.116574
423.480777	2873.646736
423.859352	2869.170191
424.237866	2929.235539
424.616319	2948.817901
424.994712	2989.552945
425.373044	3006.471057
425.751314	3057.779921
426.129524	3057.986608
426.507673	3122.883902
426.885762	3167.026766
427.263789	3195.927701
427.641756	3200.731921
428.019662	3268.036366
428.397508	3302.643887
428.775292	3337.916840
429.153016	3404.676841
429.530679	3421.078235
429.908282	3490.202536
430.285824	3489.975684
430.663305	3620.871764
431.040726	3584.520004
431.418086	3621.055767
431.795385	3708.645815
432.172624	3763.133126
432.549802	3805.577121
432.926920	3856.545707
433.303977	3909.329108
433.680974	3971.305053
434.057910	4032.184548
434.434786	4085.739246
434.811601	4116.689410
435.188355	4283.987662
435.565050	4267.039303
435.941683	4308.812824
436.318257	4481.399247
436.694770	4523.019013
437.071222	4599.579016
437.447614	4608.557311
437.823946	4601.991208
438.200218	4750.619547
438.576429	4716.344742
438.952580	4832.109799
439.328670	4908.362292
439.704700	4893.256475
440.080670	4926.656639
440.456580	5164.405017
440.832429	5129.323627
441.208218	5059.274274
441.583947	5218.236978
441.959616	5263.962764
442.335224	5251.838789
442.710773	5398.077621
443.086261	5459.516683
443.461689	5326.117670
443.837057	5492.634543
444.212365	5659.441283
444.587612	5599.139001
444.962800	5762.280822
445.337927	5778.672133
445.712995	5479.441844
446.088002	6010.282906
446.462949	5888.791098
446.837837	5860.243044
447.212664	6036.761566
447.587431	6200.367173
447.962139	6710.272323
448.336786	7578.880775
448.711374	7370.219855
449.085901	6546.336520
449.460369	6503.204408
449.834776	6462.106401
450.209124	6849.224167
450.583412	7017.681884
450.957640	7167.903228
451.331808	6960.353883
451.705917	6553.517644
452.079965	6495.083109
452.453954	6705.755449
452.827883	6602.104285
453.201752	6701.150355
453.575562	6514.690677
453.949311	6723.457461
454.323001	6625.364169
454.696632	6706.146138
455.070202	6850.975968
455.443713	7001.414081
455.817164	7106.718744
456.190556	7196.620161
456.563888	7274.758045
456.937160	7324.642783
457.310373	6989.496793
457.683526	7022.770929
458.056619	6916.342089
458.429653	6907.525111
458.802628	6845.037489
459.175542	6954.433048
459.548398	7314.898233
459.921194	7470.924465
460.293930	7474.178530
460.666607	8001.329467
461.039224	8310.674832
461.411782	8433.442051
461.784280	8453.687325
462.156719	8353.592695
462.529099	8228.894713
462.901419	7822.300450
463.273680	7713.834984
463.645882	7726.974751
464.018024	7594.894000
464.390106	7764.246522
464.762130	8150.388824
465.134094	8619.954661
465.505999	9636.223550
465.877845	10854.844355
466.249631	11493.571150
466.621358	11113.044693
466.993026	10495.276495
467.364634	10236.839222
467.736184	9874.347493
468.107674	9550.836486
468.479105	9576.995034
468.850477	9340.791770
469.221790	9119.543090
469.593043	8791.663923
469.964238	8649.667222
470.335373	8662.035693
470.706449	8726.043223
471.077467	8703.821817
471.448425	10011.262711
471.819324	11078.921122
472.190164	11096.633217
472.560945	9853.792188
472.931667	9073.575328
473.302330	8931.213144
473.672934	8582.045184
474.043479	8937.680944
474.413965	8874.560657
474.784393	8760.381043
475.154761	8923.827853
475.525070	9005.615533
475.895321	8830.185900
476.265513	9015.085341
476.635645	9176.298920
477.005719	9175.525103
477.375734	9291.171693
477.745691	9528.047950
478.115588	9660.037961
478.485427	9904.821268
478.855207	10439.216343
479.224928	11246.186607
479.594591	11883.005326
479.964194	11686.896879
480.333739	11627.842283
480.703226	11543.939838
481.072653	11638.814354
481.442022	11873.633821
481.811333	12056.675596
482.180584	11866.775331
482.549777	11576.672050
482.918912	11409.341031
483.287988	11423.703278
483.657005	11434.077973
484.025964	11119.777154
484.394864	11248.490414
484.763706	11217.010929
485.132489	10973.921450
485.501213	10944.171080
485.869879	11014.742193
486.238487	10859.172185
486.607036	10970.286778
486.975527	10752.392985
487.343959	10936.511047
487.712333	10994.716209
488.080648	10918.756103
488.448905	10962.634306
488.817104	10901.270861
489.185244	11166.952272
489.553326	11324.120325
489.921350	11858.180163
490.289315	12915.153849
490.657222	13261.060182
491.025070	13167.559381
491.392861	13041.056667
491.760593	12659.340497
492.128267	12311.163125
492.495883	11985.784370
492.863440	11648.140488
493.230939	11314.461474
493.598380	11250.464026
493.965763	11119.784716
494.333088	11012.206492
494.700354	10936.322004
495.067563	11002.436736
495.434713	10826.147586
495.801805	10956.065683
496.168839	10885.045907
496.535815	10822.187760
496.902733	10818.732049
497.269593	10753.053376
497.636395	10850.629950
498.003139	10841.170225
498.369825	10710.516120
498.736453	10866.471776
499.103023	10794.683225
499.469535	10821.436628
499.835989	10815.621657
500.202385	10777.563466
500.568723	10623.316761
500.935003	10845.341780
501.301226	10655.819601
501.667390	10919.514797
502.033497	11009.433858
502.399546	10870.343382
502.765537	10772.938208
503.131470	10852.510300
503.497345	11027.700479
503.863163	10634.709769
504.228923	10943.112438
504.594625	11007.775318
504.960269	10754.079251
505.325856	10978.786163
505.691385	10770.193299
506.056856	10917.677296
506.422270	10948.690475
506.787625	10834.788124
507.152924	10955.740528
507.518164	10934.605491
507.883347	10858.302586
508.248472	10773.782601
508.613540	11014.469971
508.978550	10893.860365
509.343503	10874.005780
509.708398	10983.272790
510.073236	11101.485327
510.438016	11112.953952
510.802738	11049.291741
511.167403	11114.804056
511.532010	11005.194248
511.896561	11234.992725
512.261053	11306.458643
512.625488	11174.042654
512.989866	11156.809470
513.354186	11145.766822
513.718449	11050.574714
514.082655	11241.210988
514.446803	11129.733433
514.810894	11259.338977
515.174927	11121.357556
515.538904	11145.875207
515.902822	11296.472117
516.266684	11184.553460
516.630488	11123.636157
516.994235	11185.153357
517.357925	11242.418345
517.721558	11334.558034
518.085133	11352.693585
518.448651	11357.192815
518.812112	11246.214333
519.175516	11261.836869
519.538863	11378.690815
519.902152	11288.882660
520.265385	11453.748555
520.628560	11369.868796
520.991678	11339.359733
521.354739	11414.533419
521.717743	11342.021462
522.080690	11324.601755
522.443580	11452.657145
522.806413	11411.196175
523.169189	11441.977461
523.531908	11496.381593
523.894569	11321.413225
524.257174	11329.620224
524.619722	11441.506113
524.982213	11387.527958
525.344647	11438.778849
525.707025	11395.296376
526.069345	11486.044707
526.431608	11400.123281
526.793815	11510.438851
527.155964	11308.462501
527.518057	11352.832217
527.880093	11307.166925
528.242072	11373.120340
528.603995	11280.494180
528.965860	11201.796727
529.327669	11253.342525
529.689421	11196.185923
530.051117	11163.914976
530.412755	11272.566965
530.774337	11159.319965
531.135862	11147.057358
531.497331	11164.403968
531.858743	11016.625064
532.220098	11187.373986
532.581396	11064.972250
532.942638	11042.511389
533.303824	11000.843732
533.664953	11018.235712
534.026025	10932.672208
534.387040	11030.619307
534.747999	11033.449915
535.108902	11093.742115
535.469748	10855.217400
535.830537	10954.142482
536.191270	10927.976373
536.551947	10955.196084
536.912567	10950.696854
537.273131	10878.179856
537.633638	10857.022133
537.994089	10852.759838
538.354483	10796.929059
538.714821	10942.499938
539.075103	10943.210740
539.435328	10915.817110
539.795497	10743.802859
540.155609	10895.584439
540.515665	10980.303550
540.875665	10725.246372
541.235609	10791.282966
541.595496	10790.579725
541.955328	10945.965731
542.315102	10822.210445
542.674821	10777.064392
543.034483	10777.331573
543.394090	10775.809145
543.753640	10708.988650
544.113134	10931.795047
544.472571	10785.480598
544.831953	10922.796588
545.191278	10731.008410
545.550548	10763.289439
545.909761	10898.800696
546.268918	10866.285253
546.628019	10957.930910
546.987064	10819.558798
547.346053	10747.964331
547.704986	10844.152067
548.063863	10829.615900
548.422684	10820.267080
548.781449	10729.047402
549.140158	10835.556900
549.498811	10721.616741
549.857408	10577.235574
550.215949	10800.283947
550.574434	10651.479167
550.932864	10753.958263
551.291237	10811.064454
551.649555	10758.568398
552.007817	10773.326376
552.366022	10731.162166
552.724173	10728.908770
553.082267	10718.604651
553.440305	10848.064003
553.798288	10646.317026
554.156215	10808.639659
554.514086	10783.156626
554.871902	10633.401590
555.229661	10662.902422
555.587365	10644.976079
555.945014	10540.362054
556.302606	10666.700931
556.660143	10558.807636
557.017625	10707.801459
557.375050	10603.739440
557.732421	10739.303629
558.089735	10660.694397
558.446994	10654.992852
558.804197	10691.611793
559.161345	10696.917608
559.518437	10543.669051
559.875474	10631.879161
560.232455	10660.336475
560.589381	10613.098343
560.946251	10605.816396
561.303065	10710.745493
561.659825	10651.895062
562.016528	10574.238608
562.373177	10456.938520
562.729770	10579.390667
563.086307	10488.183591
563.442789	10587.731256
563.799216	10466.337751
564.155587	10507.713021
564.511904	10460.802564
564.868164	10455.305186
565.224370	10472.359409
565.580520	10392.920907
565.936615	10400.109592
566.292654	10272.212999
566.648638	10408.921529
567.004567	10357.703406
567.360441	10342.854688
567.716260	10255.229352
568.072023	10354.466986
568.427732	10301.338265
568.783385	10204.616167
569.138982	10281.017374
569.494525	10295.235948
569.850013	10175.518627
570.205445	10250.586449
570.560823	10147.446962
570.916145	10065.729858
571.271412	10134.418100
571.626625	10081.985058
571.981782	10061.034023
572.336884	10031.485300
572.691931	10035.230877
573.046923	9982.442435
573.401860	9937.679509
573.756743	9879.739007
574.111570	9921.048742
574.466342	9901.294981
574.821059	9931.078118
575.175722	9816.200304
575.530330	9831.255710
575.884882	9821.417898
576.239380	9754.317620
576.593823	9732.456657
576.948211	9742.917051
577.302544	9624.659143
577.656823	9643.959201
578.011047	9650.948761
578.365216	9617.939285
578.719330	9538.551194
579.073389	9559.030882
579.427394	9495.429164
579.781344	9475.350249
580.135239	9413.999406
580.489080	9430.831819
580.842866	9335.329680
581.196597	9343.793777
581.550273	9383.636537
581.903895	9347.698151
582.257463	9414.906814
582.610975	9296.532960
582.964434	9319.563471
583.317837	9242.469106
583.671186	9226.360098
584.024481	9217.122184
584.377721	9141.736769
584.730906	9116.231052
585.084037	9149.714395
585.437113	9081.941123
585.790135	9102.864432
586.143103	9003.203341
586.496016	8969.853588
586.848874	9042.042911
587.201679	9020.842338
587.554428	8907.502077
587.907124	8954.644427
588.259765	8919.409282
588.612352	8925.446064
588.964884	8800.249008
589.317362	8816.847007
589.669786	8821.830187
590.022155	8866.716621
590.374470	8883.654898
590.726731	8820.194333
591.078937	8667.795211
591.431090	8787.562944
591.783188	8656.860948
592.135232	8651.804671
592.487222	8651.487078
592.839157	8703.146302
593.191038	8634.263976
593.542866	8581.508301
593.894639	8485.411306
594.246358	8535.054069
594.598022	8545.234679
594.949633	8454.201523
595.301190	8426.356709
595.652692	8456.797717
596.004141	8564.118841
596.355535	8339.956374
596.706876	8320.883168
597.058162	8250.271726
597.409395	8332.649221
597.760573	8391.696256
598.111698	8302.228378
598.462768	8292.907285
598.813785	8252.386490
599.164748	8225.612922
599.515657	8217.705872
599.866511	8126.385370
600.217312	8246.324503
600.568060	8107.307124
600.918753	8205.513842
601.269392	8182.647168
601.619978	8093.801872
601.970510	8155.981985
602.320988	8148.392528
602.671412	8208.490643
603.021783	8143.726940
603.372100	8115.365408
603.722363	8121.576110
604.072572	8095.473015
604.422728	8105.222607
604.772830	8036.703243
605.122878	8046.092392
605.472872	8041.003348
605.822813	8071.419149
606.172701	8012.588884
606.522534	8085.972961
606.872314	8084.846263
607.222041	8057.762664
607.571714	8118.160728
607.921333	8068.545692
608.270899	8080.387362
608.620411	8166.651587
608.969870	8070.597441
609.319276	8064.132162
609.668627	8075.527690
610.017926	8117.875903
610.367171	8160.511461
610.716362	8137.470868
611.065500	8128.227912
611.414585	8163.074888
611.763616	8142.643092
612.112594	8127.005432
612.461518	8143.827763
612.810389	8205.428142
613.159207	8144.629306
613.507971	8092.970082
613.856682	8208.793112
614.205340	8165.562697
614.553945	8245.162517
614.902496	8140.056980
615.250994	8191.426337
615.599439	8182.657250
615.947830	8192.999177
616.296169	8165.897934
616.644454	8174.891353
616.992686	8172.423708
617.340864	8237.880570
617.688990	8139.661249
618.037063	8224.871873
618.385082	8172.620313
618.733048	8252.981346
619.080961	8203.436886
619.428821	8217.836942
619.776628	8222.643683
620.124382	8173.540323
620.472083	8156.176069
620.819731	8183.194133
621.167326	8076.999707
621.514868	8084.511026
621.862357	7978.314079
622.209793	7992.315884
622.557176	7926.019670
622.904506	7895.830720
623.251783	7833.806883
623.599007	7780.446270
623.946179	7789.646376
624.293297	7748.659274
624.640363	7662.884042
624.987376	7646.593553
625.334336	7589.847805
625.681243	7541.919035
626.028097	7536.956019
626.374899	7504.826225
626.721647	7501.297417
627.068343	7434.408867
627.414987	7405.696975
627.761577	7363.106787
628.108115	7394.049389
628.454600	7288.477546
628.801032	7340.260278
629.147412	7303.376676
629.493739	7285.241125
629.840014	7224.470015
630.186236	7281.974457
630.532405	7164.785274
630.878521	7220.026238
631.224585	7175.033940
631.570597	7098.799091
631.916556	7134.505584
632.262462	7130.089533
632.608316	7086.899447
632.954117	7067.183495
633.299866	7051.870990
633.645562	7045.539301
633.991206	6962.340097
634.336797	6908.170379
634.682336	6869.177054
635.027823	6831.766651
635.373257	6823.955383
635.718639	6755.977944
636.063968	6775.499813
636.409245	6664.768348
636.754470	6663.651732
637.099642	6625.084385
637.444762	6566.279325
637.789829	6575.184523
638.134845	6516.949114
638.479808	6499.814232
638.824719	6502.289439
639.169577	6434.354849
639.514383	6457.256811
639.859137	6381.820985
640.203839	6390.738786
640.548489	6379.643207
