Dividing Wavelength (nm)	Counts (n)	Blue Motor Position (mm): 7.800000	Red Motor Position (mm): 0.000000	
326.493990	2061.400904
326.888308	2061.400904
327.282561	2061.400904
327.676750	2037.180681
328.070874	2037.382327
328.464933	2043.633358
328.858929	2053.950079
329.252859	2062.068857
329.646726	2076.171485
330.040528	2092.837540
330.434265	2110.877309
330.827938	2132.065278
331.221547	2152.920532
331.615091	2170.604900
332.008571	2193.685823
332.401986	2214.495706
332.795338	2235.469426
333.188625	2254.983733
333.581847	2271.672473
333.975006	2289.608898
334.368100	2309.140848
334.761129	2321.310194
335.154095	2342.271312
335.546996	2364.638911
335.939833	2400.630229
336.332606	2410.117681
336.725315	2424.313570
337.117960	2432.724735
337.510540	2442.819646
337.903056	2455.314145
338.295508	2458.885803
338.687896	2467.987606
339.080220	2470.911475
339.472480	2479.635192
339.864676	2476.973463
340.256807	2481.175265
340.648875	2483.390852
341.040879	2484.751963
341.432818	2488.822695
341.824694	2484.812457
342.216506	2485.228352
342.608253	2482.125522
342.999937	2487.748929
343.391557	2482.811119
343.783113	2483.612662
344.174605	2481.563433
344.566033	2481.202991
344.957397	2478.314410
345.348697	2475.536734
345.739934	2474.614203
346.131106	2473.033801
346.522215	2471.745786
346.913260	2471.181177
347.304241	2469.613378
347.695159	2465.204889
348.086012	2466.379478
348.476802	2462.858232
348.867528	2457.764146
349.258191	2458.106945
349.648789	2458.389249
350.039324	2453.151490
350.429796	2459.039558
350.820203	2453.643003
351.210548	2457.091152
351.600828	2454.610904
351.991045	2456.309773
352.381198	2455.853549
352.771288	2453.000256
353.161314	2452.213836
353.551276	2454.396655
353.941175	2453.471604
354.331010	2454.492437
354.720782	2454.137036
355.110490	2453.544700
355.500135	2453.857252
355.889717	2456.818930
356.279235	2454.081583
356.668689	2454.197530
357.058080	2456.443364
357.447408	2455.041923
357.836672	2456.720627
358.225873	2458.926132
358.615010	2457.572582
359.004084	2457.214660
359.393095	2457.650720
359.782043	2460.619960
360.170927	2457.907819
360.559748	2458.706842
360.948505	2459.596606
361.337199	2459.082408
361.725830	2460.146091
362.114398	2458.817747
362.502903	2461.461833
362.891344	2462.623818
363.279722	2463.841257
363.668037	2464.607513
364.056289	2465.028449
364.444478	2464.000053
364.832603	2465.025928
365.220665	2467.344859
365.608665	2465.837554
365.996601	2465.343521
366.384474	2466.366875
366.772284	2467.027266
367.160031	2465.290589
367.547715	2465.950980
367.935336	2467.412915
368.322893	2465.867801
368.710388	2462.918726
369.097820	2465.827472
369.485189	2463.642132
369.872495	2470.064562
370.259738	2465.766978
370.646918	2469.073975
371.034035	2467.387709
371.421090	2465.928295
371.808081	2469.734366
372.195010	2467.896865
372.581875	2471.133286
372.968678	2468.463995
373.355418	2468.950467
373.742096	2471.166054
374.128710	2471.287041
374.515262	2469.363841
374.901751	2473.094295
375.288177	2473.235447
375.674540	2469.956177
376.060841	2471.166054
376.447079	2471.463482
376.833254	2472.769141
377.219367	2471.791157
377.605417	2472.587659
377.991404	2470.873667
378.377329	2472.441466
378.763191	2474.767958
379.148991	2474.311734
379.534727	2471.057669
379.920402	2474.939357
380.306013	2473.084213
380.691563	2476.466827
381.077049	2473.711836
381.462474	2474.833493
381.847835	2475.902218
382.233134	2474.745273
382.618371	2475.735860
383.003545	2477.732157
383.388657	2476.842393
383.773706	2476.237454
384.158693	2476.832311
384.543618	2477.331385
384.928480	2476.469348
385.313280	2479.536890
385.698017	2476.224852
386.082692	2476.466827
386.467305	2479.597383
386.851856	2478.584112
387.236344	2476.555047
387.620770	2476.118987
388.005133	2475.037660
388.389435	2475.730818
388.773674	2474.573874
389.157851	2483.433702
389.541965	2479.151241
389.926018	2480.313227
390.310008	2479.310038
390.693936	2479.637713
391.077802	2480.071252
391.461606	2481.074442
391.845348	2480.857672
392.229027	2481.903711
392.612645	2482.085193
392.996200	2479.920017
393.379694	2481.190388
393.763125	2479.736015
394.146494	2481.762559
394.529801	2479.090747
394.913047	2481.941520
395.296230	2482.072590
395.679351	2481.379431
396.062410	2485.288846
396.445408	2485.946717
396.828343	2484.318424
397.211217	2481.570995
397.594028	2481.883547
397.976778	2480.799699
398.359466	2482.604432
398.742092	2484.951089
399.124656	2483.012765
399.507158	2482.198619
399.889598	2484.043681
400.271977	2482.309524
400.654294	2483.017806
401.036549	2480.507312
401.418742	2483.564772
401.800874	2486.430668
402.182944	2484.290698
402.564952	2483.935296
402.946898	2486.657519
403.328783	2487.630462
403.710606	2484.323465
404.092367	2485.712303
404.474067	2485.147694
404.855705	2487.993425
405.237282	2485.470328
405.618797	2485.351861
406.000250	2487.023003
406.381642	2487.063332
406.762972	2482.072590
407.144240	2486.067704
407.525447	2486.392859
407.906593	2483.632827
408.287677	2485.450163
408.668700	2489.117602
409.049661	2488.220277
409.430560	2488.200113
409.811399	2490.425782
410.192176	2488.777325
410.572891	2486.682725
410.953545	2489.651965
411.334138	2488.883189
411.714669	2486.768425
412.095139	2488.500061
412.475547	2487.837149
412.855894	2492.364106
413.236180	2485.954278
413.616405	2493.425268
413.996568	2486.496203
414.376670	2490.231697
414.756711	2491.912922
415.136691	2490.297232
415.516609	2488.860504
415.896466	2489.019300
416.276262	2490.559372
416.655997	2493.407624
417.035670	2492.464929
417.415283	2491.721358
417.794834	2493.342089
418.174324	2489.248673
418.553753	2492.147336
418.933121	2491.071050
419.312428	2490.942500
419.691674	2489.951913
420.070859	2491.439054
420.449983	2492.560711
420.829045	2489.611636
421.208047	2494.070536
421.586988	2491.610453
421.965867	2494.355361
422.344686	2490.466111
422.723444	2493.160608
423.102141	2492.008704
423.480777	2494.090701
423.859352	2490.864362
424.237866	2495.149343
424.616319	2492.406955
424.994712	2493.904178
425.373044	2492.354023
425.751314	2492.439723
426.129524	2491.156749
426.507673	2491.670947
426.885762	2490.272027
427.263789	2495.015752
427.641756	2491.681029
428.019662	2494.239415
428.397508	2494.201606
428.775292	2493.274034
429.153016	2494.562049
429.530679	2494.332676
429.908282	2492.848056
430.285824	2494.534322
430.663305	2495.209837
431.040726	2492.631287
431.418086	2492.631287
431.795385	2493.384939
432.172624	2494.738489
432.549802	2493.279075
432.926920	2493.495845
433.303977	2496.122286
433.680974	2493.901658
434.057910	2494.506596
434.434786	2493.798314
434.811601	2497.858963
435.188355	2492.860659
435.565050	2495.151864
435.941683	2495.865187
436.318257	2495.729076
436.694770	2494.995588
437.071222	2495.804693
437.447614	2494.781339
437.823946	2496.757471
438.200218	2495.303098
438.576429	2493.705052
438.952580	2494.413335
439.328670	2494.685557
439.704700	2496.175218
440.080670	2496.475167
440.456580	2495.759323
440.832429	2493.684888
441.208218	2495.653458
441.583947	2496.361741
441.959616	2494.441061
442.335224	2495.338386
442.710773	2498.516834
443.086261	2493.687408
443.461689	2496.719663
443.837057	2496.402070
444.212365	2495.388798
444.587612	2494.927532
444.962800	2493.369816
445.337927	2494.393170
445.712995	2493.556338
446.088002	2495.852584
446.462949	2497.652276
446.837837	2497.828716
447.212664	2494.060454
447.587431	2495.338386
447.962139	2495.915598
448.336786	2500.775271
448.711374	2497.422903
449.085901	2498.068171
449.460369	2496.480208
449.834776	2498.700836
450.209124	2497.301916
450.583412	2496.880979
450.957640	2494.269662
451.331808	2498.196721
451.705917	2498.708398
452.079965	2497.248984
452.453954	2496.840650
452.827883	2498.060609
453.201752	2497.349807
453.575562	2498.347955
453.949311	2498.844509
454.323001	2497.954745
454.696632	2498.569766
455.070202	2496.835609
455.443713	2497.445589
455.817164	2497.175887
456.190556	2497.193531
456.563888	2498.622698
456.937160	2498.005157
457.310373	2498.194200
457.683526	2495.981133
458.056619	2497.117914
458.429653	2497.049858
458.802628	2499.956083
459.175542	2497.100270
459.548398	2499.114211
459.921194	2495.328304
460.293930	2499.424242
460.666607	2499.121772
461.039224	2497.395177
461.411782	2498.879797
461.784280	2496.928870
462.156719	2497.858963
462.529099	2501.612102
462.901419	2501.208810
463.273680	2497.425424
463.645882	2495.209837
464.018024	2496.407111
464.390106	2495.698829
464.762130	2498.756289
465.134094	2496.144971
465.505999	2500.097236
465.877845	2499.343583
466.249631	2496.369302
466.621358	2499.847698
466.993026	2497.213696
467.364634	2503.016064
467.736184	2500.364417
468.107674	2499.378871
468.479105	2500.281238
468.850477	2500.808038
469.221790	2501.339880
469.593043	2499.928357
469.964238	2503.905827
470.335373	2499.288130
470.706449	2501.102946
471.077467	2498.002636
471.448425	2499.328460
471.819324	2503.431959
472.190164	2501.186125
472.560945	2498.489107
472.931667	2499.149499
473.302330	2499.061278
473.672934	2502.436331
474.043479	2501.629746
474.413965	2502.572442
474.784393	2501.448265
475.154761	2502.159067
475.525070	2498.776453
475.895321	2501.004643
476.265513	2496.795280
476.635645	2501.528923
477.005719	2498.728562
477.375734	2504.571260
477.745691	2501.833913
478.115588	2500.863491
478.485427	2501.531444
478.855207	2499.777122
479.224928	2503.048831
479.594591	2503.653770
479.964194	2503.759634
480.333739	2501.831392
480.703226	2501.493635
481.072653	2502.557319
481.442022	2501.286948
481.811333	2502.937926
482.180584	2496.812924
482.549777	2502.713594
482.918912	2499.474653
483.287988	2503.235354
483.657005	2503.250477
484.025964	2503.487412
484.394864	2502.514469
484.763706	2500.225785
485.132489	2502.516989
485.501213	2505.168636
485.869879	2502.360714
486.238487	2501.589417
486.607036	2503.321053
486.975527	2503.235354
487.343959	2503.525220
487.712333	2502.847185
488.080648	2505.322392
488.448905	2501.438182
488.817104	2503.162257
489.185244	2502.955570
489.553326	2503.089160
489.921350	2504.442710
490.289315	2504.089829
490.657222	2503.134531
491.025070	2508.261384
491.392861	2506.118894
491.760593	2504.185611
492.128267	2502.756444
492.495883	2504.520848
492.863440	2503.421877
493.230939	2504.109994
493.598380	2504.069665
493.965763	2502.179232
494.333088	2505.251815
494.700354	2501.901969
495.067563	2506.227279
495.434713	2505.357680
495.801805	2506.945643
496.168839	2504.052021
496.535815	2504.152844
496.902733	2507.220386
497.269593	2506.035715
497.636395	2505.481188
498.003139	2505.337515
498.369825	2506.562515
498.736453	2506.038235
499.103023	2505.889521
499.469535	2505.476147
499.835989	2507.180057
500.202385	2501.627226
500.568723	2500.034221
500.935003	2501.942298
501.301226	2499.719149
501.667390	2507.296003
502.033497	2505.128307
502.399546	2506.237361
502.765537	2502.922802
503.131470	2506.048318
503.497345	2502.504387
503.863163	2507.215345
504.228923	2505.007319
504.594625	2505.967659
504.960269	2507.729543
505.325856	2505.178719
505.691385	2505.032525
506.056856	2504.563698
506.422270	2507.043946
506.787625	2507.311127
507.152924	2507.225427
507.518164	2506.060921
507.883347	2503.777278
508.248472	2504.810714
508.613540	2504.185611
508.978550	2508.861282
509.343503	2503.842813
509.708398	2504.654439
510.073236	2504.304078
510.438016	2507.232989
510.802738	2504.659480
511.167403	2503.842813
511.532010	2502.960611
511.896561	2507.442197
512.261053	2503.938595
512.625488	2506.743997
512.989866	2505.176198
513.354186	2507.157372
513.718449	2507.719460
514.082655	2506.275170
514.446803	2507.812722
514.810894	2507.091837
515.174927	2505.624861
515.538904	2507.535458
515.902822	2508.130314
516.266684	2504.803153
516.630488	2506.597803
516.994235	2505.521517
517.357925	2504.999758
517.721558	2504.702330
518.085133	2506.335663
518.448651	2504.533451
518.812112	2502.393481
519.175516	2506.005468
519.538863	2499.734273
519.902152	2506.446569
520.265385	2507.510252
520.628560	2508.974707
520.991678	2507.134686
521.354739	2506.257526
521.717743	2509.100736
522.080690	2507.041425
522.443580	2508.019409
522.806413	2505.970180
523.169189	2509.486385
523.531908	2506.859943
523.894569	2509.864471
524.257174	2505.423215
524.619722	2506.930520
524.982213	2508.001765
525.344647	2511.865809
525.707025	2511.502846
526.069345	2507.996724
526.431608	2510.295490
526.793815	2510.408916
527.155964	2512.236334
527.518057	2511.659122
527.880093	2512.914369
528.242072	2510.350943
528.603995	2512.248937
528.965860	2513.950326
529.327669	2513.163906
529.689421	2511.477640
530.051117	2514.222549
530.412755	2510.683659
530.774337	2511.472599
531.135862	2514.552744
531.497331	2513.519308
531.858743	2515.800430
532.220098	2515.092148
532.581396	2514.099040
532.942638	2513.390758
533.303824	2516.221366
533.664953	2515.480317
534.026025	2517.350585
534.387040	2517.872344
534.747999	2517.905112
535.108902	2516.906963
535.469748	2517.635410
535.830537	2517.239679
536.191270	2518.046264
536.551947	2515.117353
536.912567	2511.283556
537.273131	2519.306552
537.633638	2515.530728
537.994089	2520.163548
538.354483	2521.171779
538.714821	2520.899557
539.075103	2522.021214
539.435328	2522.016172
539.795497	2521.159176
540.155609	2523.566327
540.515665	2524.322500
540.875665	2524.892151
541.235609	2524.423323
541.595496	2522.845442
541.955328	2526.643952
542.315102	2527.511030
542.674821	2525.396266
543.034483	2528.718387
543.394090	2525.557583
543.753640	2527.044723
544.113134	2528.920033
544.472571	2530.349200
544.831953	2530.485311
545.191278	2528.930115
545.550548	2529.076308
545.909761	2531.246525
546.268918	2531.617050
546.628019	2531.042358
546.987064	2532.779036
547.346053	2529.829961
547.704986	2534.487987
548.063863	2533.888090
548.422684	2532.063192
548.781449	2534.982020
549.140158	2536.189377
549.498811	2533.603265
549.857408	2533.938501
550.215949	2536.731301
550.574434	2535.776002
550.932864	2536.363296
551.291237	2537.109387
551.649555	2536.915303
552.007817	2534.803059
552.366022	2535.707946
552.724173	2539.897145
553.082267	2535.337422
553.440305	2539.680376
553.798288	2540.716333
554.156215	2539.057793
554.514086	2538.533513
554.871902	2536.391023
555.229661	2540.860006
555.587365	2535.970086
555.945014	2542.596683
556.302606	2543.685572
556.660143	2540.928061
557.017625	2541.752290
557.375050	2541.964018
557.732421	2544.043494
558.089735	2544.298073
558.446994	2544.093906
558.804197	2544.971067
559.161345	2546.140614
559.518437	2545.041643
559.875474	2544.131714
560.232455	2543.221786
560.589381	2546.163299
560.946251	2544.875285
561.303065	2547.022816
561.659825	2546.163299
562.016528	2548.046170
562.373177	2545.134904
562.729770	2547.163968
563.086307	2547.035419
563.442789	2550.085317
563.799216	2546.427960
564.155587	2547.660522
564.511904	2547.937786
564.868164	2548.971222
565.224370	2549.591284
565.580520	2551.358208
565.936615	2550.017262
566.292654	2548.295708
566.648638	2550.395348
567.004567	2550.680173
567.360441	2551.030533
567.716260	2550.589432
568.072023	2551.680842
568.427732	2550.917107
568.783385	2551.446429
569.138982	2550.521377
569.494525	2552.865513
569.850013	2550.753270
570.205445	2551.476676
570.560823	2551.093548
570.916145	2552.646223
571.271412	2552.008517
571.626625	2552.860472
571.981782	2553.309135
572.336884	2550.783517
572.691931	2549.757642
573.046923	2550.445760
573.401860	2547.630275
573.756743	2552.978939
574.111570	2554.897098
574.466342	2554.085473
574.821059	2554.944989
575.175722	2551.375853
575.530330	2553.770401
575.884882	2552.983981
576.239380	2552.857952
576.593823	2555.043292
576.948211	2551.297715
577.302544	2551.597663
577.656823	2553.498178
578.011047	2553.311656
578.365216	2552.762170
578.719330	2556.230484
579.073389	2552.318548
579.427394	2553.462890
579.781344	2554.244269
580.135239	2551.544731
580.489080	2555.479352
580.842866	2552.941131
581.196597	2555.504557
581.550273	2551.665719
581.903895	2551.091027
582.257463	2553.916594
582.610975	2553.082283
582.964434	2554.072870
583.317837	2554.803837
583.671186	2556.706873
584.024481	2556.913560
584.377721	2553.785524
584.730906	2554.662685
585.084037	2553.727551
585.437113	2553.225956
585.790135	2552.273178
586.143103	2552.290822
586.496016	2552.542880
586.848874	2556.762325
587.201679	2556.903478
587.554428	2554.307283
587.907124	2555.267623
588.259765	2552.053888
588.612352	2555.081101
588.964884	2551.849721
589.317362	2554.108158
589.669786	2552.421892
590.022155	2554.075390
590.374470	2547.849565
590.726731	2549.455173
591.078937	2548.908208
591.431090	2552.598332
591.783188	2552.399207
592.135232	2554.009855
592.487222	2552.434495
592.839157	2552.089176
593.191038	2552.164793
593.542866	2553.218394
593.894639	2552.452139
594.246358	2554.571944
594.598022	2553.215874
594.949633	2555.381049
595.301190	2552.008517
595.652692	2555.378529
596.004141	2550.828887
596.355535	2552.096737
596.706876	2551.761501
597.058162	2551.733774
597.409395	2554.859290
597.760573	2552.666388
598.111698	2553.488096
598.462768	2552.767211
598.813785	2551.912735
599.164748	2551.267468
599.515657	2553.208312
599.866511	2552.058929
600.217312	2551.824515
600.568060	2549.566078
600.918753	2553.041954
601.269392	2552.247972
601.619978	2553.566234
601.970510	2553.261244
602.320988	2551.597663
602.671412	2552.527756
603.021783	2551.053219
603.372100	2552.109340
603.722363	2554.216543
604.072572	2555.600339
604.422728	2553.931718
604.772830	2554.360216
605.122878	2554.619835
605.472872	2552.142108
605.822813	2553.208312
606.172701	2554.992880
606.522534	2555.116389
606.872314	2557.077398
607.222041	2553.805689
607.571714	2554.997922
607.921333	2554.864331
608.270899	2554.677808
608.620411	2553.324258
608.969870	2556.827860
609.319276	2558.554456
609.668627	2561.140567
610.017926	2562.242060
610.367171	2560.512944
610.716362	2559.045968
611.065500	2562.965465
611.414585	2560.543191
611.763616	2563.361196
612.112594	2561.614436
612.461518	2560.066802
612.810389	2563.449416
613.159207	2564.606361
613.507971	2564.437482
613.856682	2566.264900
614.205340	2566.088460
614.553945	2567.804973
614.902496	2566.348079
615.250994	2568.409911
615.599439	2570.499470
615.947830	2571.139696
616.296169	2570.741445
616.644454	2572.780592
616.992686	2573.110787
617.340864	2578.769482
617.688990	2579.311407
618.037063	2577.892322
618.385082	2583.543455
618.733048	2585.333065
619.080961	2582.527663
619.428821	2589.827253
619.776628	2589.746595
620.124382	2590.414548
620.472083	2590.918663
620.819731	2592.163828
621.167326	2592.811617
621.514868	2590.575865
621.862357	2593.104003
622.209793	2595.211206
622.557176	2595.052409
622.904506	2595.007039
623.251783	2596.247163
623.599007	2595.879159
623.946179	2596.106011
624.293297	2600.814448
624.640363	2595.523757
624.987376	2598.077102
625.334336	2598.435024
625.681243	2601.641197
626.028097	2598.503079
626.374899	2603.889552
626.721647	2610.296859
627.068343	2608.083792
627.414987	2613.442539
627.761577	2612.701489
628.108115	2614.365070
628.454600	2615.353136
628.801032	2618.397993
629.147412	2619.126440
629.493739	2621.498302
629.840014	2624.545680
630.186236	2628.351751
630.532405	2629.932153
630.878521	2634.862401
631.224585	2640.929430
631.570597	2639.845582
631.916556	2647.084679
632.262462	2648.791109
632.608316	2654.873262
632.954117	2657.570279
633.299866	2659.906854
633.645562	2662.422389
633.991206	2667.244253
634.336797	2664.234684
634.682336	2666.903975
635.027823	2666.896413
635.373257	2669.396826
635.718639	2671.630057
636.063968	2676.323371
636.409245	2672.008143
636.754470	2673.553257
637.099642	2678.354956
637.444762	2676.981242
637.789829	2681.082220
638.134845	2685.115143
638.479808	2684.951306
638.824719	2693.286854
639.169577	2695.709128
639.514383	2696.283820
639.859137	2699.217771
640.203839	2703.419573
640.548489	2708.173381
640.893086	2711.808053
641.237632	2714.653784
641.582125	2719.934393
641.926566	2724.358006
642.270955	2727.032338
642.615292	2728.912688
642.959576	2735.940057
643.303809	2739.567167
643.647990	2751.567633
643.992118	2754.743560
644.336195	2756.964189
