Dividing Wavelength (nm)	Counts (n)	Blue Motor Position (mm): 48.200000	Red Motor Position (mm): 0.000000	
326.493990	2279.995418
326.888308	2279.995418
327.282561	2279.995418
327.676750	2239.406567
328.070874	2239.240209
328.464933	2238.176526
328.858929	2242.027967
329.252859	2247.374111
329.646726	2256.727972
330.040528	2267.667276
330.434265	2279.637496
330.827938	2298.589713
331.221547	2316.813485
331.615091	2334.170177
332.008571	2350.485872
332.401986	2370.801722
332.795338	2391.820813
333.188625	2412.781930
333.581847	2430.917481
333.975006	2450.527570
334.368100	2469.126907
334.761129	2486.617190
335.154095	2505.340036
335.546996	2530.313912
335.939833	2572.982238
336.332606	2587.500761
336.725315	2599.508789
337.117960	2611.468927
337.510540	2622.146091
337.903056	2634.408698
338.295508	2642.719040
338.687896	2650.835297
339.080220	2656.335196
339.472480	2662.455157
339.864676	2668.368430
340.256807	2672.968483
340.648875	2677.092147
341.040879	2677.969308
341.432818	2683.748991
341.824694	2686.418282
342.216506	2686.844259
342.608253	2687.441636
342.999937	2686.133457
343.391557	2688.638910
343.783113	2690.141174
344.174605	2685.490709
344.566033	2686.496420
344.957397	2686.693025
345.348697	2685.699917
345.739934	2683.464166
346.131106	2683.282684
346.522215	2681.843435
346.913260	2679.423681
347.304241	2675.078206
347.695159	2674.072496
348.086012	2671.751045
348.476802	2669.351455
348.867528	2665.794921
349.258191	2663.838954
349.648789	2661.141936
350.039324	2660.284940
350.429796	2665.414314
350.820203	2661.262924
351.210548	2662.296361
351.600828	2659.422903
351.991045	2658.457522
352.381198	2659.765701
352.771288	2660.859632
353.161314	2659.238901
353.551276	2658.235711
353.941175	2658.364261
354.331010	2656.821667
354.720782	2657.779487
355.110490	2655.422747
355.500135	2656.927532
355.889717	2656.902326
356.279235	2660.511792
356.668689	2657.877789
357.058080	2659.601864
357.447408	2655.992398
357.836672	2657.154384
358.225873	2659.453150
358.615010	2659.304436
359.004084	2659.044816
359.393095	2661.300733
359.782043	2663.755775
360.170927	2662.276196
360.559748	2661.020949
360.948505	2662.087153
361.337199	2662.354334
361.725830	2665.590755
362.114398	2664.509427
362.502903	2664.617812
362.891344	2666.989675
363.279722	2666.767864
363.668037	2667.065292
364.056289	2668.922957
364.444478	2667.839109
364.832603	2670.836075
365.220665	2670.770540
365.608665	2671.884635
365.996601	2670.281548
366.384474	2670.392454
366.772284	2673.185253
367.160031	2673.586025
367.547715	2674.064934
367.935336	2672.151816
368.322893	2672.784481
368.710388	2672.996210
369.097820	2672.797084
369.485189	2673.540654
369.872495	2679.950481
370.259738	2678.317147
370.646918	2683.101202
371.034035	2684.631193
371.421090	2689.130422
371.808081	2693.296936
372.195010	2700.967052
372.581875	2705.635160
372.968678	2716.105637
373.355418	2726.891185
373.742096	2737.747310
374.128710	2753.783221
374.515262	2765.642535
374.901751	2782.868158
375.288177	2798.203348
375.674540	2818.587253
376.060841	2841.816890
376.447079	2862.967051
376.833254	2890.335475
377.219367	2909.985893
377.605417	2945.964608
377.991404	2966.305664
378.377329	3006.329905
378.763191	3025.241793
379.148991	3073.972107
379.534727	3110.888477
379.920402	3148.699651
380.306013	3168.685306
380.691563	3234.190059
381.077049	3252.149169
381.462474	3296.876807
381.847835	3354.159438
382.233134	3396.089235
382.618371	3422.036054
383.003545	3490.928462
383.388657	3513.752286
383.773706	3575.667738
384.158693	3602.325359
384.543618	3635.420534
384.928480	3692.055377
385.313280	3747.767689
385.698017	3772.862553
386.082692	3864.230946
386.467305	3861.433105
386.851856	3901.759816
387.236344	3978.297134
387.620770	4004.987523
388.005133	4055.719175
388.389435	4100.464456
388.773674	4110.254377
389.157851	4184.661808
389.541965	4254.406171
389.926018	4217.817477
390.310008	4320.672138
390.693936	4372.510323
391.077802	4408.012649
391.461606	4404.872011
391.845348	4470.714521
392.229027	4532.004869
392.612645	4530.033778
392.996200	4632.356598
393.379694	4690.216442
393.763125	4794.485147
394.146494	4825.165610
394.529801	4882.170977
394.913047	4964.878668
395.296230	4915.049383
395.679351	5019.184498
396.062410	5075.995781
396.445408	5045.259866
396.828343	5108.559114
397.211217	5159.431918
397.594028	5046.391605
397.976778	5161.077855
398.359466	5211.010484
398.742092	5233.161314
399.124656	5154.010157
399.507158	5273.760246
399.889598	5337.500596
400.271977	5451.455878
400.654294	5447.894303
401.036549	5504.057798
401.418742	5419.777267
401.800874	5621.425942
402.182944	5687.250808
402.564952	5789.770233
402.946898	5852.162074
403.328783	5686.313154
403.710606	5713.502617
404.092367	6031.100350
404.474067	6054.022477
404.855705	5950.222599
405.237282	5885.279934
405.618797	6147.898844
406.000250	6115.365757
406.381642	6332.153017
406.762972	6353.398960
407.144240	6404.191105
407.525447	6390.348097
407.906593	6398.260188
408.287677	6570.914666
408.668700	6482.467622
409.049661	6592.148006
409.430560	6617.036183
409.811399	6481.809751
410.192176	6748.985864
410.572891	6771.169461
410.953545	6961.573842
411.334138	6684.738879
411.714669	6862.351332
412.095139	6648.656820
412.475547	6896.991620
412.855894	6970.612631
413.236180	7162.115983
413.616405	6814.591440
413.996568	7028.285952
414.376670	7087.499345
414.756711	6983.792728
415.136691	7085.233346
415.516609	7284.207688
415.896466	7265.376458
416.276262	7475.683314
416.655997	7467.095709
417.035670	7628.760471
417.415283	7972.620096
417.794834	8047.571971
418.174324	7907.188439
418.553753	7826.282961
418.933121	8121.021583
419.312428	8229.524858
419.691674	7995.045669
420.070859	8477.821849
420.449983	8155.435019
420.829045	8521.596708
421.208047	8285.557283
421.586988	8613.872509
421.965867	8632.514696
422.344686	8720.079538
422.723444	8804.483577
423.102141	8128.351420
423.480777	8899.615191
423.859352	8421.910412
424.237866	9044.112305
424.616319	8910.196573
424.994712	9339.171039
425.373044	8870.421869
425.751314	9366.015183
426.129524	9246.391123
426.507673	9318.819901
426.885762	9478.485846
427.263789	9398.722190
427.641756	9343.506432
428.019662	9419.849665
428.397508	9693.773362
428.775292	9347.206638
429.153016	9743.176670
429.530679	9568.215864
429.908282	9578.651053
430.285824	9302.771388
430.663305	10002.027317
431.040726	9450.081465
431.418086	9423.532228
431.795385	9757.188557
432.172624	9863.254434
432.549802	9762.748950
432.926920	9841.123769
433.303977	9702.509682
433.680974	9910.729501
434.057910	10017.486016
434.434786	10089.957643
434.811601	9907.840919
435.188355	10462.887081
435.565050	10226.356143
435.941683	10135.380960
436.318257	10608.712539
436.694770	10800.251179
437.071222	10832.154121
437.447614	10658.483851
437.823946	10592.117060
438.200218	10672.591520
438.576429	10525.127687
438.952580	10782.040011
439.328670	10786.108222
439.704700	10594.483882
440.080670	10583.857130
440.456580	11097.167579
440.832429	10899.879503
441.208218	10496.040230
441.583947	10776.426686
441.959616	10976.605864
442.335224	10789.957143
442.710773	10883.125228
443.086261	11123.991558
443.461689	10385.230627
443.837057	11082.079405
444.212365	11298.241562
444.587612	10939.873497
444.962800	11138.610905
445.337927	10882.747141
445.712995	10579.279762
446.088002	11602.412182
446.462949	11313.412914
446.837837	11273.923036
447.212664	11182.330311
447.587431	11790.512755
447.962139	12568.110736
448.336786	14867.577610
448.711374	15331.630945
449.085901	13132.722488
449.460369	12791.176753
449.834776	12234.545148
450.209124	13195.729349
450.583412	13617.021096
450.957640	14533.119738
451.331808	13555.261921
451.705917	12648.297850
452.079965	11869.764735
452.453954	12789.621557
452.827883	12458.631998
453.201752	12738.572312
453.575562	12306.074080
453.949311	12709.515102
454.323001	12706.329092
454.696632	12941.342643
455.070202	13211.732492
455.443713	13392.246129
455.817164	13900.291093
456.190556	13862.101832
456.563888	14228.487852
456.937160	14355.295557
457.310373	13725.360534
457.683526	13844.389738
458.056619	13354.200541
458.429653	13588.200820
458.802628	12926.453596
459.175542	13340.864168
459.548398	14297.541578
459.921194	14671.880018
460.293930	14749.531431
460.666607	15573.404684
461.039224	16647.777912
461.411782	17376.091052
461.784280	17129.588712
462.156719	17250.899038
462.529099	16905.932880
462.901419	15874.333842
463.273680	15633.780063
463.645882	15544.460899
464.018024	15261.145532
464.390106	15496.829557
464.762130	16198.170003
465.134094	17010.168818
465.505999	19098.426470
465.877845	22381.021687
466.249631	25168.129456
466.621358	24750.376598
466.993026	23332.801616
467.364634	22730.242579
467.736184	21254.316241
468.107674	20478.817901
468.479105	20601.005388
468.850477	20053.208405
469.221790	19672.681948
469.593043	18965.776068
469.964238	18386.025732
470.335373	18027.778654
470.706449	18545.331234
471.077467	18147.783321
471.448425	20043.544513
471.819324	24200.343864
472.190164	25965.473636
472.560945	22250.899424
472.931667	19986.312294
473.302330	19392.250122
473.672934	19051.679850
474.043479	19251.564121
474.413965	19062.964473
474.784393	18647.822933
475.154761	19446.739953
475.525070	19335.511935
475.895321	19071.461338
476.265513	19681.909780
476.635645	20268.004409
477.005719	20014.875471
477.375734	20198.270128
477.745691	20683.445897
478.115588	21246.121846
478.485427	21817.458496
478.855207	22921.690479
479.224928	24716.603388
479.594591	26947.089633
479.964194	26828.468763
480.333739	27053.710037
480.703226	26648.945713
481.072653	26374.268363
481.442022	27023.596705
481.811333	27954.702861
482.180584	27801.358523
482.549777	26861.216098
482.918912	26543.802367
483.287988	26689.590016
483.657005	26293.415817
484.025964	26088.258500
484.394864	25948.003517
484.763706	25583.276037
485.132489	25079.243831
485.501213	25244.298770
485.869879	25160.706357
486.238487	25020.521950
486.607036	25132.647294
486.975527	24900.721450
487.343959	25185.443298
487.712333	25091.869401
488.080648	24760.806745
488.448905	25265.827017
488.817104	25044.008686
489.185244	25748.320893
489.553326	25698.312647
489.921350	26763.039627
490.289315	29143.853080
490.657222	30821.528916
491.025070	31321.850832
491.392861	31078.393348
491.760593	30194.747135
492.128267	29275.966599
492.495883	28203.977837
492.863440	27331.777563
493.230939	26474.216800
493.598380	26311.596738
493.965763	25927.712873
494.333088	25426.639825
494.700354	25416.686067
495.067563	25232.247891
495.434713	24990.995912
495.801805	25190.555028
496.168839	24940.788541
496.535815	24823.057434
496.902733	25047.477000
497.269593	24763.067703
497.636395	24918.186527
498.003139	24836.361039
498.369825	24578.879065
498.736453	24795.880573
499.103023	24652.164839
499.469535	24655.166846
499.835989	24878.250507
500.202385	24892.640480
500.568723	24459.749038
500.935003	24612.730413
501.301226	24325.394726
501.667390	25170.892008
502.033497	25356.451840
502.399546	25101.528252
502.765537	24612.692604
503.131470	25001.927654
503.497345	25146.981815
503.863163	24411.822788
504.228923	24936.309475
504.594625	25194.953435
504.960269	24757.761888
505.325856	25228.111625
505.691385	24621.683502
506.056856	25227.050462
506.422270	25230.818724
506.787625	24740.972326
507.152924	25183.953637
507.518164	25219.123247
507.883347	25039.247316
508.248472	24705.855648
508.613540	25472.378214
508.978550	25274.790189
509.343503	25317.516488
509.708398	25492.326059
510.073236	25663.359807
510.438016	25870.372269
510.802738	25528.370309
511.167403	25779.714678
511.532010	25548.585336
511.896561	26278.541893
512.261053	26255.556752
512.625488	26075.252323
512.989866	25964.483049
513.354186	25803.030015
513.718449	25939.443638
514.082655	26309.552551
514.446803	26017.808375
514.810894	26512.567378
515.174927	25998.914130
515.538904	26043.518259
515.902822	26546.151545
516.266684	26291.048995
516.630488	26206.314761
516.994235	26127.957586
517.357925	26485.060322
517.721558	26640.673179
518.085133	26763.251356
518.448651	26643.660063
518.812112	26429.000170
519.175516	26648.502091
519.538863	26796.419627
519.902152	26600.941325
520.265385	26836.786667
520.628560	26650.939489
520.991678	26619.656609
521.354739	26679.663984
521.717743	26786.932176
522.080690	26551.739664
522.443580	26876.543727
522.806413	26836.164084
523.169189	26969.369013
523.531908	27013.466506
523.894569	26640.698385
524.257174	26739.867963
524.619722	26866.095935
524.982213	26578.823263
525.344647	26605.649763
525.707025	26769.940967
526.069345	26712.552471
526.431608	26695.334410
526.793815	26857.926745
527.155964	26368.055141
527.518057	26540.739866
527.880093	26441.620699
528.242072	26677.970156
528.603995	26394.153194
528.965860	26176.526583
529.327669	26212.608642
529.689421	26206.476078
530.051117	26064.134058
530.412755	26233.405922
530.774337	26008.109195
531.135862	25907.699492
531.497331	26085.324548
531.858743	25684.925863
532.220098	26124.436340
532.581396	25836.657032
532.942638	25715.626490
533.303824	25844.763207
533.664953	25830.252246
534.026025	25494.040052
534.387040	25742.957105
534.747999	25778.250223
535.108902	25944.762055
535.469748	25448.331910
535.830537	25595.321874
536.191270	25749.089669
536.551947	25560.711832
536.912567	25177.952144
537.273131	25639.437011
537.633638	25304.318747
537.994089	25517.151222
538.354483	25001.237016
538.714821	25524.488621
539.075103	25574.406126
539.435328	25324.223743
539.795497	24946.341372
540.155609	25254.973413
540.515665	25589.252324
540.875665	24797.924761
541.235609	25145.477031
541.595496	25065.179012
541.955328	25445.236641
542.315102	25359.085843
542.674821	24861.778536
543.034483	24738.905452
543.394090	24920.076960
543.753640	24741.539455
544.113134	25360.089032
544.472571	24942.043788
544.831953	25247.164666
545.191278	24903.312603
545.550548	24794.189266
545.909761	25002.782130
546.268918	25226.937036
546.628019	25226.102725
546.987064	24884.246959
547.346053	24613.428613
547.704986	24715.040630
548.063863	24876.405444
548.422684	24900.910493
548.781449	24392.812597
549.140158	24805.781399
549.498811	24386.490990
549.857408	24159.016484
550.215949	24537.115626
550.574434	24251.035186
550.932864	24425.927937
551.291237	24642.294260
551.649555	24454.780981
552.007817	24535.762076
552.366022	24386.508634
552.724173	24379.652665
553.082267	24362.714388
553.440305	24834.732746
553.798288	24051.135792
554.156215	24557.126486
554.514086	24700.113774
554.871902	24109.915646
555.229661	24360.937381
555.587365	24209.516243
555.945014	24125.628922
556.302606	24311.629855
556.660143	24333.047198
557.017625	24548.072574
557.375050	24073.652106
557.732421	24444.784373
558.089735	24276.102324
558.446994	24329.646939
558.804197	24366.999369
559.161345	24240.136212
559.518437	24067.504419
559.875474	24220.468150
560.232455	24401.213680
560.589381	24212.626635
560.946251	24226.998965
561.303065	24512.978581
561.659825	24608.074907
562.016528	24212.737540
562.373177	23936.930972
562.729770	24308.383352
563.086307	24141.972343
563.442789	24320.736700
563.799216	24179.395349
564.155587	24163.853472
564.511904	24139.345902
564.868164	24105.003042
565.224370	24067.270005
565.580520	24016.994578
565.936615	24130.390292
566.292654	23831.328882
566.648638	24056.149220
567.004567	23900.601897
567.360441	23820.134999
567.716260	23546.493607
568.072023	23851.874104
568.427732	23642.444409
568.783385	23386.086612
569.138982	23664.363346
569.494525	23690.297562
569.850013	23453.358290
570.205445	23558.889804
570.560823	23383.069482
570.916145	23148.204644
571.271412	23344.774356
571.626625	23091.000151
571.981782	23198.540566
572.336884	22994.562878
572.691931	23143.009735
573.046923	22879.811093
573.401860	22752.353080
573.756743	22801.481645
574.111570	22688.796733
574.466342	22602.320780
574.821059	22685.915713
575.175722	22395.635992
575.530330	22332.659378
575.884882	22337.483762
576.239380	22258.473758
576.593823	22161.983553
576.948211	22120.598200
577.302544	21988.512408
577.656823	21842.132424
578.011047	21960.433181
578.365216	21819.086789
578.719330	21706.298533
579.073389	21576.135941
579.427394	21739.285323
579.781344	21491.684011
580.135239	21375.019108
580.489080	21317.265129
580.842866	21103.371492
581.196597	21330.379691
581.550273	21270.846185
581.903895	21151.461579
582.257463	21456.907611
582.610975	21003.763333
582.964434	21338.203562
583.317837	20996.083135
583.671186	21078.321999
584.024481	21066.989485
584.377721	20832.752271
584.730906	20933.114083
585.084037	20909.433262
585.437113	20834.206644
585.790135	21042.736494
586.143103	20491.617391
586.496016	20519.492451
586.848874	20752.877709
587.201679	20654.721403
587.554428	20372.121880
587.907124	20703.701253
588.259765	20450.045515
588.612352	20531.412259
588.964884	20094.679457
589.317362	20258.360682
589.669786	20322.824436
590.022155	20298.836106
590.374470	20566.044986
590.726731	20311.985956
591.078937	20130.569952
591.431090	20182.304793
591.783188	19975.405757
592.135232	19919.632952
592.487222	20013.161479
592.839157	20028.589930
593.191038	19902.412370
593.542866	19801.962339
593.894639	19487.185131
594.246358	19704.080775
594.598022	19598.239229
594.949633	19358.981027
595.301190	19345.243882
595.652692	19515.229070
596.004141	19723.554752
596.355535	19061.137055
596.706876	19078.392924
597.058162	18972.064907
597.409395	19221.793587
597.760573	19263.821686
598.111698	19021.405201
598.462768	18997.013578
598.813785	18970.635740
599.164748	18743.829187
599.515657	18818.670157
599.866511	18612.418910
600.217312	18954.867011
600.568060	18464.062793
600.918753	18771.915976
601.269392	18683.620167
601.619978	18478.051995
601.970510	18656.118152
602.320988	18600.859544
602.671412	18799.155851
603.021783	18752.414273
603.372100	18440.850800
603.722363	18611.014948
604.072572	18546.341986
604.422728	18700.734884
604.772830	18446.569989
605.122878	18404.612466
605.472872	18375.096510
605.822813	18372.548207
606.172701	18365.835910
606.522534	18533.855048
606.872314	18564.149862
607.222041	18405.164472
607.571714	18613.974106
607.921333	18447.321121
608.270899	18511.623559
608.620411	18657.935488
608.969870	18474.369432
609.319276	18460.377710
609.668627	18491.852154
610.017926	18610.901522
610.367171	18726.618688
610.716362	18798.326581
611.065500	18599.072455
611.414585	18757.513400
611.763616	18731.697651
612.112594	18673.429474
612.461518	18660.544285
612.810389	18833.516356
613.159207	18690.798770
613.507971	18614.190875
613.856682	18840.395010
614.205340	18762.521786
614.553945	18936.108877
614.902496	18666.432353
615.250994	18874.236276
615.599439	18832.188012
615.947830	18806.442839
616.296169	18882.854128
616.644454	18845.131174
616.992686	18823.146702
617.340864	19049.867555
617.688990	18783.740002
618.037063	18967.137179
618.385082	18832.487960
618.733048	19091.814996
619.080961	18986.560745
619.428821	19016.976547
619.776628	18885.568790
620.124382	18831.111725
620.472083	18876.028406
620.819731	18872.943220
621.167326	18576.500688
621.514868	18611.322459
621.862357	18404.907373
622.209793	18394.454541
622.557176	18237.808247
622.904506	18054.637922
623.251783	17994.179364
623.599007	17739.596053
623.946179	17683.331735
624.293297	17603.303418
624.640363	17329.840986
624.987376	17362.348867
625.334336	17165.658167
625.681243	17009.417686
626.028097	17041.413890
626.374899	16945.838654
626.721647	16821.216290
627.068343	16655.506001
627.414987	16589.159375
627.761577	16544.114145
628.108115	16572.871407
628.454600	16310.524720
628.801032	16411.458702
629.147412	16346.919330
629.493739	16361.347112
629.840014	16160.719272
630.186236	16260.781134
630.532405	16023.937644
630.878521	16216.471912
631.224585	16127.961854
631.570597	15952.237313
631.916556	15979.177239
632.262462	15946.949143
632.608316	15869.529623
632.954117	15821.038764
633.299866	15799.518078
633.645562	15722.900101
633.991206	15486.036447
634.336797	15359.155645
634.682336	15330.005173
635.027823	15183.166444
635.373257	15062.065326
635.718639	14972.983096
636.063968	14918.876392
