Dividing Wavelength (nm)	Counts (n)	Blue Motor Position (mm): 6.400000	Red Motor Position (mm): 0.000000	
326.493990	2062.525082
326.888308	2062.525082
327.282561	2062.525082
327.676750	2039.706299
328.070874	2038.410722
328.464933	2043.537576
328.858929	2054.645758
329.252859	2064.967521
329.646726	2079.360015
330.040528	2095.746286
330.434265	2111.883019
330.827938	2133.741462
331.221547	2153.270892
331.615091	2174.025323
332.008571	2195.384691
332.401986	2214.795654
332.795338	2234.393140
333.188625	2252.800913
333.581847	2272.075765
333.975006	2292.626028
334.368100	2309.125725
334.761129	2324.987716
335.154095	2342.150324
335.546996	2357.787983
335.939833	2376.747763
336.332606	2391.546070
336.725315	2404.590055
337.117960	2411.146076
337.510540	2423.476738
337.903056	2431.439241
338.295508	2439.031218
338.687896	2444.843669
339.080220	2448.924483
339.472480	2454.923456
339.864676	2457.960751
340.256807	2460.224229
340.648875	2464.352934
341.040879	2463.180866
341.432818	2463.571555
341.824694	2465.061216
342.216506	2462.863273
342.608253	2464.920064
342.999937	2464.509210
343.391557	2462.643983
343.783113	2462.316308
344.174605	2459.543673
344.566033	2458.885803
344.957397	2460.715742
345.348697	2457.738940
345.739934	2455.619135
346.131106	2450.893053
346.522215	2452.047478
346.913260	2450.391459
347.304241	2447.371807
347.695159	2443.994234
348.086012	2445.793926
348.476802	2445.166303
348.867528	2437.607092
349.258191	2435.933429
349.648789	2438.524583
350.039324	2434.050558
350.429796	2436.200611
350.820203	2438.481733
351.210548	2434.879828
351.600828	2434.496701
351.991045	2435.000816
352.381198	2434.748758
352.771288	2432.901175
353.161314	2433.891762
353.551276	2434.370672
353.941175	2433.637184
354.331010	2435.300765
354.720782	2433.987544
355.110490	2436.989551
355.500135	2434.670620
355.889717	2437.440734
356.279235	2435.106680
356.668689	2437.705395
357.058080	2438.464089
357.447408	2437.176074
357.836672	2438.658173
358.225873	2438.600200
358.615010	2436.518203
359.004084	2439.968873
359.393095	2442.194542
359.782043	2437.783533
360.170927	2439.132042
360.559748	2439.275714
360.948505	2440.820828
361.337199	2441.493822
361.725830	2441.748400
362.114398	2440.599017
362.502903	2443.396858
362.891344	2442.491971
363.279722	2444.258895
363.668037	2444.788216
364.056289	2445.912393
364.444478	2444.717640
364.832603	2445.158741
365.220665	2447.061777
365.608665	2448.140583
365.996601	2444.589091
366.384474	2446.255192
366.772284	2448.261571
367.160031	2445.869544
367.547715	2448.866510
367.935336	2448.286777
368.322893	2444.581529
368.710388	2444.626899
369.097820	2447.374328
369.485189	2444.054728
369.872495	2450.094031
370.259738	2447.976746
370.646918	2447.439863
371.034035	2446.580346
371.421090	2448.057404
371.808081	2449.819288
372.195010	2447.626386
372.581875	2450.502364
372.968678	2451.911367
373.355418	2450.658640
373.742096	2451.140070
374.128710	2452.496140
374.515262	2450.343568
374.901751	2455.893878
375.288177	2450.096551
375.674540	2453.171655
376.060841	2452.143260
376.447079	2452.274330
376.833254	2452.125616
377.219367	2453.726182
377.605417	2452.859103
377.991404	2451.929011
378.377329	2451.293825
378.763191	2455.220884
379.148991	2455.684670
379.534727	2453.242231
379.920402	2454.482355
380.306013	2453.428754
380.691563	2456.173662
381.077049	2452.929680
381.462474	2452.813733
381.847835	2455.911522
382.233134	2457.050823
382.618371	2455.692232
383.003545	2457.575103
383.388657	2454.835236
383.773706	2456.897068
384.158693	2459.659620
384.543618	2457.249948
384.928480	2457.456636
385.313280	2457.706173
385.698017	2456.826492
386.082692	2459.478138
386.467305	2456.403035
386.851856	2458.164918
387.236344	2460.680454
387.620770	2455.924125
388.005133	2454.868003
388.389435	2454.595781
388.773674	2454.293312
389.157851	2457.489403
389.541965	2458.923612
389.926018	2459.468056
390.310008	2461.923098
390.693936	2461.850001
391.077802	2461.555094
391.461606	2458.338838
391.845348	2459.919239
392.229027	2461.716411
392.612645	2461.366051
392.996200	2463.132975
393.379694	2462.356637
393.763125	2459.667182
394.146494	2463.606843
394.529801	2461.746658
394.913047	2460.539301
395.296230	2462.051647
395.679351	2460.196503
396.062410	2462.981740
396.445408	2463.364868
396.828343	2463.828654
397.211217	2463.921916
397.594028	2463.571555
397.976778	2464.935187
398.359466	2465.257821
398.742092	2464.668006
399.124656	2462.490228
399.507158	2467.170939
399.889598	2466.293778
400.271977	2464.176494
400.654294	2465.053655
401.036549	2464.980558
401.418742	2465.817389
401.800874	2464.257152
402.182944	2467.428038
402.564952	2466.802935
402.946898	2465.870322
403.328783	2466.384519
403.710606	2468.731176
404.092367	2465.575414
404.474067	2466.618933
404.855705	2467.516258
405.237282	2468.640436
405.618797	2470.344346
406.000250	2469.444500
406.381642	2467.617081
406.762972	2467.649849
407.144240	2464.869653
407.525447	2467.054993
407.906593	2463.755557
408.287677	2466.971814
408.668700	2467.848974
409.049661	2466.656742
409.430560	2468.509366
409.811399	2468.504324
410.192176	2466.752523
410.572891	2467.546505
410.953545	2469.865436
411.334138	2468.930302
411.714669	2471.042545
412.095139	2469.472226
412.475547	2466.452575
412.855894	2470.112453
413.236180	2469.217648
413.616405	2470.624130
413.996568	2467.654890
414.376670	2471.619758
414.756711	2470.452730
415.136691	2471.508852
415.516609	2469.925930
415.896466	2470.248564
416.276262	2467.980044
416.655997	2472.660756
417.035670	2471.382823
417.415283	2472.058338
417.794834	2471.350056
418.174324	2471.279480
418.553753	2472.146558
418.933121	2473.124542
419.312428	2469.837710
419.691674	2472.343163
420.070859	2471.090436
420.449983	2471.723101
420.829045	2470.908955
421.208047	2472.859881
421.586988	2472.456589
421.965867	2472.149079
422.344686	2474.669656
422.723444	2473.540437
423.102141	2472.564974
423.480777	2472.784264
423.859352	2472.706126
424.237866	2474.150417
424.616319	2474.551188
424.994712	2474.891466
425.373044	2474.536065
425.751314	2469.046248
426.129524	2471.017340
426.507673	2472.880046
426.885762	2470.188070
427.263789	2474.042032
427.641756	2474.072279
428.019662	2474.793164
428.397508	2473.232927
428.775292	2475.796353
429.153016	2475.420788
429.530679	2475.075468
429.908282	2475.960191
430.285824	2476.083699
430.663305	2473.089254
431.040726	2478.039667
431.418086	2474.468009
431.795385	2476.033288
432.172624	2476.182002
432.549802	2477.381796
432.926920	2476.676035
433.303977	2476.751652
433.680974	2474.785602
434.057910	2477.974132
434.434786	2476.055973
434.811601	2476.207207
435.188355	2477.356591
435.565050	2474.803246
435.941683	2477.200315
436.318257	2477.104533
436.694770	2474.720067
437.071222	2478.765593
437.447614	2479.771303
437.823946	2479.347846
438.200218	2475.768627
438.576429	2477.301138
438.952580	2475.977835
439.328670	2479.725933
439.704700	2477.946406
440.080670	2476.542444
440.456580	2476.817187
440.832429	2480.383803
441.208218	2480.179637
441.583947	2475.534213
441.959616	2476.673514
442.335224	2479.120994
442.710773	2476.305510
443.086261	2477.308700
443.461689	2477.109574
443.837057	2482.100316
444.212365	2478.347177
444.587612	2479.017651
444.962800	2474.871302
445.337927	2475.103195
445.712995	2475.277115
446.088002	2480.580408
446.462949	2478.596714
446.837837	2482.455718
447.212664	2480.487147
447.587431	2480.565285
447.962139	2479.904894
448.336786	2480.035964
448.711374	2479.128556
449.085901	2481.480254
449.460369	2479.151241
449.834776	2480.325830
450.209124	2478.674852
450.583412	2482.591829
450.957640	2479.456231
451.331808	2483.383290
451.705917	2480.161993
452.079965	2480.199801
452.453954	2482.803557
452.827883	2481.071921
453.201752	2480.479585
453.575562	2479.156283
453.949311	2483.534525
454.323001	2480.991263
454.696632	2479.975470
455.070202	2480.847590
455.443713	2479.665439
455.817164	2479.952785
456.190556	2481.936479
456.563888	2483.400934
456.937160	2479.799030
457.310373	2480.633341
457.683526	2482.175934
458.056619	2482.075111
458.429653	2482.916983
458.802628	2480.492188
459.175542	2483.143835
459.548398	2481.074442
459.921194	2482.349853
460.293930	2481.697024
460.666607	2481.220635
461.039224	2481.581077
461.411782	2483.779021
461.784280	2480.981180
462.156719	2481.545789
462.529099	2483.481593
462.901419	2483.789103
463.273680	2479.017651
463.645882	2478.412712
464.018024	2482.614514
464.390106	2477.459934
464.762130	2483.448825
465.134094	2480.023361
465.505999	2482.145687
465.877845	2483.595018
466.249631	2483.249699
466.621358	2482.536376
466.993026	2481.694503
467.364634	2488.142139
467.736184	2481.954123
468.107674	2484.701552
468.479105	2485.334217
468.850477	2487.133908
469.221790	2484.126860
469.593043	2484.578043
469.964238	2484.338589
470.335373	2482.102837
470.706449	2484.956130
471.077467	2482.007055
471.448425	2482.317086
471.819324	2483.647951
472.190164	2483.020327
472.560945	2485.591315
472.931667	2483.292549
473.302330	2485.036788
473.672934	2482.422950
474.043479	2486.846563
474.413965	2485.334217
474.784393	2484.671305
475.154761	2486.060143
475.525070	2484.434371
475.895321	2485.467807
476.265513	2485.961840
476.635645	2485.455204
477.005719	2483.037971
477.375734	2484.376397
477.745691	2486.231542
478.115588	2483.416057
478.485427	2485.815647
478.855207	2486.029896
479.224928	2488.366471
479.594591	2483.184164
479.964194	2486.501244
480.333739	2483.917652
480.703226	2487.479227
481.072653	2485.341778
481.442022	2486.811275
481.811333	2481.308855
482.180584	2480.247692
482.549777	2482.818681
482.918912	2479.642754
483.287988	2486.549135
483.657005	2482.574185
484.025964	2486.115595
484.394864	2485.729947
484.763706	2487.988384
485.132489	2486.609628
485.501213	2486.153404
485.869879	2484.552838
486.238487	2486.518888
486.607036	2486.183651
486.975527	2488.041316
487.343959	2486.095431
487.712333	2483.776500
488.080648	2487.080976
488.448905	2487.650627
488.817104	2485.364463
489.185244	2488.091728
489.553326	2486.786069
489.921350	2491.318066
490.289315	2488.371512
490.657222	2485.404793
491.025070	2488.633652
491.392861	2486.332365
491.760593	2488.245483
492.128267	2488.777325
492.495883	2486.602067
492.863440	2485.913949
493.230939	2490.239259
493.598380	2488.671460
493.965763	2487.005359
494.333088	2489.170535
494.700354	2485.848414
495.067563	2486.599546
495.434713	2486.372694
495.801805	2490.508961
496.168839	2487.580051
496.535815	2487.640544
496.902733	2487.859835
497.269593	2487.091059
497.636395	2487.151553
498.003139	2486.599546
498.369825	2487.408651
498.736453	2489.089876
499.103023	2488.603405
499.469535	2488.416882
499.835989	2488.457211
500.202385	2485.866058
500.568723	2486.087869
500.935003	2489.178096
501.301226	2481.896150
501.667390	2490.125833
502.033497	2489.798158
502.399546	2488.172386
502.765537	2490.375370
503.131470	2486.581902
503.497345	2488.283292
503.863163	2488.104331
504.228923	2487.459063
504.594625	2484.671305
504.960269	2491.754126
505.325856	2488.434526
505.691385	2490.718169
506.056856	2489.835967
506.422270	2490.501399
506.787625	2488.835298
507.152924	2492.590957
507.518164	2487.471666
507.883347	2490.292191
508.248472	2488.353868
508.613540	2486.110554
508.978550	2487.980822
509.343503	2489.500730
509.708398	2490.259424
510.073236	2487.043168
510.438016	2486.332365
510.802738	2486.949906
511.167403	2488.989053
511.532010	2492.255721
511.896561	2487.902684
512.261053	2487.320431
512.625488	2489.314207
512.989866	2491.176914
513.354186	2487.131388
513.718449	2489.692294
514.082655	2485.518219
514.446803	2488.918477
514.810894	2489.425113
515.174927	2489.873776
515.538904	2489.049547
515.902822	2487.542242
516.266684	2488.003508
516.630488	2489.115082
516.994235	2490.438385
517.357925	2488.820174
517.721558	2489.301605
518.085133	2489.941831
518.448651	2486.072746
518.812112	2485.639206
519.175516	2486.372694
519.538863	2483.589977
519.902152	2490.088025
520.265385	2490.975268
520.628560	2488.749598
520.991678	2491.975937
521.354739	2486.884371
521.717743	2491.534836
522.080690	2490.650113
522.443580	2488.583240
522.806413	2493.415186
523.169189	2490.103148
523.531908	2491.428972
523.894569	2488.210195
524.257174	2491.731441
524.619722	2488.459732
524.982213	2488.351347
525.344647	2490.561893
525.707025	2488.298415
526.069345	2491.144146
526.431608	2488.575678
526.793815	2488.860504
527.155964	2490.632469
527.518057	2490.594661
527.880093	2489.344454
528.242072	2488.237921
528.603995	2489.268837
528.965860	2489.047026
529.327669	2487.998466
529.689421	2490.387973
530.051117	2486.997797
530.412755	2491.171873
530.774337	2490.516523
531.135862	2490.468632
531.497331	2490.937459
531.858743	2487.499392
532.220098	2488.091728
532.581396	2490.148518
532.942638	2487.547283
533.303824	2492.104486
533.664953	2488.459732
534.026025	2490.284630
534.387040	2491.005515
534.747999	2490.574496
535.108902	2489.309166
535.469748	2488.996615
535.830537	2491.786893
536.191270	2488.928559
536.551947	2486.463435
536.912567	2487.582571
537.273131	2487.751450
537.633638	2485.979484
537.994089	2489.359578
538.354483	2489.490648
538.714821	2493.941987
539.075103	2491.285299
539.435328	2491.446616
539.795497	2491.013076
540.155609	2489.914105
540.515665	2491.411328
540.875665	2489.057109
541.235609	2493.581544
541.595496	2489.684732
541.955328	2490.158601
542.315102	2491.434013
542.674821	2490.483755
543.034483	2488.618528
543.394090	2492.243118
543.753640	2489.041985
544.113134	2490.912253
544.472571	2490.806389
544.831953	2489.473004
545.191278	2491.854949
545.550548	2489.513333
545.909761	2490.997953
546.268918	2490.022490
546.628019	2490.347644
546.987064	2491.161790
547.346053	2488.505102
547.704986	2490.244300
548.063863	2492.467449
548.422684	2490.203971
548.781449	2490.763539
549.140158	2489.616677
549.498811	2491.834784
549.857408	2489.808241
550.215949	2490.854280
550.574434	2490.372850
550.932864	2491.512151
551.291237	2490.251862
551.649555	2490.763539
552.007817	2492.361585
552.366022	2489.417551
552.724173	2492.217912
553.082267	2490.602222
553.440305	2492.636328
553.798288	2493.644559
554.156215	2490.362767
554.514086	2489.349496
554.871902	2490.468632
555.229661	2489.800679
555.587365	2486.491161
555.945014	2492.159939
556.302606	2491.015597
556.660143	2490.037613
557.017625	2494.400732
557.375050	2490.544249
557.732421	2490.982829
558.089735	2492.621204
558.446994	2491.534836
558.804197	2492.931235
559.161345	2493.372336
559.518437	2492.948879
559.875474	2489.127685
560.232455	2492.207830
560.589381	2489.777994
560.946251	2493.566421
561.303065	2492.449805
561.659825	2494.383088
562.016528	2491.834784
562.373177	2496.500372
562.729770	2492.104486
563.086307	2491.703714
563.442789	2491.479383
563.799216	2495.166987
564.155587	2494.609940
564.511904	2495.540033
564.868164	2493.019456
565.224370	2492.439723
565.580520	2494.254538
565.936615	2495.320742
566.292654	2494.128509
566.648638	2494.834271
567.004567	2493.006853
567.360441	2494.199086
567.716260	2493.684888
568.072023	2491.045844
568.427732	2493.465598
568.783385	2493.473159
569.138982	2496.475167
569.494525	2494.229333
569.850013	2494.945176
570.205445	2491.834784
570.560823	2496.581031
570.916145	2493.248828
571.271412	2494.423417
571.626625	2495.131699
571.981782	2494.521719
572.336884	2497.017091
572.691931	2491.212202
573.046923	2495.655979
573.401860	2494.287306
573.756743	2494.128509
574.111570	2494.534322
574.466342	2498.864673
574.821059	2497.337204
575.175722	2495.829899
575.530330	2495.456853
575.884882	2497.891731
576.239380	2497.208654
576.593823	2497.881648
576.948211	2497.377533
577.302544	2497.314519
577.656823	2497.538850
578.011047	2498.358038
578.365216	2497.022132
578.719330	2499.275527
579.073389	2496.432317
579.427394	2496.729745
579.781344	2497.606906
580.135239	2497.541371
580.489080	2496.780156
580.842866	2498.395846
581.196597	2499.058758
581.550273	2495.827378
581.903895	2497.228819
582.257463	2499.988851
582.610975	2498.393326
582.964434	2497.054899
583.317837	2498.617657
583.671186	2497.387615
584.024481	2499.063799
584.377721	2498.179077
584.730906	2498.804180
585.084037	2497.972389
585.437113	2500.064468
585.790135	2499.487256
586.143103	2501.602020
586.496016	2501.216372
586.848874	2499.444406
587.201679	2500.346773
587.554428	2503.477329
587.907124	2500.845847
588.259765	2500.250991
588.612352	2500.853409
588.964884	2499.000785
589.317362	2500.981958
589.669786	2499.250322
590.022155	2498.539519
590.374470	2496.696977
590.726731	2496.840650
591.078937	2496.207985
591.431090	2499.421721
591.783188	2501.816269
592.135232	2502.837103
592.487222	2503.568070
592.839157	2500.550939
593.191038	2503.149654
593.542866	2503.056393
593.894639	2502.373317
594.246358	2502.884994
594.598022	2501.780981
594.949633	2501.445744
595.301190	2500.450116
595.652692	2499.797287
596.004141	2501.138234
596.355535	2502.491784
596.706876	2499.681340
597.058162	2501.637308
597.409395	2501.173522
597.760573	2500.515651
598.111698	2501.486073
598.462768	2502.953049
598.813785	2502.627895
599.164748	2501.811228
599.515657	2500.976917
599.866511	2503.396671
600.217312	2503.414315
600.568060	2502.327946
600.918753	2505.342556
601.269392	2504.598986
601.619978	2503.318533
601.970510	2504.714933
602.320988	2500.316526
602.671412	2507.182577
603.021783	2504.535972
603.372100	2502.940446
603.722363	2503.689058
604.072572	2502.811897
604.422728	2504.077227
604.772830	2503.563029
605.122878	2503.953718
605.472872	2501.912051
605.822813	2502.650580
606.172701	2503.719305
606.522534	2504.767865
606.872314	2503.368944
607.222041	2503.583193
607.571714	2500.813079
607.921333	2499.303254
608.270899	2504.631753
608.620411	2498.320229
608.969870	2505.544202
609.319276	2507.543020
609.668627	2506.862464
610.017926	2505.153513
610.367171	2502.214520
610.716362	2504.094871
611.065500	2503.016064
611.414585	2502.050683
611.763616	2506.567557
612.112594	2504.049500
612.461518	2506.396157
612.810389	2505.687875
613.159207	2508.768020
613.507971	2508.503360
613.856682	2506.771723
614.205340	2507.568226
614.553945	2507.779954
614.902496	2504.198214
615.250994	2502.234685
615.599439	2507.442197
615.947830	2505.266939
616.296169	2506.877587
616.644454	2507.822804
616.992686	2505.405571
617.340864	2508.193329
617.688990	2507.895901
618.037063	2505.529079
618.385082	2509.133504
618.733048	2507.253153
619.080961	2506.807011
619.428821	2506.191991
619.776628	2505.226610
620.124382	2508.891528
620.472083	2507.205263
620.819731	2512.904287
621.167326	2505.740807
621.514868	2509.158710
621.862357	2508.473113
622.209793	2510.315654
622.557176	2506.060921
622.904506	2509.314985
623.251783	2507.409429
623.599007	2505.771054
623.946179	2507.036384
624.293297	2509.574605
624.640363	2507.331291
624.987376	2505.251815
625.334336	2505.314830
625.681243	2506.141579
626.028097	2501.070178
626.374899	2505.627381
626.721647	2505.748369
627.068343	2510.129132
627.414987	2508.694923
627.761577	2508.556292
628.108115	2511.991838
628.454600	2508.140397
628.801032	2506.900273
629.147412	2508.188288
629.493739	2510.681138
629.840014	2507.956394
630.186236	2510.174502
630.532405	2511.124760
630.878521	2510.587877
631.224585	2509.251971
631.570597	2512.717764
631.916556	2513.390758
632.262462	2513.491581
632.608316	2512.082579
632.954117	2514.381345
633.299866	2514.134328
633.645562	2513.320182
633.991206	2514.290604
634.336797	2513.993176
634.682336	2513.786489
635.027823	2512.836231
635.373257	2515.475275
635.718639	2510.930675
636.063968	2515.172806
636.409245	2514.635923
636.754470	2513.572240
637.099642	2513.872188
637.444762	2512.715244
637.789829	2516.503671
638.134845	2516.296983
638.479808	2512.727847
638.824719	2515.787827
639.169577	2515.591222
639.514383	2521.111285
639.859137	2517.234638
640.203839	2517.118692
640.548489	2516.344874
640.893086	2518.835204
641.237632	2519.470390
641.582125	2517.320338
641.926566	2518.913342
642.270955	2517.494257
642.615292	2515.079545
642.959576	2519.679598
643.303809	2517.610204
643.647990	2521.885103
643.992118	2523.190761
644.336195	2523.253776
