Dividing Wavelength (nm)	Counts (n)	Blue Motor Position (mm): 22.500000	Red Motor Position (mm): 0.000000	
326.493990	2098.554208
326.888308	2098.554208
327.282561	2098.554208
327.676750	2075.707699
328.070874	2080.955540
328.464933	2085.162383
328.858929	2095.348034
329.252859	2109.443101
329.646726	2124.687550
330.040528	2140.438635
330.434265	2158.927067
330.827938	2178.834583
331.221547	2199.876359
331.615091	2219.138608
332.008571	2239.557802
332.401986	2260.937335
332.795338	2280.040788
333.188625	2301.395116
333.581847	2319.818012
333.975006	2336.766372
334.368100	2355.451408
334.761129	2373.644933
335.154095	2388.087838
335.546996	2428.545618
335.939833	2498.194200
336.332606	2506.749038
336.725315	2522.119516
337.117960	2532.413552
337.510540	2537.449665
337.903056	2548.167158
338.295508	2554.390463
338.687896	2561.201061
339.080220	2568.946794
339.472480	2574.446693
339.864676	2574.494584
340.256807	2579.260995
340.648875	2582.812488
341.040879	2584.082859
341.432818	2582.517580
341.824694	2582.807447
342.216506	2584.614700
342.608253	2584.647468
342.999937	2582.704103
343.391557	2580.120512
343.783113	2580.246541
344.174605	2575.568350
344.566033	2576.153124
344.957397	2576.385017
345.348697	2572.405026
345.739934	2571.638770
346.131106	2571.401836
346.522215	2566.869839
346.913260	2565.894376
347.304241	2563.252811
347.695159	2564.026628
348.086012	2563.172152
348.476802	2561.526216
348.867528	2559.479507
349.258191	2558.872048
349.648789	2559.832388
350.039324	2555.547407
350.429796	2558.793910
350.820203	2555.615463
351.210548	2556.220401
351.600828	2552.595812
351.991045	2554.929866
352.381198	2551.297715
352.771288	2550.539021
353.161314	2551.297715
353.551276	2549.896274
353.941175	2552.116902
354.331010	2548.704041
354.720782	2555.509599
355.110490	2557.941955
355.500135	2553.689742
355.889717	2553.654454
356.279235	2553.480534
356.668689	2553.213353
357.058080	2551.456511
357.447408	2550.995245
357.836672	2551.514484
358.225873	2553.551110
358.615010	2554.251831
359.004084	2556.427089
359.393095	2557.006821
359.782043	2558.367933
360.170927	2554.350133
360.559748	2555.985988
360.948505	2561.059909
361.337199	2561.072512
361.725830	2560.389436
362.114398	2561.238870
362.502903	2563.300702
362.891344	2562.279868
363.279722	2561.533778
363.668037	2559.976061
364.056289	2559.908005
364.444478	2561.299364
364.832603	2561.596792
365.220665	2562.380691
365.608665	2562.841957
365.996601	2567.600806
366.384474	2563.245249
366.772284	2566.519479
367.160031	2565.327246
367.547715	2563.555280
367.935336	2566.035528
368.322893	2566.489232
368.710388	2565.014694
369.097820	2571.570715
369.485189	2567.373954
369.872495	2567.391598
370.259738	2567.951166
370.646918	2566.181721
371.034035	2571.225396
371.421090	2572.314285
371.808081	2568.268759
372.195010	2569.745817
372.581875	2568.838409
372.968678	2568.051989
373.355418	2571.323698
373.742096	2571.716908
374.128710	2572.379820
374.515262	2572.868812
374.901751	2569.534089
375.288177	2572.699933
375.674540	2570.751527
376.060841	2573.859399
376.447079	2570.857392
376.833254	2576.848803
377.219367	2571.227916
377.605417	2572.611713
377.991404	2571.958884
378.377329	2571.328739
378.763191	2569.743297
379.148991	2574.262691
379.534727	2577.650346
379.920402	2580.191088
380.306013	2576.306879
380.691563	2580.236458
381.077049	2578.880388
381.462474	2576.281673
381.847835	2577.506673
382.233134	2578.162023
382.618371	2576.153124
383.003545	2578.789647
383.388657	2579.381983
383.773706	2580.604463
384.158693	2578.041036
384.543618	2580.334761
384.928480	2578.986252
385.313280	2582.479772
385.698017	2580.188567
386.082692	2581.882395
386.467305	2579.775193
386.851856	2581.821901
387.236344	2582.774679
387.620770	2580.526325
388.005133	2582.003383
388.389435	2583.533373
388.773674	2585.932962
389.157851	2584.549165
389.541965	2584.967581
389.926018	2582.976325
390.310008	2582.358784
390.693936	2585.696028
391.077802	2584.879361
391.461606	2585.741398
391.845348	2586.968919
392.229027	2584.105544
392.612645	2586.986563
392.996200	2589.328179
393.379694	2586.863055
393.763125	2589.088724
394.146494	2588.728282
394.529801	2587.122674
394.913047	2590.404466
395.296230	2591.344641
395.679351	2590.704414
396.062410	2590.422110
396.445408	2590.038982
396.828343	2590.812799
397.211217	2586.472366
397.594028	2590.296081
397.976778	2590.873293
398.359466	2589.436564
398.742092	2585.943044
399.124656	2593.318252
399.507158	2589.829774
399.889598	2590.442274
400.271977	2593.630804
400.654294	2593.540063
401.036549	2593.472008
401.418742	2593.048551
401.800874	2594.470156
402.182944	2592.746082
402.564952	2594.611308
402.946898	2595.138109
403.328783	2594.777667
403.710606	2596.733634
404.092367	2595.601895
404.474067	2595.606936
404.855705	2597.585589
405.237282	2597.547781
405.618797	2599.165991
406.000250	2594.606267
406.381642	2600.005343
406.762972	2599.349993
407.144240	2599.654983
407.525447	2598.911413
407.906593	2599.002153
408.287677	2598.712287
408.668700	2596.985692
409.049661	2600.322936
409.430560	2601.774788
409.811399	2600.229674
410.192176	2601.873091
410.572891	2600.640528
410.953545	2603.836620
411.334138	2602.543564
411.714669	2600.287648
412.095139	2602.803183
412.475547	2602.399891
412.855894	2603.360231
413.236180	2600.978286
413.616405	2603.312340
413.996568	2604.749069
414.376670	2604.466764
414.756711	2603.743359
415.136691	2604.902824
415.516609	2603.279573
415.896466	2604.875098
416.276262	2608.318206
416.655997	2604.093719
417.035670	2603.992896
417.415283	2608.051025
417.794834	2606.037084
418.174324	2603.042638
418.553753	2607.025150
418.933121	2608.197218
419.312428	2608.305603
419.691674	2608.313165
420.070859	2607.617485
420.449983	2609.391972
420.829045	2608.058586
421.208047	2608.618154
421.586988	2611.887343
421.965867	2611.453803
422.344686	2612.182250
422.723444	2611.897425
423.102141	2612.000769
423.480777	2614.012189
423.859352	2612.857765
424.237866	2614.435646
424.616319	2616.235338
424.994712	2615.529576
425.373044	2614.493619
425.751314	2619.615432
426.129524	2612.388937
426.507673	2613.729884
426.885762	2613.835749
427.263789	2618.372787
427.641756	2618.965123
428.019662	2619.270112
428.397508	2617.084772
428.775292	2617.420009
429.153016	2617.969495
429.530679	2620.328755
429.908282	2616.131994
430.285824	2619.486882
430.663305	2619.907818
431.040726	2620.517798
431.418086	2620.520319
431.795385	2621.294136
432.172624	2621.084928
432.549802	2620.144753
432.926920	2621.026955
433.303977	2622.529218
433.680974	2623.978550
434.057910	2622.304887
434.434786	2624.666668
434.811601	2623.862604
435.188355	2624.104579
435.565050	2624.459980
435.941683	2622.753550
436.318257	2623.900412
436.694770	2623.640793
437.071222	2626.917543
437.447614	2623.890330
437.823946	2623.827316
438.200218	2628.515589
438.576429	2626.113479
438.952580	2628.253449
439.328670	2627.686319
439.704700	2628.140023
440.080670	2626.763788
440.456580	2628.979375
440.832429	2628.787811
441.208218	2632.188069
441.583947	2630.879890
441.959616	2630.516927
442.335224	2631.242853
442.710773	2629.843933
443.086261	2634.149078
443.461689	2635.278297
443.837057	2635.006074
444.212365	2637.047742
444.587612	2635.205200
444.962800	2635.860550
445.337927	2637.496404
445.712995	2636.347021
446.088002	2637.854326
446.462949	2639.573360
446.837837	2640.959677
447.212664	2644.170892
447.587431	2649.491830
447.962139	2654.192706
448.336786	2659.977430
448.711374	2657.623211
449.085901	2654.578354
449.460369	2654.011224
449.834776	2654.888385
450.209124	2660.242090
450.583412	2658.848211
450.957640	2662.356854
451.331808	2660.668068
451.705917	2659.503561
452.079965	2661.109169
452.453954	2663.120589
452.827883	2662.568583
453.201752	2668.527227
453.575562	2670.369768
453.949311	2670.392454
454.323001	2673.744821
454.696632	2673.036539
455.070202	2680.986438
455.443713	2681.757735
455.817164	2682.244206
456.190556	2684.041378
456.563888	2686.398117
456.937160	2687.126564
457.310373	2691.514888
457.683526	2691.141843
458.056619	2693.420444
458.429653	2695.885569
458.802628	2701.042669
459.175542	2700.548636
459.548398	2710.172199
459.921194	2713.683362
460.293930	2720.788869
460.666607	2729.615929
461.039224	2738.808473
461.411782	2743.287538
461.784280	2741.399626
462.156719	2741.671848
462.529099	2742.402816
462.901419	2743.718557
463.273680	2744.583115
463.645882	2746.549165
464.018024	2751.807088
464.390106	2761.755805
464.762130	2778.227776
465.134094	2805.303813
465.505999	2836.856395
465.877845	2865.906044
466.249631	2880.180071
466.621358	2878.100595
466.993026	2874.163454
467.364634	2874.168495
467.736184	2870.251518
468.107674	2871.010212
468.479105	2873.089688
468.850477	2885.450597
469.221790	2886.942779
469.593043	2880.207797
469.964238	2888.724827
470.335373	2899.253277
470.706449	2929.855601
471.077467	2968.443113
471.448425	3033.254708
471.819324	3076.785071
472.190164	3075.771799
472.560945	3056.902760
472.931667	3045.592932
473.302330	3054.293963
473.672934	3071.002868
474.043479	3100.987651
474.413965	3112.121039
474.784393	3134.395377
475.154761	3172.579597
475.525070	3200.958772
475.895321	3226.308215
476.265513	3267.370933
476.635645	3324.398986
477.005719	3358.956096
477.375734	3416.100095
477.745691	3473.879280
478.115588	3551.571022
478.485427	3661.692508
478.855207	3826.737364
479.224928	3975.733707
479.594591	4087.959874
479.964194	4108.605920
480.333739	4183.015871
480.703226	4275.780663
481.072653	4396.075197
481.442022	4517.778733
481.811333	4619.673055
482.180584	4656.067666
482.549777	4736.506837
482.918912	4818.687727
483.287988	4917.839661
483.657005	4983.263756
484.025964	5052.751021
484.394864	5163.243031
484.763706	5256.191825
485.132489	5324.784285
485.501213	5435.140184
485.869879	5575.647224
486.238487	5687.598648
486.607036	5835.667419
486.975527	5936.677018
487.343959	6096.489157
487.712333	6260.465289
488.080648	6404.425519
488.448905	6610.782631
488.817104	6759.423573
489.185244	7043.749691
489.553326	7448.708100
489.921350	8000.326277
490.289315	8591.593130
490.657222	8897.024038
491.025070	9161.475407
491.392861	9245.425742
491.760593	9275.972614
492.128267	9237.332170
492.495883	9234.557015
492.863440	9261.169266
493.230939	9283.050394
493.598380	9342.233540
493.965763	9517.645529
494.333088	9615.529614
494.700354	9766.113920
495.067563	9956.185585
495.434713	10169.673409
495.801805	10429.844838
496.168839	10605.156005
496.535815	10783.995978
496.902733	11044.674044
497.269593	11208.466173
497.636395	11448.828389
498.003139	11805.351392
498.369825	11943.252155
498.736453	12289.453396
499.103023	12449.865432
499.469535	12702.119729
499.835989	13011.490299
500.202385	13206.015823
500.568723	13495.617509
500.935003	13845.027444
501.301226	14077.618720
501.667390	14549.301842
502.033497	14934.693012
502.399546	15056.212546
502.765537	15127.418844
503.131470	15560.640482
503.497345	16001.751526
503.863163	15842.534244
504.228923	16365.750560
504.594625	16841.927870
504.960269	16884.502935
505.325856	17472.235938
505.691385	17552.360038
506.056856	17939.734902
506.422270	18457.980641
506.787625	18601.517414
507.152924	19022.942753
507.518164	19398.927130
507.883347	19357.650162
508.248472	19805.763369
508.613540	20360.660817
508.978550	20838.211841
509.343503	21053.771579
509.708398	21478.836631
510.073236	22080.702509
510.438016	22430.926590
510.802738	22480.125731
511.167403	23140.627790
511.532010	23608.676240
511.896561	24106.023875
512.261053	24921.375057
512.625488	25006.898232
512.989866	25269.189467
513.354186	25511.341292
513.718449	25843.548289
514.082655	26570.437303
514.446803	26700.569649
514.810894	27358.319238
515.174927	27626.848900
515.538904	27892.744560
515.902822	28660.461879
516.266684	28604.263096
516.630488	29223.969618
516.994235	29420.355328
517.357925	30123.772730
517.721558	30555.978575
518.085133	31076.381928
518.448651	31469.843986
518.812112	31607.071755
519.175516	31975.748980
519.538863	32509.705475
519.902152	32785.653195
520.265385	33425.400824
520.628560	33725.059611
520.991678	33852.028633
521.354739	34315.391330
521.717743	34820.061241
522.080690	35029.758118
522.443580	35705.847425
522.806413	36000.316344
523.169189	36238.730154
523.531908	36637.490464
523.894569	36756.733917
524.257174	37156.444485
524.619722	37638.310737
524.982213	37865.618885
525.344647	38021.042699
525.707025	38312.703696
526.069345	38869.703305
526.431608	39009.232361
526.793815	39509.597127
527.155964	39331.828398
527.518057	39669.966313
527.880093	39706.239936
528.242072	40361.254699
528.603995	40304.198920
528.965860	40494.036171
529.327669	40762.825453
529.689421	40871.222863
530.051117	40999.915959
530.412755	41312.144864
530.774337	41536.627445
531.135862	41538.984184
531.497331	41888.472257
531.858743	41957.778040
532.220098	42419.724172
532.581396	42312.894561
532.942638	42155.219871
533.303824	42591.272117
533.664953	42710.160169
534.026025	42585.341200
534.387040	43168.738811
534.747999	43239.778751
535.108902	43527.558059
535.469748	43173.112012
535.830537	43420.882203
536.191270	43722.368409
536.551947	43514.468703
536.912567	43917.151032
537.273131	44148.703831
537.633638	43765.780305
537.994089	44179.013768
538.354483	43906.786419
538.714821	44572.503552
539.075103	44987.385473
539.435328	44866.538933
539.795497	44828.447974
540.155609	44921.878199
540.515665	45459.076156
540.875665	45007.204769
541.235609	45425.058449
541.595496	45479.674310
541.955328	46203.909157
542.315102	45664.840932
542.674821	45520.031267
543.034483	45645.384599
543.394090	45686.406988
543.753640	45708.998919
544.113134	46761.289373
544.472571	45849.248860
544.831953	47139.549831
545.191278	46416.872701
545.550548	46192.707713
545.909761	46727.261585
546.268918	46985.038466
546.628019	47328.401537
546.987064	46950.612426
547.346053	46283.430838
547.704986	47207.134060
548.063863	46805.714541
548.422684	47031.354067
548.781449	46916.534226
549.140158	47336.573247
549.498811	47237.048267
549.857408	46704.994808
550.215949	47594.622351
550.574434	47555.747493
550.932864	47353.403139
551.291237	48100.910473
551.649555	47753.892565
552.007817	48000.732663
552.366022	47691.460396
552.724173	47896.831962
553.082267	48312.442329
553.440305	48608.746229
553.798288	47939.545659
554.156215	48280.448646
554.514086	48518.905306
554.871902	48269.469013
555.229661	48321.667641
555.587365	48164.169392
555.945014	48279.241290
556.302606	48229.391840
556.660143	48473.852514
557.017625	48556.615657
557.375050	48357.384216
557.732421	48729.953211
558.089735	48728.214013
558.446994	48651.865738
558.804197	49136.625613
559.161345	49064.446372
559.518437	48323.540429
559.875474	48648.430192
560.232455	48836.729891
560.589381	49016.633548
560.946251	48730.555629
561.303065	49409.359597
561.659825	49203.138597
562.016528	48886.228981
562.373177	48613.235376
562.729770	49088.527964
563.086307	48608.511815
563.442789	49076.167055
563.799216	49115.384711
564.155587	48904.508204
564.511904	48945.081931
564.868164	49040.692455
565.224370	49265.696795
565.580520	49007.960243
565.936615	49213.334330
566.292654	48937.174881
566.648638	49193.678871
567.004567	49173.191622
567.360441	49208.860306
567.716260	49063.135672
568.072023	49338.526345
568.427732	49310.489968
568.783385	48853.494248
569.138982	49235.316282
569.494525	49214.030009
569.850013	48969.589501
570.205445	48945.737281
570.560823	48880.091376
570.916145	48764.275907
571.271412	48790.452099
571.626625	48541.333399
571.981782	48566.571936
572.336884	48259.046428
572.691931	48585.408207
573.046923	48182.229325
573.401860	48027.954894
573.756743	47992.513062
574.111570	48091.559132
574.466342	47943.533211
574.821059	48040.719096
575.175722	47565.028257
575.530330	47570.084534
575.884882	47275.708876
576.239380	47236.831498
576.593823	47194.415229
576.948211	47112.347765
577.302544	46635.172307
577.656823	46640.596588
578.011047	46863.357615
578.365216	46594.046574
578.719330	46367.255144
579.073389	46212.915178
579.427394	46290.075079
579.781344	46252.082423
580.135239	45888.310241
580.489080	45964.645913
580.842866	45439.559328
581.196597	45888.660601
581.550273	45816.269632
581.903895	45675.137489
582.257463	46074.086842
582.610975	45447.350432
582.964434	45742.646101
583.317837	45351.596235
583.671186	45202.070571
584.024481	45408.891469
584.377721	44910.729687
584.730906	45205.178442
585.084037	45241.136993
585.437113	44952.001614
585.790135	44955.585874
586.143103	44546.639912
586.496016	44662.883879
586.848874	44670.785888
587.201679	44685.080079
587.554428	44169.155792
587.907124	44354.713103
588.259765	44091.189306
588.612352	44340.875136
588.964884	43718.814395
589.317362	44000.239329
589.669786	43938.969145
590.022155	43681.262840
590.374470	44110.199498
590.726731	43637.399761
591.078937	43137.851661
591.431090	43233.794901
591.783188	42878.038154
592.135232	42537.924107
592.487222	42824.170904
592.839157	42881.733320
593.191038	42525.328784
593.542866	42277.490537
593.894639	41682.974661
594.246358	41965.188536
594.598022	41941.215329
594.949633	41540.741026
595.301190	41479.503610
595.652692	41329.166320
596.004141	41652.248829
596.355535	40654.397795
596.706876	40590.470923
597.058162	40425.781468
597.409395	40892.887222
597.760573	40972.638276
598.111698	40554.149410
598.462768	40555.399616
598.813785	40604.266041
599.164748	40042.898272
599.515657	40416.914079
599.866511	39900.551211
600.217312	40522.312003
600.568060	39494.697997
600.918753	40237.877500
601.269392	40175.382316
601.619978	39844.753199
601.970510	40043.747706
602.320988	40222.781765
602.671412	40524.467096
603.021783	40292.954626
603.372100	39920.516701
603.722363	40029.042661
604.072572	40086.378224
604.422728	40119.140683
604.772830	39937.911202
605.122878	40018.254591
605.472872	39951.822266
605.822813	40217.463347
606.172701	40049.005630
606.522534	40312.126134
606.872314	40546.970807
607.222041	40308.123458
607.571714	40693.686028
607.921333	40135.615173
608.270899	40438.328900
608.620411	40787.075923
608.969870	40565.078631
609.319276	40558.772148
609.668627	40606.252255
610.017926	41097.152255
610.367171	41252.855853
610.716362	41322.602738
611.065500	41268.864037
611.414585	41452.420011
611.763616	41738.263516
612.112594	41676.612725
612.461518	41892.459809
612.810389	42213.036865
613.159207	42074.707603
613.507971	42152.984120
613.856682	42622.431489
614.205340	42502.671318
614.553945	43211.215573
614.902496	42644.751198
615.250994	43132.510559
615.599439	43188.787480
615.947830	43399.850509
616.296169	43463.419459
616.644454	43573.810646
616.992686	43740.756017
617.340864	44252.148307
617.688990	43972.699506
618.037063	44579.258698
618.385082	44530.480494
618.733048	44837.932905
619.080961	44858.773035
619.428821	44871.383481
619.776628	44968.468543
620.124382	44801.029138
620.472083	44947.489781
620.819731	45082.363332
621.167326	44749.266571
621.514868	44727.201440
621.862357	44295.519875
622.209793	44331.223847
622.557176	43986.918080
622.904506	43725.776229
623.251783	43377.727405
623.599007	43156.032583
623.946179	42957.917757
624.293297	42891.906368
624.640363	42301.650267
624.987376	42281.972123
625.334336	42066.969432
625.681243	41705.417878
626.028097	41663.553616
626.374899	41513.785977
626.721647	41491.975424
627.068343	41389.723180
627.414987	41149.613023
627.761577	40933.057656
628.108115	41255.809970
628.454600	40702.881092
628.801032	40887.573846
629.147412	40848.076405
629.493739	40843.151198
629.840014	40492.221355
630.186236	40839.093069
630.532405	40408.394529
630.878521	40624.095419
631.224585	40503.581596
631.570597	40212.114683
631.916556	40375.947142
632.262462	40312.521865
632.608316	40339.950783
632.954117	40235.351882
633.299866	40233.262323
633.645562	40159.727012
633.991206	39674.074854
634.336797	39220.812108
634.682336	39223.438550
635.027823	38988.117488
635.373257	38796.714959
635.718639	38564.605112
636.063968	38433.691388
636.409245	37842.391768
636.754470	37898.648525
637.099642	37655.922008
637.444762	37171.880498
637.789829	37317.227046
638.134845	36977.748184
638.479808	36905.387462
