Dividing Wavelength (nm)	Counts (n)	Blue Motor Position (mm): 24.500000	Red Motor Position (mm): 0.000000	
326.493990	2155.471356
326.888308	2155.471356
327.282561	2155.471356
327.676750	2131.757768
328.070874	2131.893879
328.464933	2136.244395
328.858929	2146.387197
329.252859	2159.579896
329.646726	2171.902997
330.040528	2185.577127
330.434265	2208.811805
330.827938	2223.136243
331.221547	2245.216497
331.615091	2262.583272
332.008571	2282.216046
332.401986	2302.675569
332.795338	2323.432520
333.188625	2343.539162
333.581847	2358.728158
333.975006	2382.900491
334.368100	2402.293810
334.761129	2419.592529
335.154095	2432.276072
335.546996	2457.512088
335.939833	2489.835967
336.332606	2503.074037
336.725315	2513.516787
337.117960	2522.873169
337.510540	2528.395753
337.903056	2536.607792
338.295508	2544.655994
338.687896	2553.888868
339.080220	2559.938252
339.472480	2566.184242
339.864676	2571.202711
340.256807	2574.721436
340.648875	2578.784606
341.040879	2579.931468
341.432818	2578.083886
341.824694	2580.211252
342.216506	2580.889288
342.608253	2579.858372
342.999937	2578.156982
343.391557	2576.072465
343.783113	2577.060531
344.174605	2576.077506
344.566033	2572.359655
344.957397	2570.968297
345.348697	2567.326063
345.739934	2566.640466
346.131106	2566.547205
346.522215	2563.353634
346.913260	2563.719118
347.304241	2561.203582
347.695159	2559.272820
348.086012	2559.209806
348.476802	2557.647048
348.867528	2554.143446
349.258191	2555.600339
349.648789	2554.582026
350.039324	2551.146480
350.429796	2551.534649
350.820203	2549.205636
351.210548	2548.817467
351.600828	2550.050029
351.991045	2548.089020
352.381198	2546.619524
352.771288	2548.840152
353.161314	2549.561037
353.551276	2547.519370
353.941175	2545.238248
354.331010	2546.803526
354.720782	2546.730429
355.110490	2548.313352
355.500135	2549.813095
355.889717	2545.107178
356.279235	2549.429967
356.668689	2549.394679
357.058080	2548.280584
357.447408	2546.601880
357.836672	2547.416026
358.225873	2548.000800
358.615010	2548.290666
359.004084	2551.915256
359.393095	2551.078424
359.782043	2552.779814
360.170927	2551.431305
360.559748	2550.392828
360.948505	2550.435677
361.337199	2552.260575
361.725830	2553.178065
362.114398	2554.309804
362.502903	2556.442212
362.891344	2555.738971
363.279722	2554.763508
363.668037	2555.617983
364.056289	2558.446071
364.444478	2556.192675
364.832603	2557.828529
365.220665	2559.565207
365.608665	2559.476987
365.996601	2558.763663
366.384474	2560.147460
366.772284	2559.507234
367.160031	2558.849363
367.547715	2560.202913
367.935336	2559.139229
368.322893	2559.295505
368.710388	2561.339693
369.097820	2563.194838
369.485189	2558.264589
369.872495	2561.906823
370.259738	2560.525547
370.646918	2562.829354
371.034035	2561.992522
371.421090	2564.762637
371.808081	2562.342883
372.195010	2563.116700
372.581875	2564.394632
372.968678	2564.160219
373.355418	2563.827502
373.742096	2563.139385
374.128710	2565.198696
374.515262	2565.637277
374.901751	2565.828841
375.288177	2565.176011
375.674540	2565.528892
376.060841	2564.424879
376.447079	2565.312122
376.833254	2565.385219
377.219367	2562.562173
377.605417	2563.797256
377.991404	2565.254149
378.377329	2563.469581
378.763191	2562.587379
379.148991	2566.247256
379.534727	2567.353790
379.920402	2568.727504
380.306013	2567.810014
380.691563	2569.360169
381.077049	2566.310271
381.462474	2570.108780
381.847835	2569.249263
382.233134	2570.156671
382.618371	2570.232288
383.003545	2570.852350
383.388657	2570.340673
383.773706	2571.263204
384.158693	2568.858574
384.543618	2572.407546
384.928480	2572.526013
385.313280	2571.111970
385.698017	2574.303020
386.082692	2573.067937
386.467305	2570.983420
386.851856	2570.539799
387.236344	2572.833524
387.620770	2573.710685
388.005133	2572.261353
388.389435	2574.053483
388.773674	2571.255643
389.157851	2570.222206
389.541965	2574.640777
389.926018	2572.888977
390.310008	2572.173133
390.693936	2575.666652
391.077802	2573.965263
391.461606	2573.493915
391.845348	2573.163719
392.229027	2574.771847
392.612645	2575.724626
392.996200	2576.009451
393.379694	2577.242013
393.763125	2575.354101
394.146494	2577.037846
394.529801	2579.112281
394.913047	2579.364339
395.296230	2575.986766
395.679351	2575.270922
396.062410	2577.481468
396.445408	2579.818042
396.828343	2577.753690
397.211217	2576.619430
397.594028	2575.326374
397.976778	2574.943247
398.359466	2578.590522
398.742092	2574.426528
399.124656	2579.530697
399.507158	2580.574216
399.889598	2580.334761
400.271977	2580.483475
400.654294	2580.612024
401.036549	2578.668659
401.418742	2580.796026
401.800874	2580.425502
402.182944	2581.360636
402.564952	2580.758218
402.946898	2579.699575
403.328783	2582.832652
403.710606	2582.318455
404.092367	2581.922724
404.474067	2583.185533
404.855705	2583.944227
405.237282	2583.614031
405.618797	2583.298959
406.000250	2583.520770
406.381642	2583.830801
406.762972	2586.409351
407.144240	2584.203846
407.525447	2588.183837
407.906593	2580.669998
408.287677	2583.122519
408.668700	2583.384659
409.049661	2585.025554
409.430560	2584.687797
409.811399	2582.447004
410.192176	2583.445153
410.572891	2586.152252
410.953545	2585.222159
411.334138	2586.444639
411.714669	2584.962540
412.095139	2587.531008
412.475547	2585.330544
412.855894	2586.187540
413.236180	2584.743250
413.616405	2588.473704
413.996568	2586.366501
414.376670	2585.380956
414.756711	2586.560586
415.136691	2588.572006
415.516609	2587.354567
415.896466	2587.465473
416.276262	2588.095617
416.655997	2584.566809
417.035670	2584.977663
417.415283	2586.495051
417.794834	2583.427509
418.174324	2587.024372
418.553753	2590.026379
418.933121	2586.200143
419.312428	2588.801379
419.691674	2590.548138
420.070859	2591.072418
420.449983	2592.196596
420.829045	2587.750298
421.208047	2591.732810
421.586988	2589.837336
421.965867	2591.402614
422.344686	2591.377408
422.723444	2590.394383
423.102141	2590.530494
423.480777	2590.701894
423.859352	2590.923704
424.237866	2591.054774
424.616319	2592.294898
424.994712	2592.705752
425.373044	2590.984198
425.751314	2593.252717
426.129524	2590.825402
426.507673	2591.974785
426.885762	2593.020824
427.263789	2595.700198
427.641756	2591.357244
428.019662	2593.822368
428.397508	2593.464446
428.775292	2591.619384
429.153016	2597.464602
429.530679	2594.223140
429.908282	2595.029724
430.285824	2593.429158
430.663305	2593.474528
431.040726	2594.482759
431.418086	2597.676330
431.795385	2595.765733
432.172624	2595.019642
432.549802	2595.412852
432.926920	2595.488469
433.303977	2597.416711
433.680974	2594.903695
434.057910	2598.785384
434.434786	2593.734148
434.811601	2595.939652
435.188355	2596.658017
435.565050	2596.930239
435.941683	2596.373192
436.318257	2594.893613
436.694770	2596.297574
437.071222	2594.036617
437.447614	2594.543253
437.823946	2592.718355
438.200218	2596.559714
438.576429	2598.601382
438.952580	2598.782863
439.328670	2602.649428
439.704700	2598.263624
440.080670	2598.924016
440.456580	2600.703543
440.832429	2598.417380
441.208218	2599.092894
441.583947	2603.143461
441.959616	2602.223451
442.335224	2599.123141
442.710773	2599.387802
443.086261	2603.118256
443.461689	2603.680344
443.837057	2602.868718
444.212365	2601.089191
444.587612	2601.673965
444.962800	2604.807042
445.337927	2604.519696
445.712995	2601.273193
446.088002	2605.817793
446.462949	2603.450972
446.837837	2605.343925
447.212664	2605.580859
447.587431	2608.585387
447.962139	2607.708226
448.336786	2611.962960
448.711374	2612.421705
449.085901	2611.405912
449.460369	2606.294182
449.834776	2607.506580
450.209124	2609.689400
450.583412	2613.177878
450.957640	2611.640326
451.331808	2612.741818
451.705917	2610.717795
452.079965	2613.366921
452.453954	2614.244082
452.827883	2615.411109
453.201752	2613.135028
453.575562	2615.932869
453.949311	2616.941099
454.323001	2618.246758
454.696632	2617.800616
455.070202	2619.920421
455.443713	2621.021913
455.817164	2619.007972
456.190556	2621.334465
456.563888	2624.792697
456.937160	2623.214815
457.310373	2629.115486
457.683526	2629.322173
458.056619	2632.500621
458.429653	2633.203862
458.802628	2635.144706
459.175542	2640.425315
459.548398	2644.259112
459.921194	2650.260606
460.293930	2654.800165
460.666607	2663.574293
461.039224	2670.112670
461.411782	2677.734894
461.784280	2680.633558
462.156719	2683.091120
462.529099	2689.596729
462.901419	2688.384332
463.273680	2691.638397
463.645882	2696.722400
464.018024	2701.904706
464.390106	2709.179091
464.762130	2727.990157
465.134094	2752.805237
465.505999	2792.544652
465.877845	2831.966476
466.249631	2855.057481
466.621358	2861.479911
466.993026	2862.614170
467.364634	2865.785056
467.736184	2861.762215
468.107674	2871.766385
468.479105	2881.082438
468.850477	2892.016700
469.221790	2898.381157
469.593043	2900.470715
469.964238	2907.979514
470.335373	2918.276071
470.706449	2951.908128
471.077467	2988.267451
471.448425	3066.400294
471.819324	3134.163484
472.190164	3156.911691
472.560945	3132.520068
472.931667	3112.128601
473.302330	3115.695217
473.672934	3129.397073
474.043479	3161.143739
474.413965	3175.379958
474.784393	3190.755477
475.154761	3236.841706
475.525070	3262.019748
475.895321	3282.668315
476.265513	3324.492248
476.635645	3379.531565
477.005719	3405.871594
477.375734	3452.905559
477.745691	3507.246677
478.115588	3573.822676
478.485427	3653.175478
478.855207	3783.958133
479.224928	3913.248605
479.594591	4033.482645
479.964194	4077.156681
480.333739	4129.297336
480.703226	4181.158206
481.072653	4258.383642
481.442022	4342.646528
481.811333	4431.615332
482.180584	4446.741314
482.549777	4485.908559
482.918912	4529.126371
483.287988	4586.789609
483.657005	4615.314978
484.025964	4646.907889
484.394864	4722.694075
484.763706	4762.829222
485.132489	4801.232732
485.501213	4858.064180
485.869879	4931.778452
486.238487	4973.486438
486.607036	5062.578750
486.975527	5103.994349
487.343959	5185.875291
487.712333	5266.571561
488.080648	5344.142316
488.448905	5449.194921
488.817104	5520.587742
489.185244	5651.176311
489.553326	5808.510723
489.921350	6084.251756
490.289315	6434.427946
490.657222	6640.739688
491.025070	6794.814993
491.392861	6835.119018
491.760593	6842.983218
492.128267	6807.009545
492.495883	6772.482682
492.863440	6735.621765
493.230939	6698.468461
493.598380	6679.589340
493.965763	6745.603250
494.333088	6743.624597
494.700354	6778.814371
495.067563	6835.355953
495.434713	6908.871099
495.801805	7000.133628
496.168839	7047.409569
496.535815	7101.937209
496.902733	7198.034204
497.269593	7240.939465
497.636395	7307.250802
498.003139	7437.206708
498.369825	7467.932540
498.736453	7589.179852
499.103023	7622.257383
499.469535	7692.881428
499.835989	7793.767519
500.202385	7835.016760
500.568723	7913.144563
500.935003	8019.845625
501.301226	8060.719300
501.667390	8235.848985
502.033497	8369.525262
502.399546	8376.287969
502.765537	8368.985858
503.131470	8508.802260
503.497345	8633.230540
503.863163	8524.744909
504.228923	8681.585287
504.594625	8829.011311
504.960269	8808.277045
505.325856	8985.019899
505.691385	8949.240310
506.056856	9053.599756
506.422270	9179.598355
506.787625	9182.837297
507.152924	9275.501266
507.518164	9373.791163
507.883347	9319.150097
508.248472	9426.965254
508.613540	9557.659688
508.978550	9666.546091
509.343503	9697.823930
509.708398	9783.755438
510.073236	9939.935425
510.438016	9990.586419
510.802738	9961.622469
511.167403	10111.445562
511.532010	10202.680364
511.896561	10323.660494
512.261053	10525.881340
512.625488	10492.438325
512.989866	10525.518377
513.354186	10545.491428
513.718449	10585.840824
514.082655	10749.988355
514.446803	10742.280430
514.810894	10872.861438
515.174927	10904.000646
515.538904	10921.616958
515.902822	11093.769841
516.266684	11008.415545
516.630488	11128.258895
516.994235	11143.768005
517.357925	11275.193406
517.721558	11362.977539
518.085133	11442.494179
518.448651	11492.104174
518.812112	11481.757206
519.175516	11508.586227
519.538863	11624.308434
519.902152	11648.904223
520.265385	11766.942841
520.628560	11812.605612
520.991678	11769.349992
521.354739	11843.127278
521.717743	11936.741505
522.080690	11928.310175
522.443580	12070.813512
522.806413	12097.365269
523.169189	12109.663164
523.531908	12177.030624
523.894569	12157.856595
524.257174	12179.546159
524.619722	12298.323306
524.982213	12283.572890
525.344647	12287.288220
525.707025	12310.197744
526.069345	12420.190679
526.431608	12416.457705
526.793815	12492.473264
527.155964	12412.013928
527.518057	12440.655243
527.880093	12405.984708
528.242072	12526.604396
528.603995	12458.944550
528.965860	12486.290289
529.327669	12514.223322
529.689421	12475.557672
530.051117	12495.092143
530.412755	12538.370449
530.774337	12546.043085
531.135862	12513.391532
531.497331	12573.958475
531.858743	12539.237528
532.220098	12625.441258
532.581396	12566.232906
532.942638	12492.962256
533.303824	12558.348542
533.664953	12541.601829
534.026025	12500.249244
534.387040	12601.503339
534.747999	12584.643200
535.108902	12629.300262
535.469748	12519.473684
535.830537	12543.341027
536.191270	12588.436668
536.551947	12522.518541
536.912567	12582.508272
537.273131	12611.555400
537.633638	12495.162719
537.994089	12565.322978
538.354483	12476.462559
538.714821	12597.591404
539.075103	12680.316738
539.435328	12618.207203
539.795497	12595.227103
540.155609	12590.327101
540.515665	12693.320395
540.875665	12550.328066
541.235609	12650.100062
541.595496	12626.895631
541.955328	12789.591310
542.315102	12638.659164
542.674821	12587.897265
543.034483	12600.089296
543.394090	12598.599635
543.753640	12572.294894
544.113134	12819.210609
544.472571	12586.919281
544.831953	12863.943288
545.191278	12683.038962
545.550548	12617.471194
545.909761	12723.857184
546.268918	12769.509873
546.628019	12843.350174
546.987064	12726.241650
547.346053	12578.558528
547.704986	12777.384156
548.063863	12661.992144
548.422684	12712.076008
548.781449	12681.579547
549.140158	12778.009259
549.498811	12719.040362
549.857408	12586.682347
550.215949	12792.540385
550.574434	12771.813681
550.932864	12711.682798
551.291237	12904.459041
551.649555	12787.143830
552.007817	12850.070032
552.366022	12767.523659
552.724173	12811.167448
553.082267	12894.631312
553.440305	12981.936535
553.798288	12809.337509
554.156215	12892.125858
554.514086	12937.592025
554.871902	12874.209598
555.229661	12891.064696
555.587365	12855.217051
555.945014	12869.899411
556.302606	12849.283613
556.660143	12913.296184
557.017625	12940.717540
557.375050	12903.128177
557.732421	13014.870393
558.089735	13006.925534
558.446994	12987.083553
558.804197	13096.952980
559.161345	13095.753186
559.518437	12895.861353
559.875474	13000.634174
560.232455	13024.877083
560.589381	13081.433788
560.946251	13019.195703
561.303065	13187.731558
561.659825	13136.944454
562.016528	13065.990213
562.373177	12995.653514
562.729770	13128.407260
563.086307	13012.924508
563.442789	13119.928039
563.799216	13152.198985
564.155587	13100.315430
564.511904	13124.029018
564.868164	13134.040749
565.224370	13195.184904
565.580520	13134.045790
565.936615	13201.624978
566.292654	13131.177374
566.648638	13206.076317
567.004567	13212.468500
567.360441	13207.679404
567.716260	13170.334536
568.072023	13265.420780
568.427732	13249.394952
568.783385	13157.320798
569.138982	13261.682765
569.494525	13257.405346
569.850013	13197.420656
570.205445	13184.986650
570.560823	13206.605638
570.916145	13152.695539
571.271412	13167.856809
571.626625	13125.251497
571.981782	13123.038431
572.336884	13072.253847
572.691931	13160.658042
573.046923	13057.243812
573.401860	13030.439997
573.756743	13023.097556
574.111570	13048.124364
574.466342	13020.738296
574.821059	13078.487234
575.175722	12944.263992
575.530330	12967.662508
575.884882	12903.609607
576.239380	12904.506932
576.593823	12884.687636
576.948211	12876.193292
577.302544	12760.113163
577.656823	12778.904064
578.011047	12835.916993
578.365216	12766.848144
578.719330	12718.316956
579.073389	12681.798838
579.427394	12697.113863
579.781344	12692.551619
580.135239	12617.445988
580.489080	12637.524904
580.842866	12519.985361
581.196597	12617.657717
581.550273	12603.340840
581.903895	12566.104357
582.257463	12670.715861
582.610975	12515.337417
582.964434	12585.822830
583.317837	12502.411899
583.671186	12456.282820
584.024481	12512.695853
584.377721	12401.634192
584.730906	12472.502733
585.084037	12486.035710
585.437113	12404.232907
585.790135	12427.152513
586.143103	12332.663646
586.496016	12344.225532
586.848874	12364.816125
587.201679	12367.200591
587.554428	12241.151580
587.907124	12288.470371
588.259765	12224.603992
588.612352	12296.011937
588.964884	12161.622337
589.317362	12206.493647
589.669786	12195.723222
590.022155	12161.254333
590.374470	12261.941298
590.726731	12150.191521
591.078937	12036.919314
591.431090	12055.932026
591.783188	11987.813435
592.135232	11906.756722
592.487222	11968.049591
592.839157	11981.766571
593.191038	11916.271900
593.542866	11867.082841
593.894639	11719.533309
594.246358	11780.826178
594.598022	11777.761157
594.949633	11680.469408
595.301190	11681.480159
595.652692	11627.504525
596.004141	11714.892927
596.355535	11496.006027
596.706876	11478.729993
597.058162	11445.463419
597.409395	11539.841380
597.760573	11570.874723
598.111698	11461.713578
598.462768	11469.658437
598.813785	11476.670682
599.164748	11343.743016
599.515657	11419.541806
599.866511	11300.563013
600.217312	11422.790829
600.568060	11204.516429
600.918753	11361.245903
601.269392	11358.322033
601.619978	11266.280646
601.970510	11300.315997
602.320988	11349.676454
602.671412	11416.282700
603.021783	11346.573624
603.372100	11272.791297
603.722363	11284.922833
604.072572	11285.812597
604.422728	11295.461365
604.772830	11238.970195
605.122878	11245.022101
605.472872	11218.364479
605.822813	11276.998139
606.172701	11239.171842
606.522534	11281.593151
606.872314	11334.346306
607.222041	11266.371387
607.571714	11335.709938
607.921333	11207.203364
608.270899	11255.031312
608.620411	11323.911117
608.969870	11268.070256
609.319276	11246.864642
609.668627	11264.818712
610.017926	11345.691422
610.367171	11373.223684
610.716362	11366.899557
611.065500	11338.016266
611.414585	11348.844664
611.763616	11417.618605
612.112594	11384.911599
612.461518	11414.873697
612.810389	11461.277518
613.159207	11401.701162
613.507971	11399.094886
613.856682	11500.754794
614.205340	11459.215686
614.553945	11592.526479
614.902496	11470.275978
615.250994	11539.589323
615.599439	11522.167095
615.947830	11549.926209
616.296169	11506.103458
616.644454	11529.234793
616.992686	11548.244984
617.340864	11631.706327
617.688990	11528.304700
618.037063	11661.436532
618.385082	11633.342181
618.733048	11670.671926
619.080961	11655.278762
619.428821	11642.827112
619.776628	11646.358441
620.124382	11590.575553
620.472083	11616.217382
620.819731	11632.586008
621.167326	11557.288814
621.514868	11539.070084
621.862357	11455.104625
622.209793	11440.235742
622.557176	11351.710560
622.904506	11299.935389
623.251783	11224.436549
623.599007	11163.569657
623.946179	11112.147368
624.293297	11090.140210
624.640363	10945.769126
624.987376	10930.786817
625.334336	10872.939576
625.681243	10789.710126
626.028097	10761.837587
626.374899	10727.419109
626.721647	10704.691067
627.068343	10652.938581
627.414987	10591.161762
627.761577	10517.424804
628.108115	10579.226830
628.454600	10449.223034
628.801032	10462.894643
629.147412	10441.487383
629.493739	10417.108363
629.840014	10339.918216
630.186236	10384.565195
630.532405	10284.112643
630.878521	10325.152676
631.224585	10282.073496
631.570597	10199.121309
631.916556	10202.508965
632.262462	10196.920846
632.608316	10172.030148
632.954117	10145.606941
633.299866	10127.037850
633.645562	10111.909348
633.991206	9999.448767
634.336797	9910.308564
634.682336	9901.995702
635.027823	9842.550415
635.373257	9803.347882
635.718639	9739.438655
636.063968	9704.029590
636.409245	9585.592722
636.754470	9574.270290
637.099642	9520.937403
637.444762	9425.941900
637.789829	9426.622456
638.134845	9357.132670
638.479808	9332.980502
638.824719	9301.347262
639.169577	9220.489675
