Dividing Wavelength (nm)	Counts (n)	Blue Motor Position (mm): 33.000000	Red Motor Position (mm): 0.000000	
326.493990	2098.148395
326.888308	2098.148395
327.282561	2098.148395
327.676750	2076.244582
328.070874	2074.079406
328.464933	2080.713565
328.858929	2091.761253
329.252859	2105.180805
329.646726	2118.854935
330.040528	2134.800104
330.434265	2156.852632
330.827938	2174.138748
331.221547	2196.130782
331.615091	2214.813298
332.008571	2235.608058
332.401986	2256.208733
332.795338	2277.270674
333.188625	2296.822789
333.581847	2317.063022
333.975006	2334.419714
334.368100	2351.458814
334.761129	2368.200486
335.154095	2385.105996
335.546996	2430.105856
335.939833	2511.661643
336.332606	2524.882068
336.725315	2534.888759
337.117960	2546.317055
337.510540	2549.961809
337.903056	2562.955383
338.295508	2566.905127
338.687896	2574.323185
339.080220	2580.304514
339.472480	2588.957654
339.864676	2589.907912
340.256807	2590.525453
340.648875	2595.364961
341.040879	2596.146340
341.432818	2598.510641
341.824694	2598.724890
342.216506	2599.236567
342.608253	2598.384612
342.999937	2593.280444
343.391557	2597.409149
343.783113	2595.264138
344.174605	2592.166349
344.566033	2590.815320
344.957397	2589.555031
345.348697	2585.655699
345.739934	2587.631831
346.131106	2584.695359
346.522215	2583.341809
346.913260	2580.057497
347.304241	2583.523291
347.695159	2576.304358
348.086012	2577.025243
348.476802	2578.144379
348.867528	2574.318144
349.258191	2575.328895
349.648789	2573.693041
350.039324	2570.242371
350.429796	2568.898903
350.820203	2567.827658
351.210548	2569.294634
351.600828	2568.397308
351.991045	2569.876887
352.381198	2568.387226
352.771288	2568.679613
353.161314	2569.516445
353.551276	2568.031825
353.941175	2565.138202
354.331010	2563.716597
354.720782	2569.340004
355.110490	2568.397308
355.500135	2568.682134
355.889717	2568.021742
356.279235	2565.775908
356.668689	2570.612896
357.058080	2569.455951
357.447408	2566.915209
357.836672	2563.499828
358.225873	2567.928481
358.615010	2567.033676
359.004084	2572.936867
359.393095	2573.380489
359.782043	2573.846796
360.170927	2574.116497
360.559748	2572.765468
360.948505	2575.470047
361.337199	2573.589697
361.725830	2575.800243
362.114398	2576.178329
362.502903	2578.436766
362.891344	2579.787796
363.279722	2577.075655
363.668037	2578.688824
364.056289	2580.354925
364.444478	2579.833166
364.832603	2578.373752
365.220665	2583.137642
365.608665	2581.395924
365.996601	2582.134453
366.384474	2582.935996
366.772284	2580.319637
367.160031	2582.545307
367.547715	2583.792992
367.935336	2584.833991
368.322893	2580.770821
368.710388	2584.811305
369.097820	2587.029413
369.485189	2586.207705
369.872495	2586.915987
370.259738	2587.508323
370.646918	2590.112079
371.034035	2589.613004
371.421090	2589.771801
371.808081	2588.294743
372.195010	2590.250710
372.581875	2588.080494
372.968678	2588.647623
373.355418	2590.434712
373.742096	2590.220463
374.128710	2593.845053
374.515262	2592.398242
374.901751	2592.206678
375.288177	2595.627101
375.674540	2591.790783
376.060841	2595.049889
376.447079	2595.677512
376.833254	2593.184662
377.219367	2590.603591
377.605417	2593.575351
377.991404	2591.725248
378.377329	2596.201792
378.763191	2595.059971
379.148991	2599.019797
379.534727	2597.842688
379.920402	2601.008533
380.306013	2600.184304
380.691563	2601.313522
381.077049	2600.320415
381.462474	2602.253698
381.847835	2601.484922
382.233134	2604.212186
382.618371	2603.251846
383.003545	2604.499532
383.388657	2604.744028
383.773706	2606.047166
384.158693	2605.467433
384.543618	2604.491970
384.928480	2606.639502
385.313280	2608.053545
385.698017	2609.351642
386.082692	2609.381889
386.467305	2606.127824
386.851856	2608.925665
387.236344	2608.300562
387.620770	2611.529421
388.005133	2613.336674
388.389435	2611.569750
388.773674	2612.048660
389.157851	2612.298197
389.541965	2613.366921
389.926018	2616.220214
390.310008	2616.197529
390.693936	2614.765842
391.077802	2615.380862
391.461606	2617.604011
391.845348	2618.463528
392.229027	2617.772890
392.612645	2619.519650
392.996200	2620.240535
393.379694	2621.704990
393.763125	2622.211626
394.146494	2624.913684
394.529801	2627.615743
394.913047	2625.720269
395.296230	2625.208592
395.679351	2626.887296
396.062410	2626.453757
396.445408	2625.412758
396.828343	2627.698922
397.211217	2625.624487
397.594028	2630.121196
397.976778	2630.128758
398.359466	2626.070629
398.742092	2627.078860
399.124656	2631.439458
399.507158	2634.267545
399.889598	2632.868625
400.271977	2633.496249
400.654294	2636.475571
401.036549	2636.503297
401.418742	2636.440282
401.800874	2636.069758
402.182944	2640.324492
402.564952	2640.884060
402.946898	2642.368679
403.328783	2640.233751
403.710606	2643.770120
404.092367	2646.315903
404.474067	2646.925882
404.855705	2647.787920
405.237282	2646.746922
405.618797	2649.456542
406.000250	2652.962664
406.381642	2654.021307
406.762972	2656.680515
407.144240	2657.784528
407.525447	2658.366781
407.906593	2657.056081
408.287677	2660.365599
408.668700	2661.769560
409.049661	2664.360713
409.430560	2664.940446
409.811399	2669.437155
410.192176	2670.977227
410.572891	2673.591066
410.953545	2676.547702
411.334138	2677.560974
411.714669	2686.103210
412.095139	2685.107582
412.475547	2689.107737
412.855894	2692.876000
413.236180	2700.208358
413.616405	2701.481249
413.996568	2709.302600
414.376670	2720.098231
414.756711	2721.073694
415.136691	2735.143554
415.516609	2746.448342
415.896466	2757.158273
416.276262	2772.223761
416.655997	2789.083900
417.035670	2804.706436
417.415283	2833.032680
417.794834	2856.411031
418.174324	2874.239071
418.553753	2897.808986
418.933121	2935.952877
419.312428	2962.562607
419.691674	2995.327587
420.070859	3044.297355
420.449983	3075.532344
420.829045	3137.072230
421.208047	3177.890453
421.586988	3244.317737
421.965867	3318.513439
422.344686	3378.210783
422.723444	3476.573777
423.102141	3468.255873
423.480777	3614.618213
423.859352	3661.919360
424.237866	3830.823219
424.616319	3904.098911
424.994712	4053.785892
425.373044	4139.472905
425.751314	4317.846572
426.129524	4334.069005
426.507673	4570.753698
426.885762	4663.775590
427.263789	4816.991379
427.641756	4971.532991
428.019662	5111.213282
428.397508	5255.720477
428.775292	5448.153922
429.153016	5591.655408
429.530679	5757.121201
429.908282	5925.752838
430.285824	6020.287075
430.663305	6335.112174
431.040726	6420.902530
431.418086	6542.666560
431.795385	6868.292331
432.172624	7165.528844
432.549802	7229.042342
432.926920	7467.146120
433.303977	7628.513455
433.680974	7897.834578
434.057910	8179.035181
434.434786	8394.962924
434.811601	8570.258967
435.188355	9139.919433
435.565050	9234.068023
435.941683	9432.565976
436.318257	9982.437393
436.694770	10131.360640
437.071222	10590.556823
437.447614	10430.812740
437.823946	10649.550926
438.200218	10944.203848
438.576429	11057.188708
438.952580	11414.293964
439.328670	11622.443207
439.704700	12047.818289
440.080670	12041.524408
440.456580	12578.447622
440.832429	12913.407089
441.208218	12569.854975
441.583947	13047.902553
441.959616	13317.637052
442.335224	13682.641796
442.710773	13978.789420
443.086261	14526.120096
443.461689	14337.107073
443.837057	14626.227329
444.212365	15256.868113
444.587612	15472.289220
444.962800	15405.672893
445.337927	15900.542801
445.712995	15201.417942
446.088002	16705.935183
446.462949	17072.457315
446.837837	17411.568172
447.212664	17628.415926
447.587431	20075.167671
447.962139	22527.366384
448.336786	24511.849363
448.711374	23438.905302
449.085901	20759.872310
449.460369	20985.312710
449.834776	21196.043023
450.209124	23456.050266
450.583412	23207.690260
450.957640	23790.719867
451.331808	22856.115149
451.705917	21889.610011
452.079965	22093.202050
452.453954	22592.513215
452.827883	22676.062778
453.201752	22635.922591
453.575562	22937.491975
453.949311	24099.719912
454.323001	24291.745024
454.696632	24229.859819
455.070202	25785.625431
455.443713	26085.500988
455.817164	26732.797745
456.190556	27368.847688
456.563888	26951.566178
456.937160	27468.861659
457.310373	26032.503338
457.683526	26552.611783
458.056619	26648.973439
458.429653	26732.722128
458.802628	27390.554896
459.175542	27608.539430
459.548398	28998.801440
459.921194	30632.591511
460.293930	31401.221279
460.666607	33443.115438
461.039224	35252.831696
461.411782	35693.143717
461.784280	34565.465328
462.156719	34140.009587
462.529099	33662.859335
462.901419	32447.747173
463.273680	31496.249549
463.645882	31680.029854
464.018024	31720.442264
464.390106	32661.219874
464.762130	35546.456222
465.134094	39798.735027
465.505999	45177.086612
465.877845	49710.865968
466.249631	50796.914508
466.621358	49067.095498
466.993026	46952.144937
467.364634	44913.093988
467.736184	42989.644259
468.107674	41759.874943
468.479105	40996.523263
468.850477	40311.256535
469.221790	38875.848471
469.593043	37146.367218
469.964238	36273.095699
470.335373	36240.328199
470.706449	38131.015470
471.077467	40921.037025
471.448425	45519.811977
471.819324	48197.269608
472.190164	46188.163113
472.560945	42644.163903
472.931667	39542.672137
473.302330	38461.745409
473.672934	37624.805486
474.043479	38172.940226
474.413965	37385.882520
474.784393	37009.441918
475.154761	37945.415309
475.525070	38001.430090
475.895321	37515.856069
476.265513	38151.585898
476.635645	39152.814505
477.005719	39003.717339
477.375734	39506.123772
477.745691	40239.180638
478.115588	41602.888371
478.485427	43714.844487
478.855207	47175.203392
479.224928	49804.666718
479.594591	51343.632684
479.964194	50271.482605
480.333739	50426.372057
480.703226	50523.167252
481.072653	51173.821417
481.442022	51650.732215
481.811333	51855.317361
482.180584	50572.245405
482.549777	50072.530948
482.918912	49516.577378
483.287988	49208.439370
483.657005	48381.337258
484.025964	47713.044096
484.394864	47719.837051
484.763706	47292.506001
485.132489	46414.316836
485.501213	46238.249497
485.869879	46413.331291
486.238487	45997.894843
486.607036	46184.745211
486.975527	45625.083872
487.343959	45825.804974
487.712333	45901.802889
488.080648	45794.877496
488.448905	46268.582120
488.817104	46068.813796
489.185244	47101.872248
489.553326	48856.745792
489.921350	51596.567537
490.289315	54389.084463
490.657222	54873.703186
491.025070	55121.027234
491.392861	54214.985695
491.760593	52971.247341
492.128267	51307.064154
492.495883	49763.356982
492.863440	48368.084065
493.230939	47010.907147
493.598380	45912.391833
493.965763	45566.578761
494.333088	44746.317496
494.700354	44261.081232
495.067563	43951.347699
495.434713	43811.921986
495.801805	43887.037699
496.168839	43503.910007
496.535815	43144.183351
496.902733	43173.396837
497.269593	42746.443874
497.636395	42685.486242
498.003139	43076.218514
498.369825	42529.056717
498.736453	42830.109384
499.103023	42345.165507
499.469535	42236.493354
499.835989	42323.022239
500.202385	41972.709938
500.568723	41999.947292
500.935003	42183.427648
501.301226	41988.032525
501.667390	42604.946247
502.033497	42857.470246
502.399546	42278.894499
502.765537	41588.500918
503.131470	41956.641260
503.497345	42332.819721
503.863163	40964.738788
504.228923	41606.270985
504.594625	42017.556042
504.960269	41277.048351
505.325856	41974.529794
505.691385	41342.046468
506.056856	41474.263330
506.422270	41937.719289
506.787625	41471.069759
507.152924	41678.430061
507.518164	41768.641509
507.883347	40972.212298
508.248472	41222.084650
508.613540	41720.392626
508.978550	42022.856815
509.343503	41770.105964
509.708398	41962.725932
510.073236	42503.460258
510.438016	42501.859692
510.802738	41935.475975
511.167403	42575.982298
511.532010	42802.461175
511.896561	43113.142446
512.261053	43963.428824
512.625488	43513.536090
512.989866	43371.012588
513.354186	43219.982140
513.718449	43207.059142
514.082655	43888.834870
514.446803	43550.457501
514.810894	44092.512609
515.174927	43995.596427
515.538904	43894.634718
515.902822	44563.280761
516.266684	44004.811656
516.630488	44436.152943
516.994235	44279.310044
517.357925	44866.932142
517.721558	45036.887083
518.085133	45356.218973
518.448651	45459.265199
518.812112	45235.248925
519.175516	45353.511873
519.538863	45675.482808
519.902152	45630.455222
520.265385	46100.600791
520.628560	46135.601522
520.991678	45923.983966
521.354739	46146.820610
521.717743	46472.340517
522.080690	46353.258381
522.443580	46894.690907
522.806413	46930.319262
523.169189	46893.685197
523.531908	47072.411744
523.894569	46900.904129
524.257174	47083.756861
524.619722	47377.310811
524.982213	47363.210704
525.344647	47275.615615
525.707025	47323.267122
526.069345	47728.795181
526.431608	47634.233217
526.793815	47956.388154
527.155964	47489.786515
527.518057	47656.807504
527.880093	47432.352650
528.242072	47975.804158
528.603995	47661.752876
528.965860	47665.135490
529.327669	47768.332951
529.689421	47659.375972
530.051117	47602.421016
530.412755	47758.848020
530.774337	47844.169548
531.135862	47630.747259
531.497331	47831.370059
531.858743	47718.670023
532.220098	48074.036082
532.581396	47771.203888
532.942638	47418.335721
533.303824	47752.357534
533.664953	47720.890652
534.026025	47437.812219
534.387040	47912.920805
534.747999	47863.333495
535.108902	48022.507928
535.469748	47523.547123
535.830537	47633.421591
536.191270	47832.705965
536.551947	47493.738780
536.912567	47786.334911
537.273131	47929.281869
537.633638	47395.569871
537.994089	47733.927076
538.354483	47331.108636
538.714821	47896.466478
539.075103	48245.904140
539.435328	48022.016415
539.795497	47882.583141
540.155609	47884.337462
540.515665	48347.044809
540.875665	47783.794169
541.235609	48113.591495
541.595496	48092.121221
541.955328	48793.839754
542.315102	48121.329666
542.674821	47877.531905
543.034483	47928.566026
543.394090	47913.157739
543.753640	47846.397738
544.113134	48879.327641
544.472571	47847.204323
544.831953	49106.086303
545.191278	48296.595462
545.550548	48015.409983
545.909761	48482.112444
546.268918	48669.255198
546.628019	48986.850411
546.987064	48534.457265
547.346053	47794.662897
547.704986	48670.223100
548.063863	48212.440960
548.422684	48401.408612
548.781449	48236.504908
549.140158	48624.935894
549.498811	48467.329261
549.857408	47884.105569
550.215949	48731.997399
550.574434	48662.028704
550.932864	48402.356349
551.291237	49119.306729
551.649555	48726.053879
552.007817	48956.858067
552.366022	48602.399416
552.724173	48756.094115
553.082267	49148.311007
553.440305	49417.072563
553.798288	48706.292556
554.156215	49029.402791
554.514086	49233.486343
554.871902	48954.995360
555.229661	48986.124485
555.587365	48795.256318
555.945014	48892.666534
556.302606	48810.525973
556.660143	49030.022853
557.017625	49099.898286
557.375050	48895.388757
557.732421	49213.919104
558.089735	49205.545747
558.446994	49113.809350
558.804197	49572.201470
559.161345	49488.903964
559.518437	48713.781190
559.875474	49033.604593
560.232455	49209.482889
560.589381	49367.439883
560.946251	49063.886804
561.303065	49721.240663
561.659825	49501.554740
562.016528	49173.746149
562.373177	48888.033714
562.729770	49357.975116
563.086307	48870.936640
563.442789	49332.663483
563.799216	49356.944200
564.155587	49151.754115
564.511904	49168.657104
564.868164	49242.908259
565.224370	49474.665225
565.580520	49186.986740
565.936615	49394.672196
566.292654	49102.963308
566.648638	49364.528616
567.004567	49312.390483
567.360441	49358.438902
567.716260	49210.901973
568.072023	49488.276340
568.427732	49455.395414
568.783385	48986.177417
569.138982	49374.275687
569.494525	49323.995219
569.850013	49067.544161
570.205445	49049.307787
570.560823	48974.751642
570.916145	48867.717864
571.271412	48894.493952
571.626625	48642.600098
571.981782	48666.089354
572.336884	48347.697639
572.691931	48645.405500
573.046923	48254.191797
573.401860	48081.330631
573.756743	48052.565807
574.111570	48162.258794
574.466342	48002.277777
574.821059	48095.213969
575.175722	47610.839743
575.530330	47646.992377
575.884882	47323.892225
576.239380	47273.647044
576.593823	47247.851460
576.948211	47167.913883
577.302544	46676.313163
577.656823	46676.983637
578.011047	46893.942295
578.365216	46616.257897
578.719330	46389.065697
579.073389	46235.960813
579.427394	46313.604665
579.781344	46265.166738
580.135239	45912.346462
580.489080	45973.319218
580.842866	45453.851000
581.196597	45887.473409
581.550273	45822.576115
581.903895	45675.704619
582.257463	46085.484891
582.610975	45458.206557
582.964434	45744.465957
583.317837	45361.527308
583.671186	45184.890318
584.024481	45403.429379
584.377721	44917.570533
584.730906	45201.329521
585.084037	45255.176606
585.437113	44964.906967
585.790135	44976.383154
586.143103	44550.753494
586.496016	44678.594635
586.848874	44686.733578
587.201679	44691.857911
587.554428	44154.823791
587.907124	44346.312020
588.259765	44090.806179
588.612352	44336.859857
588.964884	43696.066188
589.317362	43988.667361
589.669786	43925.814254
590.022155	43661.458667
590.374470	44118.560251
590.726731	43614.177685
591.078937	43125.263900
591.431090	43227.485897
591.783188	42867.822256
592.135232	42544.190261
592.487222	42807.845128
592.839157	42867.227399
593.191038	42533.697099
593.542866	42269.076852
593.894639	41684.381143
594.246358	41938.755246
594.598022	41905.735688
594.949633	41510.400842
595.301190	41485.051400
595.652692	41317.884218
596.004141	41625.916362
596.355535	40631.523560
596.706876	40562.759701
597.058162	40407.429148
597.409395	40853.299041
597.760573	40937.662750
598.111698	40530.985308
598.462768	40532.976564
598.813785	40567.619373
599.164748	40012.535402
599.515657	40384.202031
599.866511	39871.645235
600.217312	40485.889666
600.568060	39450.265267
600.918753	40185.968739
601.269392	40130.190892
601.619978	39778.686358
601.970510	39999.004945
602.320988	40168.236480
602.671412	40485.773720
603.021783	40224.173123
603.372100	39873.785204
603.722363	39977.895114
604.072572	40047.077388
604.422728	40067.922560
604.772830	39869.502744
605.122878	39965.239297
605.472872	39919.836145
605.822813	40183.407833
606.172701	39987.498512
606.522534	40241.996123
606.872314	40498.479948
607.222041	40253.966342
607.571714	40623.863526
607.921333	40074.213920
608.270899	40355.981652
608.620411	40719.453886
608.969870	40510.581238
609.319276	40493.723619
609.668627	40553.872146
610.017926	41017.882632
610.367171	41180.948835
610.716362	41256.621595
611.065500	41194.083561
611.414585	41381.972406
611.763616	41690.861547
612.112594	41606.273506
612.461518	41838.978208
612.810389	42117.181845
613.159207	42003.198836
613.507971	42071.002355
613.856682	42533.170299
614.205340	42423.331118
614.553945	43135.368893
614.902496	42583.470932
615.250994	43044.557548
615.599439	43114.042292
615.947830	43318.803879
616.296169	43388.495310
616.644454	43494.092360
616.992686	43670.716746
617.340864	44169.259135
617.688990	43871.402560
618.037063	44490.370553
618.385082	44462.586234
618.733048	44749.337147
619.080961	44756.419968
619.428821	44781.497188
619.776628	44883.479730
620.124382	44727.985340
620.472083	44859.312438
620.819731	44991.113406
621.167326	44664.033262
621.514868	44658.530843
621.862357	44212.156834
622.209793	44229.483280
622.557176	43912.981997
622.904506	43643.164320
623.251783	43316.641224
623.599007	43075.893360
623.946179	42874.640416
624.293297	42811.809995
624.640363	42220.631363
624.987376	42196.847199
625.334336	41962.882208
625.681243	41610.417334
626.028097	41568.974008
626.374899	41425.749786
626.721647	41401.879923
627.068343	41284.027828
627.414987	41051.514689
627.761577	40836.010404
628.108115	41165.623727
628.454600	40590.901942
628.801032	40803.300877
629.147412	40741.050189
629.493739	40752.901941
629.840014	40396.941027
630.186236	40736.316545
630.532405	40326.516108
630.878521	40535.691225
631.224585	40411.189848
631.570597	40114.346545
631.916556	40279.454416
632.262462	40224.576415
632.608316	40254.505746
632.954117	40148.654118
633.299866	40133.465121
633.645562	40065.611191
633.991206	39583.767624
634.336797	39133.211978
634.682336	39128.266606
635.027823	38894.140298
635.373257	38711.070796
635.718639	38471.568097
636.063968	38330.093156
