Dividing Wavelength (nm)	Counts (n)	Blue Motor Position (mm): 31.000000	Red Motor Position (mm): 0.000000	
326.493990	2100.623602
326.888308	2100.623602
327.282561	2100.623602
327.676750	2073.378686
328.070874	2078.576116
328.464933	2082.475448
328.858929	2093.293764
329.252859	2106.398244
329.646726	2120.616818
330.040528	2134.381689
330.434265	2158.407828
330.827938	2174.400888
331.221547	2195.528364
331.615091	2216.749101
332.008571	2238.022771
332.401986	2258.542787
332.795338	2278.299069
333.188625	2298.977882
333.581847	2316.364822
333.975006	2333.991216
334.368100	2351.403362
334.761129	2370.529499
335.154095	2387.329145
335.546996	2428.969075
335.939833	2510.792043
336.332606	2524.027593
336.725315	2536.053265
337.117960	2547.244627
337.510540	2552.046326
337.903056	2562.242060
338.295508	2566.411094
338.687896	2576.148083
339.080220	2583.399782
339.472480	2587.034454
339.864676	2590.293560
340.256807	2593.416555
340.648875	2593.298088
341.040879	2598.603902
341.432818	2597.613316
341.824694	2596.993254
342.216506	2597.998964
342.608253	2598.273707
342.999937	2595.677512
343.391557	2596.988212
343.783113	2595.521237
344.174605	2592.698191
344.566033	2592.431009
344.957397	2588.211564
345.348697	2585.779207
345.739934	2590.628797
346.131106	2586.051429
346.522215	2584.665112
346.913260	2583.616552
347.304241	2583.016655
347.695159	2578.721592
348.086012	2579.074472
348.476802	2575.102043
348.867528	2574.396282
349.258191	2573.632547
349.648789	2572.251271
350.039324	2569.564336
350.429796	2570.983420
350.820203	2571.613565
351.210548	2571.986610
351.600828	2567.626012
351.991045	2567.789849
352.381198	2566.290106
352.771288	2570.620457
353.161314	2568.009140
353.551276	2564.913871
353.941175	2565.783470
354.331010	2563.983778
354.720782	2568.838409
355.110490	2573.463668
355.500135	2568.800601
355.889717	2569.808832
356.279235	2569.334963
356.668689	2569.758420
357.058080	2570.035683
357.447408	2564.893707
357.836672	2567.179870
358.225873	2571.026270
358.615010	2569.463512
359.004084	2571.525344
359.393095	2571.056517
359.782043	2573.803946
360.170927	2574.749162
360.559748	2573.814028
360.948505	2573.640108
361.337199	2579.336612
361.725830	2575.417115
362.114398	2576.513566
362.502903	2579.399627
362.891344	2577.428536
363.279722	2575.502815
363.668037	2581.814339
364.056289	2581.481623
364.444478	2578.562795
364.832603	2581.257292
365.220665	2581.176633
365.608665	2580.717888
365.996601	2581.111098
366.384474	2582.807447
366.772284	2584.662591
367.160031	2582.792323
367.547715	2581.605132
367.935336	2583.954309
368.322893	2584.927252
368.710388	2583.765266
369.097820	2585.693507
369.485189	2586.734506
369.872495	2587.815833
370.259738	2585.199474
370.646918	2587.286512
371.034035	2587.868765
371.421090	2588.687953
371.808081	2589.184506
372.195010	2586.852973
372.581875	2590.608632
372.968678	2589.202150
373.355418	2590.172572
373.742096	2588.357757
374.128710	2590.822881
374.515262	2593.310691
374.901751	2593.282964
375.288177	2595.390167
375.674540	2593.892944
376.060841	2594.578541
376.447079	2596.741196
376.833254	2592.844384
377.219367	2588.957654
377.605417	2592.075608
377.991404	2590.631317
378.377329	2592.264651
378.763191	2590.815320
379.148991	2598.656834
379.534727	2598.031731
379.920402	2596.370671
380.306013	2601.595827
380.691563	2599.508789
381.077049	2598.372009
381.462474	2599.065168
381.847835	2601.721856
382.233134	2601.651280
382.618371	2600.461567
383.003545	2602.422576
383.388657	2603.498863
383.773706	2603.483739
384.158693	2604.045828
384.543618	2602.949377
384.928480	2602.898965
385.313280	2604.789398
385.698017	2606.271497
386.082692	2605.159923
386.467305	2606.755448
386.851856	2608.106477
387.236344	2604.617999
387.620770	2608.121601
388.005133	2609.134873
388.389435	2609.749893
388.773674	2608.872733
389.157851	2610.390120
389.541965	2609.669235
389.926018	2613.535800
390.310008	2610.672425
390.693936	2610.105295
391.077802	2614.029833
391.461606	2612.693927
391.845348	2611.990686
392.229027	2614.228959
392.612645	2614.055039
392.996200	2616.575616
393.379694	2618.380349
393.763125	2619.970833
394.146494	2618.788682
394.529801	2620.036368
394.913047	2624.112141
395.296230	2619.746502
395.679351	2622.214146
396.062410	2622.256996
396.445408	2623.209774
396.828343	2622.055350
397.211217	2618.198867
397.594028	2620.714403
397.976778	2621.788169
398.359466	2621.667181
398.742092	2620.033847
399.124656	2625.052316
399.507158	2627.464508
399.889598	2625.710187
400.271977	2628.896196
400.654294	2629.992647
401.036549	2628.291257
401.418742	2627.703963
401.800874	2630.905096
402.182944	2631.565487
402.564952	2631.542802
402.946898	2633.087915
403.328783	2632.241001
403.710606	2632.540950
404.092367	2635.918523
404.474067	2633.947432
404.855705	2636.049593
405.237282	2636.626805
405.618797	2635.787453
406.000250	2638.116466
406.381642	2640.803401
406.762972	2642.587970
407.144240	2642.119142
407.525447	2645.897487
407.906593	2643.651653
408.287677	2643.470172
408.668700	2645.121149
409.049661	2647.001500
409.430560	2644.851448
409.811399	2647.122487
410.192176	2648.213897
410.572891	2646.779689
410.953545	2651.357057
411.334138	2650.613487
411.714669	2652.650113
412.095139	2653.406286
412.475547	2652.496357
412.855894	2654.406955
413.236180	2656.002480
413.616405	2658.475166
413.996568	2658.255876
414.376670	2660.756288
414.756711	2659.175886
415.136691	2662.671927
415.516609	2664.002791
415.896466	2669.510252
416.276262	2669.911023
416.655997	2669.946312
417.035670	2672.280366
417.415283	2675.161385
417.794834	2677.109791
418.174324	2680.099195
418.553753	2682.773527
418.933121	2687.925587
419.312428	2690.796524
419.691674	2696.614015
420.070859	2701.219109
420.449983	2701.798842
420.829045	2709.874771
421.208047	2716.498847
421.586988	2722.031513
421.965867	2733.137175
422.344686	2739.284862
422.723444	2753.926893
423.102141	2750.897160
423.480777	2773.012702
423.859352	2778.941099
424.237866	2805.457568
424.616319	2817.747901
424.994712	2842.086592
425.373044	2858.049406
425.751314	2892.036865
426.129524	2902.403998
426.507673	2949.896708
426.885762	2974.487457
427.263789	3012.318796
427.641756	3051.289435
428.019662	3087.381576
428.397508	3133.309008
428.775292	3188.668439
429.153016	3237.250039
429.530679	3291.903708
429.908282	3351.185157
430.285824	3393.964389
430.663305	3493.630521
431.040726	3546.885270
431.418086	3608.689816
431.795385	3725.405131
432.172624	3835.788756
432.549802	3895.279412
432.926920	4002.439220
433.303977	4086.203032
433.680974	4209.970921
434.057910	4343.546374
434.434786	4456.828663
434.811601	4561.732554
435.188355	4801.414213
435.565050	4888.974014
435.941683	5009.228219
436.318257	5254.518162
436.694770	5364.228793
437.071222	5598.082879
437.447614	5602.113282
437.823946	5750.212299
438.200218	5929.087561
438.576429	6050.039965
438.952580	6262.801863
439.328670	6422.125010
439.704700	6673.512229
440.080670	6747.027376
440.456580	7054.454581
440.832429	7278.312059
441.208218	7212.033489
441.583947	7499.280955
441.959616	7721.164821
442.335224	7976.458934
442.710773	8210.779327
443.086261	8567.607320
443.461689	8572.487157
443.837057	8812.251995
444.212365	9228.515192
444.587612	9434.126213
444.962800	9512.858954
445.337927	9870.475887
445.712995	9607.609961
446.088002	10521.288849
446.462949	10835.025058
446.837837	11142.996708
447.212664	11386.923020
447.587431	12923.065940
447.962139	14503.704605
448.336786	15810.739686
448.711374	15336.014229
449.085901	13873.434346
449.460369	14136.963183
449.834776	14422.191668
450.209124	15987.134701
450.583412	16003.178173
450.957640	16501.491189
451.331808	16047.079061
451.705917	15571.073150
452.079965	15844.258318
452.453954	16329.146742
452.827883	16537.227929
453.201752	16647.142727
453.575562	16995.821694
453.949311	17984.061768
454.323001	18290.417728
454.696632	18407.042302
455.070202	19700.705723
455.443713	20076.100285
455.817164	20733.650748
456.190556	21376.662524
456.563888	21214.493646
456.937160	21770.575765
457.310373	20821.301290
457.683526	21376.546578
458.056619	21629.587295
458.429653	21845.386488
458.802628	22534.653372
459.175542	22872.899671
459.548398	24136.162413
459.921194	25627.983509
460.293930	26391.259572
460.666607	28268.945707
461.039224	29946.437540
461.411782	30510.514929
461.784280	29746.228115
462.156719	29578.125799
462.529099	29365.628562
462.901419	28488.361928
463.273680	27816.396285
463.645882	28137.210275
464.018024	28337.258383
464.390106	29340.412710
464.762130	32008.675276
465.134094	35915.745947
465.505999	40937.418254
465.877845	45335.842629
466.249631	46619.781664
466.621358	45210.040635
466.993026	43460.505672
467.364634	41743.972623
467.736184	40119.216300
468.107674	39129.499168
468.479105	38526.834267
468.850477	38035.702374
469.221790	36842.814140
469.593043	35326.805588
469.964238	34618.367196
470.335373	34681.495045
470.706449	36609.948120
471.077467	39388.523735
471.448425	43919.462401
471.819324	46625.798281
472.190164	44787.874247
472.560945	41421.487491
472.931667	38492.506530
473.302330	37540.998824
473.672934	36802.442059
474.043479	37410.251458
474.413965	36710.551907
474.784393	36406.484630
475.154761	37379.961685
475.525070	37487.950762
475.895321	37056.352375
476.265513	37747.403827
476.635645	38787.716499
477.005719	38681.842186
477.375734	39230.972554
477.745691	39995.148463
478.115588	41414.462643
478.485427	43541.383424
478.855207	47031.558234
479.224928	49672.293579
479.594591	51263.682505
479.964194	50235.274517
480.333739	50443.275046
480.703226	50555.027344
481.072653	51214.962273
481.442022	51711.989796
481.811333	51945.347328
482.180584	50683.876716
482.549777	50191.630728
482.918912	49680.918993
483.287988	49389.552904
483.657005	48584.253783
484.025964	47928.233309
484.394864	47962.427456
484.763706	47544.326759
485.132489	46662.780186
485.501213	46509.919798
485.869879	46676.744182
486.238487	46261.148938
486.607036	46468.360526
486.975527	45908.676502
487.343959	46155.022568
487.712333	46219.821559
488.080648	46131.263609
488.448905	46607.002339
488.817104	46408.317863
489.185244	47445.535267
489.553326	49233.826621
489.921350	51968.876913
490.289315	54725.899075
490.657222	55224.759057
491.025070	55474.034033
491.392861	54577.172434
491.760593	53369.193505
492.128267	51714.744786
492.495883	50190.246931
492.863440	48809.951282
493.230939	47426.774613
493.598380	46318.388720
493.965763	45988.475447
494.333088	45170.959090
494.700354	44664.486966
495.067563	44368.130134
495.434713	44232.112242
495.801805	44303.701667
496.168839	43915.396710
496.535815	43590.595168
496.902733	43599.833082
497.269593	43173.603524
497.636395	43113.843166
498.003139	43525.811300
498.369825	42954.981285
498.736453	43285.595278
499.103023	42797.614106
499.469535	42666.675176
499.835989	42776.290025
500.202385	42418.940273
500.568723	42456.948052
500.935003	42648.088442
501.301226	42441.917852
501.667390	43076.316817
502.033497	43339.356663
502.399546	42744.976898
502.765537	42043.686863
503.131470	42436.299486
503.497345	42808.210611
503.863163	41444.399535
504.228923	42074.052253
504.594625	42506.454704
504.960269	41748.247521
505.325856	42468.154538
505.691385	41815.604898
506.056856	41958.206538
506.422270	42402.548961
506.787625	41957.709984
507.152924	42179.150229
507.518164	42268.424022
507.883347	41449.392798
508.248472	41707.404093
508.613540	42208.159548
508.978550	42508.188861
509.343503	42269.102057
509.708398	42467.085813
510.073236	43010.988504
510.438016	43008.452804
510.802738	42443.944396
511.167403	43086.192437
511.532010	43308.570336
511.896561	43620.398469
512.261053	44488.762425
512.625488	44021.379408
512.989866	43900.366510
513.354186	43726.449223
513.718449	43726.504675
514.082655	44433.914671
514.446803	44065.204679
514.810894	44605.490342
515.174927	44515.097413
515.538904	44420.681642
515.902822	45087.573364
516.266684	44527.125606
516.630488	44958.615607
516.994235	44800.877904
517.357925	45407.177477
517.721558	45576.141830
518.085133	45884.410908
518.448651	45988.263719
518.812112	45760.743843
519.175516	45869.337858
519.538863	46202.359002
519.902152	46170.536718
520.265385	46632.608880
520.628560	46674.082453
520.991678	46446.466795
521.354739	46680.076385
521.717743	47006.705345
522.080690	46877.324132
522.443580	47434.212835
522.806413	47472.601222
523.169189	47438.044112
523.531908	47613.057850
523.894569	47464.185016
524.257174	47624.914644
524.619722	47914.576824
524.982213	47893.663597
525.344647	47812.473294
525.707025	47859.802167
526.069345	48246.919932
526.431608	48168.570319
526.793815	48496.116770
527.155964	48022.717135
527.518057	48171.216925
527.880093	47970.674784
528.242072	48480.216970
528.603995	48195.328764
528.965860	48192.480512
529.327669	48271.266185
529.689421	48176.489972
530.051117	48114.929922
530.412755	48263.109598
530.774337	48340.881999
531.135862	48152.917536
531.497331	48335.445114
531.858743	48219.264162
532.220098	48558.889217
532.581396	48273.436401
532.942638	47918.937422
533.303824	48250.751209
533.664953	48212.927432
534.026025	47923.918082
534.387040	48399.024147
534.747999	48333.494188
535.108902	48499.007871
535.469748	47994.617744
535.830537	48108.751988
536.191270	48303.186771
536.551947	47955.276579
536.912567	48256.455275
537.273131	48396.453158
537.633638	47871.895895
537.994089	48199.028971
538.354483	47780.257800
538.714821	48375.028254
539.075103	48709.168534
539.435328	48479.319645
539.795497	48351.828864
540.155609	48340.302266
540.515665	48811.327517
540.875665	48250.748688
541.235609	48574.902443
541.595496	48552.552487
541.955328	49232.704964
542.315102	48579.197506
542.674821	48342.071711
543.034483	48391.845543
543.394090	48355.690388
543.753640	48306.526535
544.113134	49334.347228
544.472571	48301.462696
544.831953	49568.730635
545.191278	48753.518085
545.550548	48494.357407
545.909761	48945.432291
546.268918	49131.085385
546.628019	49448.627665
546.987064	49010.420326
547.346053	48250.340355
547.704986	49140.164503
548.063863	48685.528043
548.422684	48868.020333
548.781449	48706.579902
549.140158	49096.170353
549.498811	48935.697823
549.857408	48338.535342
550.215949	49201.495180
550.574434	49128.032966
550.932864	48873.749604
551.291237	49598.947311
551.649555	49200.925530
552.007817	49426.696126
552.366022	49083.547304
552.724173	49234.630685
553.082267	49638.590945
553.440305	49908.900135
553.798288	49213.306604
554.156215	49520.877482
554.514086	49724.918184
554.871902	49459.599737
555.229661	49469.508125
555.587365	49298.466816
555.945014	49407.597714
556.302606	49315.074897
556.660143	49533.666890
557.017625	49608.013827
557.375050	49385.386390
557.732421	49731.179297
558.089735	49709.325895
558.446994	49617.304673
558.804197	50066.315205
559.161345	50001.009578
559.518437	49226.582482
559.875474	49541.513446
560.232455	49723.131095
560.589381	49889.849615
560.946251	49566.197455
561.303065	50245.860940
561.659825	50032.539474
562.016528	49691.991888
562.373177	49404.139483
562.729770	49890.371374
563.086307	49389.535260
563.442789	49867.260204
563.799216	49874.128776
564.155587	49663.267393
564.511904	49696.067661
564.868164	49766.215317
565.224370	49992.495069
565.580520	49729.581252
565.936615	49934.610020
566.292654	49636.365276
566.648638	49893.842208
567.004567	49845.263129
567.360441	49887.961703
567.716260	49732.094267
568.072023	50009.773623
568.427732	49988.084059
568.783385	49499.833186
569.138982	49892.947404
569.494525	49842.296410
569.850013	49610.909969
570.205445	49585.827708
570.560823	49519.922184
570.916145	49401.782743
571.271412	49422.186813
571.626625	49165.829017
571.981782	49198.200786
572.336884	48874.157938
572.691931	49199.355211
573.046923	48791.861101
573.401860	48633.992327
573.756743	48583.081715
574.111570	48698.914827
574.466342	48537.282832
574.821059	48627.819434
575.175722	48147.019386
575.530330	48167.466306
575.884882	47845.583592
576.239380	47800.840831
576.593823	47788.374058
576.948211	47705.908343
577.302544	47205.987198
577.656823	47209.770584
578.011047	47441.898074
578.365216	47152.384609
578.719330	46914.505162
579.073389	46762.050587
579.427394	46836.006835
579.781344	46783.399874
580.135239	46436.124868
580.489080	46498.713313
580.842866	45966.185986
581.196597	46412.668379
581.550273	46352.671086
581.903895	46209.361165
582.257463	46611.012577
582.610975	45974.478684
582.964434	46266.535411
583.317837	45888.431229
583.671186	45714.458489
584.024481	45928.659636
584.377721	45424.050219
584.730906	45717.730198
585.084037	45774.874197
585.437113	45467.618391
585.790135	45480.871584
586.143103	45070.304892
586.496016	45177.409246
586.848874	45205.012084
587.201679	45209.037445
587.554428	44661.774825
587.907124	44854.155338
588.259765	44615.693638
588.612352	44856.083579
588.964884	44208.257502
589.317362	44500.513355
589.669786	44434.096153
590.022155	44196.471284
590.374470	44611.897649
590.726731	44136.549609
591.078937	43632.761899
591.431090	43740.834155
591.783188	43368.665931
592.135232	43034.797874
592.487222	43298.218327
592.839157	43360.012791
593.191038	43020.528888
593.542866	42767.591514
593.894639	42156.419666
594.246358	42440.244189
594.598022	42422.602671
594.949633	42007.965247
595.301190	41946.508540
595.652692	41777.597119
596.004141	42103.943775
596.355535	41118.924999
596.706876	41055.756820
597.058162	40884.014791
597.409395	41346.704494
597.760573	41425.303644
598.111698	41015.770388
598.462768	41007.187824
598.813785	41041.165201
599.164748	40480.311629
599.515657	40858.188960
599.866511	40342.410866
600.217312	40968.607873
600.568060	39925.709089
600.918753	40662.952633
601.269392	40609.196289
601.619978	40247.294375
601.970510	40469.236214
602.320988	40663.734012
602.671412	40962.503036
603.021783	40708.224715
603.372100	40339.308036
603.722363	40430.220204
604.072572	40517.817814
604.422728	40520.051045
604.772830	40322.273977
605.122878	40448.398605
605.472872	40360.516170
605.822813	40631.261420
606.172701	40457.321447
606.522534	40716.323329
606.872314	40961.439352
607.222041	40713.318801
607.571714	41097.689138
607.921333	40530.876923
608.270899	40824.904742
608.620411	41168.018275
608.969870	40959.982459
609.319276	40969.295991
609.668627	40996.220793
610.017926	41484.756492
610.367171	41638.972950
610.716362	41722.966135
611.065500	41649.037614
611.414585	41840.772859
611.763616	42128.315233
612.112594	42069.086717
612.461518	42284.638893
612.810389	42592.005605
613.159207	42449.149388
613.507971	42540.648850
613.856682	42998.728418
614.205340	42893.869898
614.553945	43606.053866
614.902496	43027.944425
615.250994	43499.655273
615.599439	43568.961056
615.947830	43759.509110
616.296169	43841.715205
616.644454	43940.499136
616.992686	44116.929438
617.340864	44615.088699
617.688990	44325.287888
618.037063	44945.460717
618.385082	44908.491415
618.733048	45196.550507
619.080961	45201.059819
619.428821	45228.350106
619.776628	45322.821329
620.124382	45164.360219
620.472083	45307.158464
620.819731	45423.926710
621.167326	45100.415703
621.514868	45092.639724
621.862357	44627.963806
622.209793	44685.969843
622.557176	44343.730949
622.904506	44079.148510
623.251783	43727.487700
623.599007	43512.767314
623.946179	43275.777631
624.293297	43233.293307
624.640363	42640.425888
624.987376	42606.778707
625.334336	42374.484858
625.681243	41998.611386
626.028097	41969.619710
626.374899	41826.745848
626.721647	41807.208857
627.068343	41689.039169
627.414987	41452.188118
627.761577	41220.184135
628.108115	41565.104923
628.454600	40975.799079
628.801032	41182.035204
629.147412	41132.359674
629.493739	41129.377831
629.840014	40764.930134
630.186236	41122.385751
630.532405	40699.911853
630.878521	40917.692219
631.224585	40774.999839
631.570597	40482.565025
631.916556	40647.473770
632.262462	40580.905334
632.608316	40604.530701
632.954117	40513.800014
633.299866	40489.105922
633.645562	40426.194843
633.991206	39928.587588
634.336797	39489.233386
634.682336	39497.843677
635.027823	39242.998227
635.373257	39047.363649
635.718639	38816.877054
636.063968	38670.101339
636.409245	38091.913760
