Dividing Wavelength (nm)	Counts (n)	Blue Motor Position (mm): 40.200000	Red Motor Position (mm): 0.000000	
326.493990	2129.010339
326.888308	2129.010339
327.282561	2129.010339
327.676750	2097.157809
328.070874	2096.010946
328.464933	2098.997830
328.858929	2106.483943
329.252859	2114.242279
329.646726	2127.215688
330.040528	2138.361680
330.434265	2156.562766
330.827938	2172.510456
331.221547	2191.102231
331.615091	2211.738194
332.008571	2231.504559
332.401986	2250.731519
332.795338	2268.940167
333.188625	2289.084618
333.581847	2304.434931
333.975006	2321.887406
334.368100	2343.944975
334.761129	2362.582120
335.154095	2379.376724
335.546996	2400.726011
335.939833	2425.969589
336.332606	2437.506269
336.725315	2452.811213
337.117960	2461.867645
337.510540	2469.152113
337.903056	2480.603094
338.295508	2487.101141
338.687896	2497.017091
339.080220	2505.171157
339.472480	2510.434122
339.864676	2518.036182
340.256807	2519.730009
340.648875	2521.668333
341.040879	2526.442306
341.432818	2525.764270
341.824694	2530.427338
342.216506	2528.703263
342.608253	2531.465815
342.999937	2532.153933
343.391557	2527.455578
343.783113	2529.938346
344.174605	2526.769981
344.566033	2524.559435
344.957397	2522.653878
345.348697	2523.223529
345.739934	2518.726820
346.131106	2518.633558
346.522215	2519.583816
346.913260	2511.515449
347.304241	2513.269771
347.695159	2511.389420
348.086012	2509.418329
348.476802	2508.137876
348.867528	2508.105108
349.258191	2506.514624
349.648789	2505.329953
350.039324	2500.548419
350.429796	2503.908348
350.820203	2501.090343
351.210548	2496.575990
351.600828	2498.100939
351.991045	2499.527585
352.381198	2496.742348
352.771288	2496.303767
353.161314	2495.504744
353.551276	2498.068171
353.941175	2496.548263
354.331010	2497.816113
354.720782	2495.464415
355.110490	2496.999447
355.500135	2493.926863
355.889717	2496.802842
356.279235	2495.736637
356.668689	2498.607575
357.058080	2496.999447
357.447408	2496.805362
357.836672	2496.535660
358.225873	2495.441730
358.615010	2494.670433
359.004084	2499.454488
359.393095	2497.836278
359.782043	2501.123110
360.170927	2499.666217
360.559748	2503.013543
360.948505	2505.766013
361.337199	2503.938595
361.725830	2503.512617
362.114398	2502.832062
362.502903	2501.291989
362.891344	2503.923471
363.279722	2505.279542
363.668037	2507.159892
364.056289	2503.706702
364.444478	2509.251971
364.832603	2506.212155
365.220665	2509.937568
365.608665	2506.048318
365.996601	2506.451610
366.384474	2507.545540
366.772284	2511.568381
367.160031	2508.092506
367.547715	2508.931858
367.935336	2509.309944
368.322893	2512.188443
368.710388	2509.199039
369.097820	2513.952847
369.485189	2511.870850
369.872495	2509.075531
370.259738	2512.637106
370.646918	2512.909328
371.034035	2514.356139
371.421090	2515.311438
371.808081	2513.320182
372.195010	2515.878568
372.581875	2517.476613
372.968678	2515.293794
373.355418	2514.830008
373.742096	2516.110461
374.128710	2516.763290
374.515262	2515.129956
374.901751	2517.101048
375.288177	2518.298322
375.674540	2516.929648
376.060841	2518.172293
376.447079	2520.284536
376.833254	2519.409896
377.219367	2515.989473
377.605417	2517.572395
377.991404	2516.649864
378.377329	2520.962571
378.763191	2518.142046
379.148991	2521.141532
379.534727	2520.014834
379.920402	2522.293436
380.306013	2522.681605
380.691563	2523.001718
381.077049	2522.888292
381.462474	2526.296112
381.847835	2524.423323
382.233134	2525.804600
382.618371	2523.553724
383.003545	2524.360309
383.388657	2526.240659
383.773706	2525.928108
384.158693	2527.054806
384.543618	2527.173273
384.928480	2527.987419
385.313280	2529.877852
385.698017	2527.800897
386.082692	2529.560259
386.467305	2534.780374
386.851856	2534.487987
387.236344	2536.653163
387.620770	2542.687424
388.005133	2545.318906
388.389435	2552.268137
388.773674	2560.389436
389.157851	2565.859087
389.541965	2580.133115
389.926018	2584.891964
390.310008	2598.518203
390.693936	2614.990173
391.077802	2627.842595
391.461606	2643.644091
391.845348	2666.974551
392.229027	2679.116170
392.612645	2699.363965
392.996200	2728.554766
393.379694	2753.631986
393.763125	2788.322686
394.146494	2802.390026
394.529801	2842.560460
394.913047	2878.219062
395.296230	2897.032648
395.679351	2938.221396
396.062410	2975.256233
396.445408	2999.771364
396.828343	3040.700492
397.211217	3077.677355
397.594028	3083.620876
397.976778	3142.859474
398.359466	3185.734488
398.742092	3230.177300
399.124656	3236.171232
399.507158	3305.182108
399.889598	3351.190198
400.271977	3416.475661
400.654294	3439.796039
401.036549	3480.891525
401.418742	3500.851974
401.800874	3596.149946
402.182944	3644.418994
402.564952	3719.743915
402.946898	3748.715426
403.328783	3784.210190
403.710606	3760.267230
404.092367	3927.658743
404.474067	3939.707101
404.855705	3972.434272
405.237282	3953.083803
405.618797	4064.823498
406.000250	4121.309627
406.381642	4214.258422
406.762972	4215.392682
407.144240	4249.380141
407.525447	4278.331487
407.906593	4353.830328
408.287677	4417.195111
408.668700	4376.888566
409.049661	4445.183597
409.430560	4499.091176
409.811399	4455.646512
410.192176	4622.791009
410.572891	4579.351386
410.953545	4693.031926
411.334138	4595.082307
411.714669	4673.270603
412.095139	4584.619392
412.475547	4735.561621
412.855894	4725.912852
413.236180	4746.528651
413.616405	4710.320563
413.996568	4804.149039
414.376670	4754.448303
414.756711	4712.342066
415.136691	4747.904886
415.516609	4833.740612
415.896466	4872.819637
416.276262	4911.049227
416.655997	4890.256988
417.035670	5078.012243
417.415283	5165.824101
417.794834	5118.502790
418.174324	5074.838836
418.553753	4986.767358
418.933121	5168.604298
419.312428	5239.087190
419.691674	5177.660731
420.070859	5305.862314
420.449983	5217.344694
420.829045	5336.915822
421.208047	5241.093569
421.586988	5316.549560
421.965867	5324.743956
422.344686	5461.785202
422.723444	5315.049817
423.102141	5136.224967
423.480777	5432.060039
423.859352	5200.444225
424.237866	5460.933247
424.616319	5453.699192
424.994712	5560.075100
425.373044	5439.336944
425.751314	5585.527885
426.129524	5382.548346
426.507673	5578.225774
426.885762	5661.528321
427.263789	5596.444504
427.641756	5476.127285
428.019662	5599.900215
428.397508	5605.095124
428.775292	5552.261311
429.153016	5651.325025
429.530679	5579.307102
429.908282	5657.949102
430.285824	5533.349422
430.663305	5805.942255
431.040726	5545.967431
431.418086	5540.414600
431.795385	5649.416949
432.172624	5659.295090
432.549802	5652.441641
432.926920	5665.967057
433.303977	5674.544580
433.680974	5717.596034
434.057910	5731.799485
434.434786	5735.363581
434.811601	5705.961051
435.188355	5941.508964
435.565050	5815.344007
435.941683	5798.274660
436.318257	6011.434809
436.694770	5995.655998
437.071222	6028.476430
437.447614	5959.062262
437.823946	5874.005394
438.200218	6028.378127
438.576429	5895.838631
438.952580	5988.169884
439.328670	6039.415734
439.704700	5945.882165
440.080670	5930.425987
440.456580	6202.456731
440.832429	6080.838895
441.208218	5933.594353
441.583947	6089.255101
441.959616	6086.616057
442.335224	6018.880593
442.710773	6150.835316
443.086261	6184.709349
443.461689	5975.307380
443.837057	6128.054342
444.212365	6279.956910
444.587612	6172.550086
444.962800	6326.809394
445.337927	6301.510363
445.712995	5915.300005
446.088002	6496.774416
446.462949	6322.058106
446.837837	6257.521255
447.212664	6426.924189
447.587431	6573.319296
447.962139	7116.576720
448.336786	8042.382103
448.711374	7775.637009
449.085901	6852.647110
449.460369	6773.896726
449.834776	6709.858948
450.209124	7096.996878
450.583412	7254.084273
450.957640	7394.755151
451.331808	7162.781416
451.705917	6710.912549
452.079965	6636.240458
452.453954	6848.674681
452.827883	6721.816565
453.201752	6819.151164
453.575562	6614.273630
453.949311	6818.004301
454.323001	6710.726027
454.696632	6783.946266
455.070202	6925.363234
455.443713	7081.485248
455.817164	7178.255237
456.190556	7255.074860
456.563888	7336.285328
456.937160	7377.705969
457.310373	7033.357352
457.683526	7059.399953
458.056619	6949.344003
458.429653	6937.736746
458.802628	6873.388938
459.175542	6979.164948
459.548398	7340.018303
459.921194	7499.152406
460.293930	7499.928744
460.666607	8028.483642
461.039224	8332.240888
461.411782	8463.489849
461.784280	8482.767221
462.156719	8372.194553
462.529099	8249.767611
462.901419	7834.247984
463.273680	7732.971204
463.645882	7742.357832
464.018024	7611.527287
464.390106	7783.042464
464.762130	8166.654107
465.134094	8639.365624
465.505999	9658.384462
465.877845	10876.097859
466.249631	11525.156499
466.621358	11137.128805
466.993026	10512.774340
467.364634	10256.603066
467.736184	9899.991843
468.107674	9568.815762
468.479105	9589.245038
468.850477	9360.359009
469.221790	9132.914750
469.593043	8806.991551
469.964238	8664.473091
470.335373	8671.659256
470.706449	8735.147547
471.077467	8719.925783
471.448425	10028.594198
471.819324	11090.132649
472.190164	11115.862698
472.560945	9867.859528
472.931667	9081.111853
473.302330	8947.601935
473.672934	8592.205630
474.043479	8955.882030
474.413965	8890.641938
474.784393	8774.826469
475.154761	8927.598636
475.525070	9022.725209
475.895321	8848.891101
476.265513	9023.788893
476.635645	9188.183440
477.005719	9198.303557
477.375734	9304.626533
477.745691	9546.717864
478.115588	9675.128655
478.485427	9914.487681
478.855207	10456.031112
479.224928	11273.814651
479.594591	11900.926627
479.964194	11710.580220
480.333739	11652.508648
480.703226	11569.107799
481.072653	11656.483598
481.442022	11894.662994
481.811333	12080.006056
482.180584	11889.967159
482.549777	11600.496543
482.918912	11424.600603
483.287988	11446.602719
483.657005	11451.928698
484.025964	11138.580658
484.394864	11272.524115
484.763706	11236.179917
485.132489	10996.294090
485.501213	10959.357556
485.869879	11038.697756
486.238487	10883.057172
486.607036	10993.760911
486.975527	10770.384863
487.343959	10964.711262
487.712333	11009.070895
488.080648	10934.613053
488.448905	10983.033335
488.817104	10929.014851
489.185244	11184.112359
489.553326	11341.101452
489.921350	11886.277034
490.289315	12944.687449
490.657222	13284.579685
491.025070	13189.458153
491.392861	13063.081468
491.760593	12689.647914
492.128267	12337.402330
492.495883	12009.457629
492.863440	11671.912049
493.230939	11331.939155
493.598380	11267.755184
493.965763	11136.256686
494.333088	11035.002590
494.700354	10953.613161
495.067563	11017.741679
495.434713	10845.868580
495.801805	10976.991512
496.168839	10899.173741
496.535815	10834.843577
496.902733	10841.507982
497.269593	10767.730696
497.636395	10870.204750
498.003139	10854.705723
498.369825	10726.952802
498.736453	10880.219003
499.103023	10808.226284
499.469535	10839.793990
499.835989	10830.762763
500.202385	10794.148862
500.568723	10645.432303
500.935003	10865.261899
501.301226	10665.675057
501.667390	10927.736919
502.033497	11022.913903
502.399546	10887.659746
502.765537	10797.115581
503.131470	10863.038750
503.497345	11041.679598
503.863163	10651.673252
504.228923	10958.671959
504.594625	11017.028356
504.960269	10777.893662
505.325856	10995.190078
505.691385	10793.158276
506.056856	10943.840885
506.422270	10966.213525
506.787625	10856.671773
507.152924	10973.765174
507.518164	10957.179778
507.883347	10874.043589
508.248472	10790.985538
508.613540	11029.338854
508.978550	10906.271686
509.343503	10882.147244
509.708398	11004.869093
510.073236	11122.625406
510.438016	11126.736467
510.802738	11074.522716
511.167403	11124.218410
511.532010	11024.864830
511.896561	11255.459810
512.261053	11327.303814
512.625488	11196.256499
512.989866	11176.716987
513.354186	11158.735191
513.718449	11063.333875
514.082655	11252.876218
514.446803	11159.642598
514.810894	11279.642225
515.174927	11142.366564
515.538904	11172.018631
515.902822	11321.831641
516.266684	11201.910153
516.630488	11147.967286
516.994235	11209.797038
517.357925	11265.262333
517.721558	11358.420336
518.085133	11368.918539
518.448651	11378.093439
518.812112	11258.237485
519.175516	11279.138109
519.538863	11400.030020
519.902152	11304.505195
520.265385	11477.101700
520.628560	11385.277083
520.991678	11363.199350
521.354739	11431.872468
521.717743	11362.838907
522.080690	11335.672129
522.443580	11472.607512
522.806413	11424.855182
523.169189	11460.168464
523.531908	11509.745692
523.894569	11335.841008
524.257174	11348.350631
524.619722	11461.612755
524.982213	11411.917060
525.344647	11463.417488
525.707025	11412.476628
526.069345	11504.611277
526.431608	11426.496077
526.793815	11535.702593
527.155964	11328.296921
527.518057	11371.071111
527.880093	11319.754686
528.242072	11391.023998
528.603995	11296.956067
528.965860	11217.751979
529.327669	11271.772983
529.689421	11214.631505
530.051117	11189.287104
530.412755	11293.165120
530.774337	11181.707729
531.135862	11164.734164
531.497331	11189.405571
531.858743	11043.370906
532.220098	11207.190762
532.581396	11074.668909
532.942638	11062.993597
533.303824	11026.674604
533.664953	11034.632065
534.026025	10957.701537
534.387040	11057.770962
534.747999	11048.308716
535.108902	11112.149888
535.469748	10871.270954
535.830537	10972.847684
536.191270	10953.232554
536.551947	10973.351799
536.912567	10974.314660
537.273131	10892.796681
537.633638	10875.908816
537.994089	10870.111489
538.354483	10813.358179
538.714821	10963.355191
539.075103	10969.926335
539.435328	10931.341344
539.795497	10759.044788
540.155609	10916.220403
540.515665	11008.307160
540.875665	10740.654658
541.235609	10805.645214
541.595496	10810.749382
541.955328	10957.641043
542.315102	10844.769609
542.674821	10794.128698
543.034483	10796.379573
543.394090	10799.273195
543.753640	10728.573533
544.113134	10948.483787
544.472571	10803.583382
544.831953	10945.433889
545.191278	10744.571635
545.550548	10776.895513
545.909761	10924.072000
546.268918	10890.258460
546.628019	10973.596295
546.987064	10837.699390
547.346053	10764.315314
547.704986	10861.733091
548.063863	10845.339259
548.422684	10836.481952
548.781449	10762.999573
549.140158	10859.938441
549.498811	10737.501417
549.857408	10597.110323
550.215949	10819.505866
550.574434	10674.098825
550.932864	10778.601944
551.291237	10828.574902
551.649555	10781.934147
552.007817	10791.177102
552.366022	10750.542882
552.724173	10749.958108
553.082267	10727.376259
553.440305	10870.774401
553.798288	10665.057515
554.156215	10820.410753
554.514086	10803.434668
554.871902	10645.276028
555.229661	10686.192553
555.587365	10660.820425
555.945014	10557.696062
556.302606	10686.668942
556.660143	10579.952756
557.017625	10731.023534
557.375050	10626.875816
557.732421	10759.692576
558.089735	10680.145689
558.446994	10674.819710
558.804197	10713.364372
559.161345	10713.087108
559.518437	10559.866278
559.875474	10649.324074
560.232455	10684.670124
560.589381	10632.700869
560.946251	10626.696855
561.303065	10733.609646
561.659825	10668.026755
562.016528	10599.212484
562.373177	10480.291665
562.729770	10592.689231
563.086307	10509.563125
563.442789	10603.810017
563.799216	10481.657818
564.155587	10530.272185
564.511904	10483.782664
564.868164	10470.514347
565.224370	10494.734571
565.580520	10423.152707
565.936615	10419.437376
566.292654	10292.934662
566.648638	10418.840000
567.004567	10373.754440
567.360441	10363.639365
567.716260	10275.199882
568.072023	10370.328976
568.427732	10315.561881
568.783385	10225.912521
569.138982	10295.664447
569.494525	10312.005347
569.850013	10192.451863
570.205445	10266.183779
570.560823	10163.099744
570.916145	10085.642416
571.271412	10151.865533
571.626625	10099.634138
571.981782	10072.411907
572.336884	10054.120081
572.691931	10045.968535
573.046923	9992.527263
573.401860	9955.799937
573.756743	9885.788392
574.111570	9930.500906
574.466342	9912.796374
574.821059	9944.185118
575.175722	9841.015384
575.530330	9853.295635
575.884882	9838.343573
576.239380	9767.124672
576.593823	9742.065096
576.948211	9754.683104
577.302544	9642.116659
577.656823	9650.041353
578.011047	9652.478751
578.365216	9630.610225
578.719330	9554.022496
579.073389	9564.298888
579.427394	9519.934213
579.781344	9491.350871
580.135239	9440.657028
580.489080	9448.743039
580.842866	9346.024488
581.196597	9356.041261
581.550273	9391.399914
581.903895	9364.064257
582.257463	9429.899206
582.610975	9307.830186
582.964434	9334.089556
583.317837	9259.924101
583.671186	9237.291841
584.024481	9233.667251
584.377721	9154.717741
584.730906	9131.402404
585.084037	9163.776694
585.437113	9093.528215
585.790135	9112.974466
586.143103	9014.881174
586.496016	8987.137184
586.848874	9043.497284
587.201679	9034.793732
587.554428	8921.844159
587.907124	8966.017270
588.259765	8937.834699
588.612352	8938.026263
588.964884	8818.510588
589.317362	8829.691867
589.669786	8829.250766
590.022155	8876.282211
590.374470	8887.652533
590.726731	8836.119338
591.078937	8686.863376
591.431090	8794.597874
591.783188	8670.877877
592.135232	8658.370774
592.487222	8662.139037
592.839157	8710.549237
593.191038	8647.368456
593.542866	8593.581865
593.894639	8491.657296
594.246358	8547.213332
594.598022	8554.253303
594.949633	8460.296278
595.301190	8427.402749
595.652692	8459.144374
596.004141	8573.094616
596.355535	8353.282664
596.706876	8329.627049
597.058162	8266.836958
597.409395	8337.914706
597.760573	8401.400477
598.111698	8314.241448
598.462768	8294.465001
598.813785	8264.757482
599.164748	8231.367399
599.515657	8221.983291
599.866511	8136.452555
600.217312	8259.131554
600.568060	8116.582847
600.918753	8220.228970
601.269392	8189.447684
601.619978	8101.603058
601.970510	8164.584714
602.320988	8161.071029
602.671412	8217.988177
603.021783	8152.692632
603.372100	8132.260835
603.722363	8127.950649
604.072572	8107.365097
604.422728	8118.097713
604.772830	8045.190026
605.122878	8055.937766
605.472872	8044.196919
605.822813	8073.324706
606.172701	8018.877723
606.522534	8097.975948
606.872314	8093.328004
607.222041	8064.056544
607.571714	8117.928835
607.921333	8083.648989
608.270899	8082.219822
608.620411	8175.261878
608.969870	8080.339471
609.319276	8072.054335
609.668627	8088.788445
610.017926	8123.975699
610.367171	8169.562853
610.716362	8143.666446
611.065500	8132.873335
611.414585	8165.154364
611.763616	8148.140470
612.112594	8138.607648
612.461518	8145.572002
612.810389	8214.512301
613.159207	8144.712485
613.507971	8098.694312
613.856682	8217.279895
614.205340	8175.713061
614.553945	8251.088393
614.902496	8151.414699
615.250994	8205.718008
615.599439	8184.010800
615.947830	8202.113583
616.296169	8172.567381
616.644454	8189.341820
616.992686	8182.823608
617.340864	8240.595231
617.688990	8144.538565
618.037063	8239.067762
618.385082	8183.249586
618.733048	8267.225127
619.080961	8209.022485
619.428821	8226.545536
619.776628	8228.204075
620.124382	8180.953340
620.472083	8162.323756
620.819731	8188.084052
621.167326	8086.257786
621.514868	8089.267355
621.862357	7981.303483
622.209793	8002.912389
622.557176	7933.281452
622.904506	7904.937564
623.251783	7837.945671
623.599007	7791.960265
623.946179	7795.731048
624.293297	7753.090449
624.640363	7668.504928
624.987376	7650.306363
625.334336	7600.827438
625.681243	7544.913480
626.028097	7538.196143
626.374899	7510.109354
626.721647	7508.052563
627.068343	7441.728623
627.414987	7407.539517
627.761577	7366.078547
628.108115	7403.194043
628.454600	7296.130017
628.801032	7345.245979
629.147412	7312.849004
629.493739	7295.827548
629.840014	7229.569142
630.186236	7290.534336
630.532405	7177.194074
630.878521	7228.157619
631.224585	7180.057450
631.570597	7104.009123
631.916556	7140.857437
632.262462	7138.346943
632.608316	7091.837257
632.954117	7070.545944
633.299866	7056.322329
633.645562	7051.923922
633.991206	6972.205636
634.336797	6914.910402
634.682336	6873.260388
635.027823	6835.348391
635.373257	6833.631878
635.718639	6757.923830
636.063968	6778.269927
636.409245	6671.037023
636.754470	6664.342370
637.099642	6626.984900
637.444762	6565.697072
637.789829	6577.256437
638.134845	6517.637232
638.479808	6502.075190
638.824719	6506.274471
639.169577	6433.548265
639.514383	6456.162881
639.859137	6390.837089
640.203839	6396.127780
640.548489	6381.382405
