Dividing Wavelength (nm)	Counts (n)	Blue Motor Position (mm): 17.100000	Red Motor Position (mm): 0.000000	
326.493990	2136.138531
326.888308	2136.138531
327.282561	2136.138531
327.676750	2106.577205
328.070874	2103.048397
328.464933	2108.381938
328.858929	2111.426795
329.252859	2122.146808
329.646726	2133.323046
330.040528	2144.806795
330.434265	2161.160298
330.827938	2180.994718
331.221547	2197.673375
331.615091	2217.180120
332.008571	2237.271639
332.401986	2256.768301
332.795338	2275.060128
333.188625	2294.077881
333.581847	2315.026396
333.975006	2334.152533
334.368100	2350.541324
334.761129	2368.571011
335.154095	2387.538353
335.546996	2405.189953
335.939833	2424.222829
336.332606	2439.721857
336.725315	2452.995215
337.117960	2461.910495
337.510540	2472.438945
337.903056	2479.912456
338.295508	2487.338075
338.687896	2498.594972
339.080220	2503.497494
339.472480	2513.486540
339.864676	2514.991325
340.256807	2518.300842
340.648875	2522.515247
341.040879	2526.396935
341.432818	2528.473891
341.824694	2528.005063
342.216506	2529.845084
342.608253	2529.217461
342.999937	2530.732327
343.391557	2527.238808
343.783113	2528.189065
344.174605	2527.687471
344.566033	2527.127903
344.957397	2525.081194
345.348697	2521.549866
345.739934	2523.591533
346.131106	2519.856038
346.522215	2519.122550
346.913260	2515.339164
347.304241	2513.385717
347.695159	2511.833042
348.086012	2510.645850
348.476802	2508.294152
348.867528	2505.244254
349.258191	2505.629902
349.648789	2503.494973
350.039324	2502.942967
350.429796	2500.946670
350.820203	2500.457678
351.210548	2499.250322
351.600828	2498.108500
351.991045	2497.140599
352.381198	2497.059940
352.771288	2496.646566
353.161314	2496.364261
353.551276	2496.820486
353.941175	2496.336535
354.331010	2495.373674
354.720782	2493.584065
355.110490	2497.465753
355.500135	2495.668582
355.889717	2495.701349
356.279235	2498.300064
356.668689	2495.320742
357.058080	2494.499034
357.447408	2495.325783
357.836672	2492.190186
358.225873	2495.169508
358.615010	2493.805876
359.004084	2496.384426
359.393095	2500.218223
359.782043	2498.181597
360.170927	2499.726711
360.559748	2501.344921
360.948505	2505.314830
361.337199	2501.173522
361.725830	2498.864673
362.114398	2504.719974
362.502903	2502.017915
362.891344	2504.725015
363.279722	2502.721156
363.668037	2504.208297
364.056289	2504.301558
364.444478	2504.414984
364.832603	2505.939933
365.220665	2504.999758
365.608665	2506.433966
365.996601	2507.348935
366.384474	2504.944305
366.772284	2506.229799
367.160031	2508.213493
367.547715	2508.321878
367.935336	2508.591580
368.322893	2505.937412
368.710388	2509.461179
369.097820	2512.735408
369.485189	2509.173833
369.872495	2509.183915
370.259738	2510.666015
370.646918	2509.143586
371.034035	2509.488905
371.421090	2512.448063
371.808081	2511.888494
372.195010	2507.926147
372.581875	2509.304903
372.968678	2513.468896
373.355418	2511.742301
373.742096	2511.681807
374.128710	2509.317506
374.515262	2513.627693
374.901751	2511.427229
375.288177	2513.778927
375.674540	2514.887981
376.060841	2516.135667
376.447079	2513.617610
376.833254	2513.920079
377.219367	2509.652743
377.605417	2514.214987
377.991404	2510.146776
378.377329	2510.691220
378.763191	2511.540655
379.148991	2515.732374
379.534727	2514.212466
379.920402	2513.274812
380.306013	2516.576768
380.691563	2515.495440
381.077049	2514.630882
381.462474	2517.630369
381.847835	2515.853362
382.233134	2517.035512
382.618371	2518.633558
383.003545	2518.353774
383.388657	2518.058867
383.773706	2518.545338
384.158693	2518.051305
384.543618	2520.879392
384.928480	2517.547190
385.313280	2517.572395
385.698017	2519.936697
386.082692	2519.717406
386.467305	2516.707838
386.851856	2521.141532
387.236344	2519.772859
387.620770	2518.953672
388.005133	2518.809999
388.389435	2523.309228
388.773674	2519.359484
389.157851	2516.969978
389.541965	2519.235976
389.926018	2517.607683
390.310008	2519.306552
390.693936	2520.098013
391.077802	2520.773528
391.461606	2521.766635
391.845348	2519.971985
392.229027	2523.452901
392.612645	2520.914680
392.996200	2523.039527
393.379694	2519.220853
393.763125	2523.178158
394.146494	2521.771677
394.529801	2523.452901
394.913047	2521.648168
395.296230	2523.773015
395.679351	2524.080525
396.062410	2524.929959
396.445408	2523.452901
396.828343	2525.055988
397.211217	2519.238497
397.594028	2524.892151
397.976778	2521.459125
398.359466	2522.283354
398.742092	2519.808147
399.124656	2526.202851
399.507158	2525.587830
399.889598	2525.623118
400.271977	2525.618077
400.654294	2530.807945
401.036549	2523.692356
401.418742	2527.480783
401.800874	2524.803931
402.182944	2527.216123
402.564952	2525.141688
402.946898	2528.015146
403.328783	2523.432737
403.710606	2528.864580
404.092367	2524.662778
404.474067	2530.497914
404.855705	2529.461957
405.237282	2527.616894
405.618797	2528.788963
406.000250	2527.500948
406.381642	2531.191072
406.762972	2526.706966
407.144240	2526.245701
407.525447	2530.931453
407.906593	2528.241997
408.287677	2531.654859
408.668700	2530.276103
409.049661	2528.983047
409.430560	2526.873324
409.811399	2531.796011
410.192176	2528.274765
410.572891	2528.506658
410.953545	2530.255938
411.334138	2531.974972
411.714669	2532.542102
412.095139	2533.545291
412.475547	2530.054292
412.855894	2530.248377
413.236180	2530.036648
413.616405	2532.776515
413.996568	2531.501103
414.376670	2532.040507
414.756711	2532.267359
415.136691	2532.998326
415.516609	2534.798018
415.896466	2534.009078
416.276262	2534.225847
416.655997	2529.817358
417.035670	2529.030938
417.415283	2531.732997
417.794834	2525.287881
418.174324	2531.301978
418.553753	2534.840868
418.933121	2533.315919
419.312428	2532.320291
419.691674	2535.967566
420.070859	2534.886238
420.449983	2534.901362
420.829045	2535.478574
421.208047	2534.359438
421.586988	2533.608306
421.965867	2535.544109
422.344686	2534.664428
422.723444	2535.864222
423.102141	2535.786084
423.480777	2535.644932
423.859352	2534.868594
424.237866	2535.208872
424.616319	2536.091074
424.994712	2532.605116
425.373044	2536.106197
425.751314	2536.917823
426.129524	2533.797349
426.507673	2534.256094
426.885762	2536.257432
427.263789	2534.160312
427.641756	2535.488656
428.019662	2536.030580
428.397508	2535.823893
428.775292	2537.540406
429.153016	2536.093595
429.530679	2537.658873
429.908282	2534.664428
430.285824	2537.953780
430.663305	2534.674510
431.040726	2536.257432
431.418086	2538.150385
431.795385	2537.351363
432.172624	2537.119469
432.549802	2536.363296
432.926920	2537.810108
433.303977	2537.792463
433.680974	2538.069727
434.057910	2538.624254
434.434786	2539.599717
434.811601	2538.473019
435.188355	2538.024357
435.565050	2538.921682
435.941683	2539.337577
436.318257	2538.634336
436.694770	2536.285158
437.071222	2537.767258
437.447614	2534.069571
437.823946	2536.249870
438.200218	2536.237267
438.576429	2538.962011
438.952580	2540.197094
439.328670	2538.906558
439.704700	2540.207176
440.080670	2538.246167
440.456580	2540.590304
440.832429	2541.283463
441.208218	2538.382278
441.583947	2541.696837
441.959616	2539.221631
442.335224	2543.501570
442.710773	2538.233564
443.086261	2539.244316
443.461689	2542.198432
443.837057	2541.837989
444.212365	2539.589635
444.587612	2540.645757
444.962800	2540.307999
445.337927	2543.083154
445.712995	2542.412681
446.088002	2540.242464
446.462949	2543.083154
446.837837	2542.795809
447.212664	2542.011909
447.587431	2543.315048
447.962139	2543.126004
448.336786	2543.640202
448.711374	2541.412012
449.085901	2545.361756
449.460369	2541.447300
449.834776	2543.506611
450.209124	2542.989893
450.583412	2542.573998
450.957640	2544.935778
451.331808	2546.032229
451.705917	2543.541899
452.079965	2540.791950
452.453954	2543.113401
452.827883	2544.235058
453.201752	2541.691796
453.575562	2545.187836
453.949311	2540.658359
454.323001	2545.364277
454.696632	2543.786395
455.070202	2542.954605
455.443713	2543.761190
455.817164	2543.942671
456.190556	2542.079965
456.563888	2540.590304
456.937160	2539.453524
457.310373	2545.185316
457.683526	2544.819832
458.056619	2544.373690
458.429653	2545.029040
458.802628	2544.151879
459.175542	2545.618855
459.548398	2546.349822
459.921194	2546.574153
460.293930	2548.172199
460.666607	2545.460058
461.039224	2545.553320
461.411782	2547.403423
461.784280	2546.032229
462.156719	2547.660522
462.529099	2548.709082
462.901419	2546.987528
463.273680	2548.285625
463.645882	2549.800492
464.018024	2547.476520
464.390106	2549.505584
464.762130	2544.910573
465.134094	2546.163299
465.505999	2548.676315
465.877845	2547.743701
466.249631	2550.445760
466.621358	2546.725388
466.993026	2551.985832
467.364634	2552.442057
467.736184	2551.166645
468.107674	2547.635316
468.479105	2545.795295
468.850477	2548.900646
469.221790	2547.559699
469.593043	2548.068856
469.964238	2548.527601
470.335373	2549.160265
470.706449	2546.014585
471.077467	2549.555996
471.448425	2548.943496
471.819324	2552.242931
472.190164	2552.830225
472.560945	2553.233518
472.931667	2547.486602
473.302330	2547.998279
473.672934	2545.633978
474.043479	2550.042467
474.413965	2550.775955
474.784393	2546.710265
475.154761	2549.631613
475.525070	2543.907383
475.895321	2544.774462
476.265513	2546.261602
476.635645	2551.396017
477.005719	2549.626572
477.375734	2551.030533
477.745691	2550.304607
478.115588	2551.953065
478.485427	2552.726882
478.855207	2551.748898
479.224928	2551.252344
479.594591	2554.070349
479.964194	2552.747046
480.333739	2554.193857
480.703226	2553.127653
481.072653	2555.181924
481.442022	2552.958775
481.811333	2551.864844
482.180584	2551.227138
482.549777	2553.808209
482.918912	2553.321738
483.287988	2554.415668
483.657005	2553.044474
484.025964	2551.116233
484.394864	2556.043961
484.763706	2554.410627
485.132489	2555.071018
485.501213	2556.984136
485.869879	2553.467931
486.238487	2551.592622
486.607036	2554.017417
486.975527	2554.884496
487.343959	2554.156049
487.712333	2555.302911
488.080648	2553.964485
488.448905	2554.037582
488.817104	2553.001625
489.185244	2554.483724
489.553326	2555.587737
489.921350	2557.717624
490.289315	2558.372974
490.657222	2559.653427
491.025070	2557.447922
491.392861	2556.154866
491.760593	2556.996739
492.128267	2559.461863
492.495883	2556.278375
492.863440	2556.727037
493.230939	2557.087480
493.598380	2557.248797
493.965763	2552.189999
494.333088	2556.227963
494.700354	2552.656306
495.067563	2552.880637
495.434713	2551.113713
495.801805	2558.743499
496.168839	2557.304249
496.535815	2556.744681
496.902733	2558.181410
497.269593	2558.128478
497.636395	2554.879454
498.003139	2558.897254
498.369825	2556.285936
498.736453	2559.114024
499.103023	2557.838612
499.469535	2560.956565
499.835989	2556.792572
500.202385	2561.957234
500.568723	2558.403221
500.935003	2559.880279
501.301226	2561.006977
501.667390	2560.142419
502.033497	2565.770867
502.399546	2562.108469
502.765537	2564.122410
503.131470	2562.912533
503.497345	2561.775753
503.863163	2562.799107
504.228923	2562.491597
504.594625	2562.610064
504.960269	2563.726679
505.325856	2564.114848
505.691385	2564.303892
506.056856	2566.088460
506.422270	2563.736762
506.787625	2569.435786
507.152924	2569.395457
507.518164	2567.270611
507.883347	2566.650549
508.248472	2566.688357
508.613540	2566.040569
508.978550	2567.593244
509.343503	2569.387895
509.708398	2570.943091
510.073236	2570.108780
510.438016	2572.553740
510.802738	2571.711867
511.167403	2573.630026
511.532010	2571.169943
511.896561	2575.946436
512.261053	2576.561457
512.625488	2573.007444
512.989866	2574.698751
513.354186	2578.318299
513.718449	2577.370562
514.082655	2579.591191
514.446803	2584.327355
514.810894	2586.232911
515.174927	2590.250710
515.538904	2590.588468
515.902822	2593.217429
516.266684	2593.930753
516.630488	2594.248345
516.994235	2595.876638
517.357925	2599.418049
517.721558	2605.361569
518.085133	2609.830552
518.448651	2612.557816
518.812112	2612.635954
519.175516	2616.537807
519.538863	2617.697272
519.902152	2623.134157
520.265385	2627.250259
520.628560	2631.646145
520.991678	2634.232257
521.354739	2640.896662
521.717743	2643.487816
522.080690	2646.310862
522.443580	2656.229332
522.806413	2660.857111
523.169189	2663.148316
523.531908	2670.662155
523.894569	2675.897394
524.257174	2680.578105
524.619722	2685.795699
524.982213	2692.709642
525.344647	2701.037628
525.707025	2707.696992
526.069345	2718.326265
526.431608	2722.316338
526.793815	2729.779767
527.155964	2734.813359
527.518057	2744.447004
527.880093	2751.499578
528.242072	2760.656834
528.603995	2772.664862
528.965860	2777.022940
529.327669	2788.640279
529.689421	2796.842236
530.051117	2806.007054
530.412755	2819.484579
530.774337	2828.664520
531.135862	2837.635253
531.497331	2852.395752
531.858743	2857.636031
532.220098	2876.898280
532.581396	2880.323744
532.942638	2892.019221
533.303824	2906.862898
533.664953	2926.382246
534.026025	2934.201076
534.387040	2956.954323
534.747999	2969.378247
535.108902	2988.665702
535.469748	2992.025631
535.830537	3014.153776
536.191270	3032.387629
536.551947	3048.010165
536.912567	3065.031621
537.273131	3077.992427
537.633638	3098.686364
537.994089	3112.431070
538.354483	3131.985706
538.714821	3155.265754
539.075103	3179.148220
539.435328	3197.339224
539.795497	3202.156047
540.155609	3237.784401
540.515665	3263.027979
540.875665	3271.539968
541.235609	3296.455870
541.595496	3314.016730
541.955328	3355.172710
542.315102	3366.313660
542.674821	3388.557751
543.034483	3411.777306
543.394090	3436.564659
543.753640	3460.056436
544.113134	3512.010568
544.472571	3523.148997
544.831953	3569.184814
545.191278	3577.613623
545.550548	3605.904579
545.909761	3650.130621
546.268918	3680.574149
546.628019	3719.355746
546.987064	3736.969537
547.346053	3750.673914
547.704986	3803.563180
548.063863	3828.169052
548.422684	3850.708051
548.781449	3881.937999
549.140158	3926.733692
549.498811	3943.465281
549.857408	3947.168009
550.215949	4027.123229
550.574434	4029.013662
550.932864	4091.539093
551.291237	4127.119557
551.649555	4167.481555
552.007817	4196.599260
552.366022	4224.786872
552.724173	4266.784724
553.082267	4292.454280
553.440305	4378.146333
553.798288	4357.160010
554.156215	4444.261066
554.514086	4473.419100
554.871902	4476.670644
555.229661	4525.305176
555.587365	4555.126122
555.945014	4567.436619
556.302606	4648.384947
556.660143	4646.189525
557.017625	4740.948093
557.375050	4747.123507
557.732421	4825.778110
558.089735	4845.667982
558.446994	4888.033839
558.804197	4938.649544
559.161345	4981.683354
559.518437	4964.929079
559.875474	5050.119538
560.232455	5097.418164
560.589381	5116.350218
560.946251	5179.621739
561.303065	5226.449018
561.659825	5265.744812
562.016528	5277.137819
562.373177	5271.216984
562.729770	5371.057036
563.086307	5375.213467
563.442789	5442.903561
563.799216	5465.724864
564.155587	5514.714797
564.511904	5546.705960
564.868164	5584.323050
565.224370	5624.690089
565.580520	5661.303989
565.936615	5681.087998
566.292654	5691.014030
566.648638	5774.601402
567.004567	5809.158511
567.360441	5840.663202
567.716260	5854.992682
568.072023	5931.033447
568.427732	5959.899093
568.783385	5946.111538
569.138982	6037.187544
569.494525	6080.896868
569.850013	6065.344908
570.205445	6158.775133
570.560823	6136.427698
570.916145	6148.513865
571.271412	6226.258539
571.626625	6241.870993
571.981782	6265.435866
572.336884	6302.304345
572.691931	6332.868861
573.046923	6361.918510
573.401860	6379.396190
573.756743	6386.300050
574.111570	6450.405883
574.466342	6470.172247
574.821059	6532.599376
575.175722	6515.119175
575.530330	6566.375107
575.884882	6593.002482
576.239380	6597.879798
576.593823	6613.822447
576.948211	6665.698441
577.302544	6622.004240
577.656823	6686.228540
578.011047	6718.779270
578.365216	6746.286326
578.719330	6728.574232
579.073389	6782.875021
579.427394	6775.943434
579.781344	6795.155271
580.135239	6807.695142
580.489080	6840.301325
580.842866	6822.566545
581.196597	6856.319591
581.550273	6914.789414
581.903895	6932.690551
582.257463	6996.113308
582.610975	6957.084695
582.964434	6999.974832
583.317837	6987.223233
583.671186	6998.759913
584.024481	7035.136880
584.377721	7012.870103
584.730906	7025.218409
585.084037	7078.034578
585.437113	7054.953655
585.790135	7112.354754
586.143103	7063.979841
586.496016	7073.011068
586.848874	7145.838097
587.201679	7160.868298
587.554428	7111.260823
587.907124	7171.956316
588.259765	7168.109915
588.612352	7205.550565
588.964884	7132.458875
589.317362	7174.192067
589.669786	7205.477468
590.022155	7262.893690
590.374470	7307.661657
590.726731	7275.438601
591.078937	7198.311468
591.431090	7317.905281
591.783188	7232.316571
592.135232	7262.248422
592.487222	7275.083200
592.839157	7345.649271
593.191038	7317.275137
593.542866	7299.852909
593.894639	7239.621203
594.246358	7308.856410
594.598022	7342.047367
594.949633	7279.227028
595.301190	7283.552338
595.652692	7322.719583
596.004141	7440.332223
596.355535	7276.068745
596.706876	7278.649816
597.058162	7250.729386
597.409395	7326.976838
597.760573	7401.457365
598.111698	7338.382448
598.462768	7344.512491
598.813785	7331.319792
599.164748	7326.112280
599.515657	7334.798188
599.866511	7281.936648
600.217312	7397.190028
600.568060	7298.892569
600.918753	7397.689103
601.269392	7388.862042
601.619978	7335.042684
601.970510	7403.846872
602.320988	7408.681338
602.671412	7482.884603
603.021783	7442.459590
603.372100	7430.670852
603.722363	7448.536701
604.072572	7441.844569
604.422728	7465.742159
604.772830	7413.087307
605.122878	7435.457427
605.472872	7443.011596
605.822813	7473.427398
606.172701	7441.098478
606.522534	7513.043305
606.872314	7534.316975
607.222041	7522.490428
607.571714	7580.020075
607.921333	7552.195427
608.270899	7568.674959
608.620411	7660.373547
608.969870	7590.097342
609.319276	7593.616067
609.668627	7616.354192
610.017926	7657.978999
610.367171	7714.568472
610.716362	7695.646501
611.065500	7699.828138
611.414585	7740.406906
611.763616	7730.488435
612.112594	7719.604584
612.461518	7744.603666
612.810389	7810.794016
613.159207	7763.956656
613.507971	7722.248669
613.856682	7840.143614
614.205340	7801.730022
614.553945	7890.834936
614.902496	7804.253119
615.250994	7858.926953
615.599439	7839.919282
615.947830	7864.177315
616.296169	7839.193356
616.644454	7865.256122
616.992686	7864.449537
617.340864	7924.492200
617.688990	7843.695107
618.037063	7929.402284
618.385082	7886.411324
618.733048	7976.932803
619.080961	7920.108917
619.428821	7944.392155
619.776628	7952.798279
620.124382	7916.736385
620.472083	7904.609889
620.819731	7936.994262
621.167326	7835.306627
621.514868	7850.543514
621.862357	7748.722289
622.209793	7772.864375
622.557176	7717.232721
622.904506	7690.350768
623.251783	7630.824824
623.599007	7594.009277
623.946179	7602.007068
624.293297	7570.971204
624.640363	7491.799883
624.987376	7483.741599
625.334336	7433.579597
625.681243	7387.823564
626.028097	7375.460135
626.374899	7360.306426
626.721647	7358.443720
627.068343	7287.262627
627.414987	7268.882581
627.761577	7227.703915
628.108115	7267.188753
628.454600	7165.032291
628.801032	7221.760395
629.147412	7181.632810
629.493739	7168.490522
629.840014	7115.197964
630.186236	7166.683269
630.532405	7053.184210
630.878521	7107.487520
631.224585	7070.296407
631.570597	6993.701116
631.916556	7031.199738
632.262462	7024.963831
632.608316	6990.638615
632.954117	6970.947868
633.299866	6959.310364
633.645562	6955.489169
633.991206	6878.477983
634.336797	6826.453275
634.682336	6783.318642
635.027823	6752.663386
635.373257	6744.350523
635.718639	6679.680081
636.063968	6692.910589
636.409245	6591.429642
636.754470	6595.455003
637.099642	6550.283744
637.444762	6497.041597
637.789829	6505.188102
638.134845	6452.651717
638.479808	6438.352484
638.824719	6447.192148
639.169577	6376.089193
639.514383	6396.367235
639.859137	6326.106153
640.203839	6337.529407
640.548489	6324.329146
640.893086	6300.391227
641.237632	6275.019100
641.582125	6293.583149
641.926566	6261.155927
642.270955	6278.968844
642.615292	6275.205623
642.959576	6288.746162
643.303809	6279.692249
643.647990	6291.284383
643.992118	6278.936076
644.336195	6225.338529
