Dividing Wavelength (nm)	Counts (n)	Blue Motor Position (mm): 22.900000	Red Motor Position (mm): 0.000000	
326.493990	2134.981586
326.888308	2134.981586
327.282561	2134.981586
327.676750	2101.137800
328.070874	2098.677717
328.464933	2101.145361
328.858929	2110.136259
329.252859	2119.969030
329.646726	2130.016049
330.040528	2143.934675
330.434265	2162.380257
330.827938	2178.522032
331.221547	2194.010977
331.615091	2217.800182
332.008571	2235.217368
332.401986	2252.909298
332.795338	2271.410333
333.188625	2292.709208
333.581847	2311.109419
333.975006	2331.873932
334.368100	2348.547548
334.761129	2366.393233
335.154095	2382.063659
335.546996	2400.998233
335.939833	2428.638880
336.332606	2437.188677
336.725315	2452.254165
337.117960	2460.781277
337.510540	2470.992134
337.903056	2478.369863
338.295508	2487.189361
338.687896	2497.576659
339.080220	2504.460354
339.472480	2513.161386
339.864676	2516.672549
340.256807	2522.444671
340.648875	2524.204033
341.040879	2526.901051
341.432818	2527.430372
341.824694	2529.073788
342.216506	2532.831968
342.608253	2529.887934
342.999937	2529.078829
343.391557	2530.697039
343.783113	2527.569003
344.174605	2525.242511
344.566033	2524.627490
344.957397	2523.253776
345.348697	2520.523991
345.739934	2519.916532
346.131106	2520.115658
346.522215	2519.556089
346.913260	2515.301356
347.304241	2513.385717
347.695159	2511.535614
348.086012	2508.503360
348.476802	2509.052845
348.867528	2503.862977
349.258191	2502.920282
349.648789	2502.922802
350.039324	2500.860970
350.429796	2502.252329
350.820203	2498.690754
351.210548	2501.024808
351.600828	2496.727224
351.991045	2496.376864
352.381198	2495.381236
352.771288	2494.660351
353.161314	2494.317553
353.551276	2496.026504
353.941175	2496.772595
354.331010	2493.185814
354.720782	2493.417707
355.110490	2493.944507
355.500135	2495.923160
355.889717	2493.818478
356.279235	2497.075064
356.668689	2496.497852
357.058080	2497.435506
357.447408	2495.088849
357.836672	2495.277893
358.225873	2495.340907
358.615010	2493.321925
359.004084	2500.359376
359.393095	2497.990033
359.782043	2500.384581
360.170927	2499.761999
360.559748	2501.163440
360.948505	2501.720487
361.337199	2498.773933
361.725830	2502.794253
362.114398	2505.347597
362.502903	2504.132679
362.891344	2502.552278
363.279722	2503.444562
363.668037	2505.120745
364.056289	2505.458503
364.444478	2503.636126
364.832603	2505.266939
365.220665	2503.608399
365.608665	2506.857423
365.996601	2507.318688
366.384474	2507.661487
366.772284	2507.301044
367.160031	2510.169461
367.547715	2508.402537
367.935336	2507.820283
368.322893	2508.609224
368.710388	2506.963287
369.097820	2513.758762
369.485189	2509.022598
369.872495	2510.086282
370.259738	2510.729029
370.646918	2511.686848
371.034035	2509.103257
371.421090	2510.681138
371.808081	2511.107116
372.195010	2510.721467
372.581875	2510.406395
372.968678	2512.637106
373.355418	2511.850686
373.742096	2514.860255
374.128710	2511.054183
374.515262	2512.475789
374.901751	2512.042250
375.288177	2512.627023
375.674540	2512.412774
376.060841	2515.162724
376.447079	2512.223731
376.833254	2513.461334
377.219367	2510.653412
377.605417	2512.727847
377.991404	2510.066117
378.377329	2513.975532
378.763191	2509.234327
379.148991	2514.872858
379.534727	2513.695748
379.920402	2517.963085
380.306013	2514.784637
380.691563	2517.461490
381.077049	2516.959895
381.462474	2518.235307
381.847835	2516.014679
382.233134	2517.337982
382.618371	2516.670029
383.003545	2518.429392
383.388657	2517.557272
383.773706	2518.600791
384.158693	2516.874196
384.543618	2517.516943
384.928480	2519.609022
385.313280	2516.659947
385.698017	2519.062056
386.082692	2520.350071
386.467305	2518.235307
386.851856	2516.060049
387.236344	2523.329393
387.620770	2522.762263
388.005133	2520.705473
388.389435	2522.243024
388.773674	2519.677077
389.157851	2519.311593
389.541965	2520.839063
389.926018	2521.481810
390.310008	2520.445853
390.693936	2524.786287
391.077802	2523.387366
391.461606	2523.142870
391.845348	2521.360823
392.229027	2523.314270
392.612645	2522.207736
392.996200	2524.539270
393.379694	2525.819723
393.763125	2522.868127
394.146494	2523.014321
394.529801	2524.897192
394.913047	2526.023890
395.296230	2523.578930
395.679351	2522.391738
396.062410	2524.892151
396.445408	2524.466173
396.828343	2526.018849
397.211217	2522.840401
397.594028	2523.815864
397.976778	2521.496934
398.359466	2521.817047
398.742092	2523.621780
399.124656	2524.791328
399.507158	2524.438447
399.889598	2526.762419
400.271977	2526.654034
400.654294	2529.708973
401.036549	2526.648993
401.418742	2526.719569
401.800874	2525.870135
402.182944	2525.592871
402.564952	2527.909281
402.946898	2531.823737
403.328783	2525.527336
403.710606	2528.123530
404.092367	2527.947090
404.474067	2528.700743
404.855705	2526.757378
405.237282	2530.540764
405.618797	2528.839374
406.000250	2527.574045
406.381642	2530.397091
406.762972	2532.095960
407.144240	2528.675537
407.525447	2530.152595
407.906593	2530.185362
408.287677	2529.847605
408.668700	2531.291896
409.049661	2531.140661
409.430560	2534.382123
409.811399	2532.247194
410.192176	2531.548994
410.572891	2532.572349
410.953545	2534.692154
411.334138	2531.551515
411.714669	2532.055630
412.095139	2532.930271
412.475547	2533.346166
412.855894	2533.842719
413.236180	2529.903058
413.616405	2532.158974
413.996568	2531.992616
414.376670	2535.796167
414.756711	2532.083357
415.136691	2532.579910
415.516609	2532.390867
415.896466	2532.385826
416.276262	2532.005219
416.655997	2528.625125
417.035670	2527.503468
417.415283	2534.472864
417.794834	2528.519261
418.174324	2533.988913
418.553753	2535.140817
418.933121	2532.610157
419.312428	2532.342976
419.691674	2538.001671
420.070859	2533.071423
420.449983	2535.037473
420.829045	2536.038142
421.208047	2536.882535
421.586988	2535.909593
421.965867	2537.492515
422.344686	2536.431352
422.723444	2537.641229
423.102141	2537.600900
423.480777	2537.537885
423.859352	2537.321116
424.237866	2537.883204
424.616319	2539.249357
424.994712	2539.032587
425.373044	2536.847247
425.751314	2535.970086
426.129524	2537.046373
426.507673	2534.316588
426.885762	2537.396733
427.263789	2537.230375
427.641756	2539.443441
428.019662	2538.314223
428.397508	2541.616179
428.775292	2540.703730
429.153016	2538.349511
429.530679	2542.304296
429.908282	2539.718184
430.285824	2540.925541
430.663305	2537.593338
431.040726	2537.779861
431.418086	2542.800850
431.795385	2539.861857
432.172624	2540.965870
432.549802	2541.447300
432.926920	2539.781199
433.303977	2539.957639
433.680974	2540.068544
434.057910	2539.418236
434.434786	2539.884542
434.811601	2540.534851
435.188355	2541.366642
435.565050	2539.720705
435.941683	2544.769420
436.318257	2540.181970
436.694770	2538.483102
437.071222	2539.768596
437.447614	2535.952442
437.823946	2540.486960
438.200218	2542.226158
438.576429	2544.860161
438.952580	2542.347146
439.328670	2542.573998
439.704700	2542.914276
440.080670	2544.834955
440.456580	2541.598535
440.832429	2545.729760
441.208218	2541.316230
441.583947	2543.670449
441.959616	2544.661036
442.335224	2543.267157
442.710773	2547.312682
443.086261	2544.908052
443.461689	2545.240768
443.837057	2546.934596
444.212365	2544.668597
444.587612	2546.241437
444.962800	2546.349822
445.337927	2543.761190
445.712995	2544.587939
446.088002	2547.544576
446.462949	2549.525749
446.837837	2543.897301
447.212664	2547.668084
447.587431	2545.903680
447.962139	2546.039791
448.336786	2551.532128
448.711374	2547.479041
449.085901	2551.295194
449.460369	2545.777651
449.834776	2545.606252
450.209124	2548.026006
450.583412	2550.289484
450.957640	2551.527087
451.331808	2548.308310
451.705917	2547.206818
452.079965	2550.612118
452.453954	2546.410316
452.827883	2546.879143
453.201752	2549.724875
453.575562	2549.845862
453.949311	2548.514998
454.323001	2548.595656
454.696632	2553.321738
455.070202	2551.726213
455.443713	2550.065153
455.817164	2548.371325
456.190556	2546.735470
456.563888	2550.317210
456.937160	2548.381407
457.310373	2554.133364
457.683526	2552.883158
458.056619	2552.711758
458.429653	2552.943651
458.802628	2556.490103
459.175542	2552.999104
459.548398	2556.046482
459.921194	2555.549928
460.293930	2558.357851
460.666607	2556.568241
461.039224	2561.001936
461.411782	2560.402038
461.784280	2563.590568
462.156719	2561.367419
462.529099	2562.841957
462.901419	2562.688202
463.273680	2564.525702
463.645882	2566.711043
464.018024	2567.288255
464.390106	2569.047617
464.762130	2571.916034
465.134094	2579.412230
465.505999	2588.519074
465.877845	2601.633636
466.249631	2608.313165
466.621358	2609.916252
466.993026	2613.029164
467.364634	2613.273660
467.736184	2613.755090
468.107674	2617.989659
468.479105	2623.038375
468.850477	2629.584313
469.221790	2630.839561
469.593043	2629.649848
469.964238	2638.126548
470.335373	2643.109729
470.706449	2654.137253
471.077467	2660.121103
471.448425	2696.853470
471.819324	2730.296485
472.190164	2738.846282
472.560945	2719.344578
472.931667	2714.820143
473.302330	2721.895402
473.672934	2726.233315
474.043479	2746.224010
474.413965	2755.227511
474.784393	2765.418204
475.154761	2786.172634
475.525070	2800.698719
475.895321	2806.911941
476.265513	2830.255004
476.635645	2854.417254
477.005719	2877.505739
477.375734	2899.802762
477.745691	2928.922988
478.115588	2957.486165
478.485427	2994.868842
478.855207	3058.289078
479.224928	3152.949344
479.594591	3225.788976
479.964194	3236.352714
480.333739	3247.024836
480.703226	3280.150258
481.072653	3321.187771
481.442022	3399.907909
481.811333	3452.729119
482.180584	3469.964824
482.549777	3481.173830
482.918912	3504.469002
483.287988	3550.940878
483.657005	3593.329420
484.025964	3601.748147
484.394864	3659.683608
484.763706	3701.079043
485.132489	3708.698747
485.501213	3751.903956
485.869879	3803.517809
486.238487	3845.122452
486.607036	3902.599168
486.975527	3928.818209
487.343959	4006.368799
487.712333	4071.150147
488.080648	4111.968369
488.448905	4186.736243
488.817104	4229.263416
489.185244	4342.099563
489.553326	4445.854071
489.921350	4636.394563
490.289315	4958.002534
490.657222	5104.664823
491.025070	5169.302498
491.392861	5206.896902
491.760593	5191.556671
492.128267	5174.124361
492.495883	5158.421167
492.863440	5140.273013
493.230939	5124.748780
493.598380	5177.423796
493.965763	5221.881732
494.333088	5246.908540
494.700354	5303.036747
495.067563	5383.395260
495.434713	5411.124127
495.801805	5524.736611
496.168839	5571.700000
496.535815	5634.553107
496.902733	5696.602149
497.269593	5758.855358
497.636395	5854.576787
498.003139	5942.504592
498.369825	5951.641683
498.736453	6100.292707
499.103023	6135.777389
499.469535	6226.049331
499.835989	6295.319826
500.202385	6361.348859
500.568723	6362.278952
500.935003	6527.235588
501.301226	6537.511981
501.667390	6717.118210
502.033497	6844.125040
502.399546	6849.544280
502.765537	6872.778958
503.131470	6991.979562
503.497345	7162.128586
503.863163	7024.106835
504.228923	7270.702437
504.594625	7376.090279
504.960269	7311.445042
505.325856	7510.384097
505.691385	7469.243240
506.056856	7628.601675
506.422270	7718.175417
506.787625	7709.486988
507.152924	7868.807615
507.518164	7925.175276
507.883347	7946.869882
508.248472	7966.611040
508.613540	8177.701796
508.978550	8182.006941
509.343503	8225.549908
509.708398	8375.239409
510.073236	8516.769804
510.438016	8591.129343
510.802738	8618.956513
511.167403	8720.271102
511.532010	8713.359680
511.896561	8931.187938
512.261053	9045.349908
512.625488	9019.324951
512.989866	9064.460922
513.354186	9113.690310
513.718449	9103.938198
514.082655	9297.200913
514.446803	9281.021330
514.810894	9427.529863
515.174927	9381.052945
515.538904	9446.396382
515.902822	9626.118557
516.266684	9581.721115
516.630488	9586.868133
516.994235	9681.861116
517.357925	9783.735273
517.721558	9904.228933
518.085133	9971.014139
518.448651	10017.866623
518.812112	9958.968302
519.175516	10025.125884
519.538863	10161.002624
519.902152	10138.327514
520.265385	10331.270116
520.628560	10279.837744
520.991678	10309.532661
521.354739	10401.863914
521.717743	10371.001970
522.080690	10399.154294
522.443580	10556.085413
522.806413	10550.025946
523.169189	10603.620973
523.531908	10689.630620
523.894569	10556.198839
524.257174	10601.995201
524.619722	10730.327855
524.982213	10705.381705
525.344647	10787.504622
525.707025	10767.219018
526.069345	10884.549354
526.431608	10827.596918
526.793815	10956.839500
527.155964	10778.027252
527.518057	10849.745228
527.880093	10825.983749
528.242072	10905.276058
528.603995	10842.821203
528.965860	10787.083685
529.327669	10849.674651
529.689421	10819.692389
530.051117	10803.384256
530.412755	10920.588563
530.774337	10829.409213
531.135862	10828.758904
531.497331	10866.091169
531.858743	10729.301980
532.220098	10904.834957
532.581396	10794.118615
532.942638	10790.579725
533.303824	10759.939592
533.664953	10795.136928
534.026025	10716.988962
534.387040	10815.236009
534.747999	10829.298308
535.108902	10899.582074
535.469748	10672.326859
535.830537	10772.938208
536.191270	10762.818091
536.551947	10788.928748
536.912567	10801.299739
537.273131	10720.958870
537.633638	10706.689884
537.994089	10713.341687
538.354483	10665.533904
538.714821	10813.781636
539.075103	10822.810343
539.435328	10793.738008
539.795497	10624.246854
540.155609	10789.596700
540.515665	10879.677078
540.875665	10616.783426
541.235609	10690.016268
541.595496	10686.520228
541.955328	10843.516882
542.315102	10737.783721
542.674821	10692.284787
543.034483	10686.830259
543.394090	10696.922649
543.753640	10629.469490
544.113134	10845.510658
544.472571	10702.046982
544.831953	10847.484270
545.191278	10654.087964
545.550548	10683.372027
545.909761	10826.926445
546.268918	10810.212499
546.628019	10886.782585
546.987064	10746.661193
547.346053	10671.404328
547.704986	10774.097673
548.063863	10760.184088
548.422684	10756.292317
548.781449	10670.426344
549.140158	10779.612695
549.498811	10655.345732
549.857408	10516.398929
550.215949	10739.439740
550.574434	10599.023441
550.932864	10697.159583
551.291237	10754.482543
551.649555	10706.551252
552.007817	10719.806967
552.366022	10683.210710
552.724173	10672.364668
553.082267	10659.272791
553.440305	10793.985025
553.798288	10608.160532
554.156215	10758.210477
554.514086	10730.584953
554.871902	10572.438916
555.229661	10612.959711
555.587365	10600.523184
555.945014	10493.305404
556.302606	10615.510535
556.660143	10513.608651
557.017625	10662.000055
557.375050	10561.572709
557.732421	10695.770745
558.089735	10605.629873
558.446994	10613.849474
558.804197	10644.502210
559.161345	10653.046966
559.518437	10495.440332
559.875474	10589.712430
560.232455	10620.995310
560.589381	10567.874151
560.946251	10565.855169
561.303065	10673.433392
561.659825	10602.302712
562.016528	10537.155880
562.373177	10414.774309
562.729770	10529.810919
563.086307	10452.711512
563.442789	10541.108145
563.799216	10424.211349
564.155587	10466.332710
564.511904	10426.563047
564.868164	10415.661552
565.224370	10429.005486
565.580520	10355.850782
565.936615	10362.142142
566.292654	10231.263706
566.648638	10358.557882
567.004567	10317.472478
567.360441	10304.257093
567.716260	10213.012209
568.072023	10307.954780
568.427732	10257.681873
568.783385	10171.377319
569.138982	10240.761240
569.494525	10254.253888
569.850013	10134.740733
570.205445	10212.765192
570.560823	10113.986303
570.916145	10025.892140
571.271412	10097.746226
571.626625	10044.526765
571.981782	10013.979893
572.336884	9992.726388
572.691931	9998.841308
573.046923	9950.201735
573.401860	9899.112162
573.756743	9845.537299
574.111570	9878.919820
574.466342	9868.335917
574.821059	9896.173169
575.175722	9789.560327
575.530330	9792.711048
575.884882	9789.351119
576.239380	9715.901507
576.593823	9696.891316
576.948211	9710.704078
577.302544	9590.220501
577.656823	9610.841341
578.011047	9605.593499
578.365216	9585.358308
578.719330	9503.774795
579.073389	9520.955047
579.427394	9464.047982
579.781344	9438.285165
580.135239	9390.558041
580.489080	9398.512982
580.842866	9299.464391
581.196597	9310.325557
581.550273	9346.710085
581.903895	9315.704468
582.257463	9379.157472
582.610975	9259.135160
582.964434	9287.610118
583.317837	9211.682779
583.671186	9190.754429
584.024481	9190.232669
584.377721	9103.761758
584.730906	9077.217562
585.084037	9113.997820
585.437113	9048.581287
585.790135	9075.072551
586.143103	8970.478691
586.496016	8946.417264
586.848874	9003.588989
587.201679	8988.387390
587.554428	8881.565340
587.907124	8921.881968
588.259765	8895.831805
588.612352	8898.521261
588.964884	8769.966797
589.317362	8788.792986
589.669786	8786.985732
590.022155	8835.383330
590.374470	8853.723047
590.726731	8790.496896
591.078937	8646.352663
591.431090	8759.950024
591.783188	8626.732493
592.135232	8619.727809
592.487222	8620.428530
592.839157	8671.074482
593.191038	8602.245088
593.542866	8554.321359
593.894639	8451.839742
594.246358	8507.168926
594.598022	8517.805761
594.949633	8418.336234
595.301190	8392.974189
595.652692	8422.149867
596.004141	8529.838995
596.355535	8313.888567
596.706876	8289.759084
597.058162	8224.380360
597.409395	8303.400447
597.760573	8358.598561
598.111698	8268.606403
598.462768	8256.096779
598.813785	8224.866831
599.164748	8198.052934
599.515657	8181.407044
599.866511	8096.650124
600.217312	8215.485244
600.568060	8081.796365
600.918753	8185.185389
601.269392	8156.377715
601.619978	8066.551915
601.970510	8126.576934
602.320988	8128.918550
602.671412	8180.234976
603.021783	8120.278012
603.372100	8089.968075
603.722363	8087.051767
604.072572	8068.588542
604.422728	8084.059843
604.772830	8007.141917
605.122878	8016.077362
605.472872	8010.365735
605.822813	8039.697689
606.172701	7981.933627
606.522534	8061.238539
606.872314	8059.123775
607.222041	8031.742748
607.571714	8083.681756
607.921333	8045.913432
608.270899	8049.177579
608.620411	8139.474726
608.969870	8039.067545
609.319276	8036.486474
609.668627	8050.294194
610.017926	8086.545132
610.367171	8129.722614
610.716362	8113.180068
611.065500	8097.229857
611.414585	8133.979869
611.763616	8117.777600
612.112594	8100.599868
612.461518	8111.909697
612.810389	8174.364552
613.159207	8112.323072
613.507971	8062.176194
613.856682	8181.475100
614.205340	8133.536247
614.553945	8211.442239
614.902496	8116.285419
615.250994	8168.519334
615.599439	8149.224318
615.947830	8156.851584
616.296169	8134.181515
616.644454	8153.930235
616.992686	8147.031416
617.340864	8207.731949
617.688990	8106.855940
618.037063	8198.120990
618.385082	8150.872775
618.733048	8230.432265
619.080961	8164.877101
619.428821	8187.973147
619.776628	8195.219806
620.124382	8144.951940
620.472083	8129.722614
620.819731	8155.510637
621.167326	8043.445787
621.514868	8062.143426
621.862357	7939.973583
622.209793	7960.488559
622.557176	7899.772902
622.904506	7865.205710
623.251783	7802.677758
623.599007	7759.278465
623.946179	7765.027901
624.293297	7719.773463
624.640363	7638.729353
624.987376	7620.465253
625.334336	7573.769045
625.681243	7521.767022
626.028097	7503.339084
626.374899	7481.044581
626.721647	7472.968653
627.068343	7408.678818
627.414987	7379.609004
627.761577	7333.525296
628.108115	7373.685648
628.454600	7261.686333
628.801032	7322.071795
629.147412	7273.520442
629.493739	7268.696058
629.840014	7199.549071
630.186236	7261.625840
630.532405	7144.527397
630.878521	7194.707043
631.224585	7155.043244
631.570597	7076.066008
631.916556	7106.426357
632.262462	7106.433918
632.608316	7066.984369
632.954117	7045.771194
633.299866	7031.267794
633.645562	7021.515682
633.991206	6943.118178
634.336797	6888.696402
634.682336	6841.453228
635.027823	6812.028013
635.373257	6800.824049
635.718639	6733.607824
636.063968	6747.382777
636.409245	6647.492313
636.754470	6640.633824
637.099642	6600.148317
637.444762	6547.085132
637.789829	6556.738941
638.134845	6498.949674
638.479808	6484.761347
638.824719	6486.303940
639.169577	6414.739720
639.514383	6435.163955
639.859137	6359.569332
640.203839	6375.585078
640.548489	6357.716708
640.893086	6335.820456
641.237632	6304.565302
641.582125	6327.989024
641.926566	6298.778058
642.270955	6310.619728
