Dividing Wavelength (nm)	Counts (n)	Blue Motor Position (mm): 10.000000	Red Motor Position (mm): 0.000000	
326.493990	2060.506100
326.888308	2060.506100
327.282561	2060.506100
327.676750	2037.853675
328.070874	2035.244878
328.464933	2044.298790
328.858929	2051.300953
329.252859	2062.020966
329.646726	2074.460013
330.040528	2095.078333
330.434265	2108.812956
330.827938	2129.204424
331.221547	2150.082362
331.615091	2172.518018
332.008571	2193.607685
332.401986	2211.471013
332.795338	2233.964642
333.188625	2252.047261
333.581847	2273.877977
333.975006	2289.379525
334.368100	2306.816877
334.761129	2322.061326
335.154095	2341.658811
335.546996	2372.979500
335.939833	2431.335897
336.332606	2441.428287
336.725315	2450.487241
337.117960	2466.381999
337.510540	2470.929119
337.903056	2480.794658
338.295508	2487.890082
338.687896	2496.641525
339.080220	2502.242247
339.472480	2505.748369
339.864676	2509.612413
340.256807	2513.499143
340.648875	2514.323372
341.040879	2513.264729
341.432818	2516.785975
341.824694	2517.922756
342.216506	2516.949813
342.608253	2516.561644
342.999937	2513.476458
343.391557	2515.954185
343.783113	2511.404544
344.174605	2509.307424
344.566033	2508.964625
344.957397	2507.837927
345.348697	2504.430107
345.739934	2502.827020
346.131106	2501.843995
346.522215	2499.973727
346.913260	2500.213182
347.304241	2495.958448
347.695159	2495.045999
348.086012	2492.258241
348.476802	2491.383601
348.867528	2487.653147
349.258191	2486.534011
349.648789	2486.687766
350.039324	2480.706437
350.429796	2486.423106
350.820203	2485.026706
351.210548	2485.936634
351.600828	2485.016624
351.991045	2485.155256
352.381198	2482.632158
352.771288	2482.778352
353.161314	2482.831284
353.551276	2483.340440
353.941175	2482.019658
354.331010	2482.155769
354.720782	2484.532673
355.110490	2486.549135
355.500135	2479.952785
355.889717	2483.451346
356.279235	2482.070069
356.668689	2485.314052
357.058080	2482.191057
357.447408	2485.140132
357.836672	2483.910091
358.225873	2484.978815
358.615010	2486.443270
359.004084	2487.602736
359.393095	2489.036944
359.782043	2487.438898
360.170927	2489.311687
360.559748	2487.690956
360.948505	2490.997953
361.337199	2489.977119
361.725830	2490.622387
362.114398	2491.497027
362.502903	2489.984681
362.891344	2492.946359
363.279722	2491.108858
363.668037	2491.396204
364.056289	2489.478045
364.444478	2494.985506
364.832603	2494.057933
365.220665	2494.728407
365.608665	2493.309322
365.996601	2496.303767
366.384474	2493.034579
366.772284	2495.396360
367.160031	2496.316370
367.547715	2492.807727
367.935336	2494.791421
368.322893	2497.178407
368.710388	2493.072388
369.097820	2494.025166
369.485189	2492.023828
369.872495	2497.009529
370.259738	2494.108345
370.646918	2496.848212
371.034035	2498.156391
371.421090	2499.056237
371.808081	2498.118583
372.195010	2499.938439
372.581875	2497.427945
372.968678	2499.651093
373.355418	2500.361896
373.742096	2499.991371
374.128710	2496.805362
374.515262	2496.966679
374.901751	2499.005826
375.288177	2498.910044
375.674540	2496.901144
376.060841	2501.828872
376.447079	2504.142762
376.833254	2498.642863
377.219367	2499.779643
377.605417	2502.383399
377.991404	2500.858450
378.377329	2499.877945
378.763191	2504.639315
379.148991	2501.818790
379.534727	2504.316681
379.920402	2503.101763
380.306013	2499.514982
380.691563	2509.821621
381.077049	2500.437513
381.462474	2503.810045
381.847835	2502.312823
382.233134	2503.021105
382.618371	2500.722339
383.003545	2507.180057
383.388657	2502.068327
383.773706	2504.780468
384.158693	2504.465395
384.543618	2506.159223
384.928480	2503.295848
385.313280	2505.914727
385.698017	2503.343739
386.082692	2504.525889
386.467305	2505.798781
386.851856	2504.846003
387.236344	2504.099912
387.620770	2504.125118
388.005133	2505.763493
388.389435	2504.777947
388.773674	2501.798625
389.157851	2506.738956
389.541965	2506.882629
389.926018	2508.916734
390.310008	2507.099398
390.693936	2505.551764
391.077802	2506.741476
391.461606	2508.762979
391.845348	2509.294821
392.229027	2509.234327
392.612645	2509.761128
392.996200	2507.371621
393.379694	2507.653925
393.763125	2509.559481
394.146494	2507.457320
394.529801	2512.057373
394.913047	2509.224245
395.296230	2512.778258
395.679351	2507.764831
396.062410	2510.812208
396.445408	2510.660973
396.828343	2512.090141
397.211217	2511.868330
397.594028	2510.950840
397.976778	2510.219873
398.359466	2509.234327
398.742092	2510.885305
399.124656	2510.817249
399.507158	2511.838083
399.889598	2510.696262
400.271977	2512.735408
400.654294	2511.797754
401.036549	2511.674245
401.418742	2514.182219
401.800874	2512.760614
402.182944	2513.635254
402.564952	2513.468896
402.946898	2513.547034
403.328783	2515.704648
403.710606	2511.434791
404.092367	2515.351767
404.474067	2514.668691
404.855705	2515.031654
405.237282	2513.342867
405.618797	2514.887981
406.000250	2515.079545
406.381642	2515.939062
406.762972	2513.909997
407.144240	2512.253978
407.525447	2514.807323
407.906593	2507.840448
408.287677	2517.211953
408.668700	2514.398989
409.049661	2516.791017
409.430560	2518.232787
409.811399	2515.908815
410.192176	2515.752539
410.572891	2517.290091
410.953545	2517.438805
411.334138	2517.985770
411.714669	2517.937879
412.095139	2520.962571
412.475547	2514.865296
412.855894	2519.440143
413.236180	2516.158352
413.616405	2520.161028
413.996568	2516.566685
414.376670	2515.301356
414.756711	2519.019207
415.136691	2520.319824
415.516609	2519.208250
415.896466	2520.251769
416.276262	2517.340502
416.655997	2518.961233
417.035670	2515.233300
417.415283	2519.636748
417.794834	2519.409896
418.174324	2520.670184
418.553753	2516.503671
418.933121	2521.101203
419.312428	2522.621111
419.691674	2519.034330
420.070859	2519.132633
420.449983	2519.624145
420.829045	2519.886285
421.208047	2520.697911
421.586988	2521.126409
421.965867	2519.914011
422.344686	2519.815709
422.723444	2520.430730
423.102141	2518.890657
423.480777	2519.878723
423.859352	2522.729496
424.237866	2518.497447
424.616319	2518.439474
424.994712	2522.805113
425.373044	2519.495596
425.751314	2518.129443
426.129524	2513.967970
426.507673	2517.665657
426.885762	2513.794051
427.263789	2520.599608
427.641756	2522.386697
428.019662	2518.353774
428.397508	2520.367715
428.775292	2520.634896
429.153016	2520.476100
429.530679	2517.705986
429.908282	2522.190092
430.285824	2522.394259
430.663305	2519.109947
431.040726	2518.948630
431.418086	2524.302336
431.795385	2522.137160
432.172624	2518.767149
432.549802	2518.802437
432.926920	2523.125226
433.303977	2521.701100
433.680974	2523.999867
434.057910	2520.609691
434.434786	2521.040709
434.811601	2518.530215
435.188355	2522.981553
435.565050	2522.106913
435.941683	2521.033147
436.318257	2523.296626
436.694770	2520.612211
437.071222	2523.730165
437.447614	2522.502644
437.823946	2519.966943
438.200218	2522.878210
438.576429	2519.767818
438.952580	2523.215967
439.328670	2522.936183
439.704700	2519.712365
440.080670	2519.571213
440.456580	2522.069105
440.832429	2524.347706
441.208218	2523.011800
441.583947	2521.867458
441.959616	2521.610360
442.335224	2520.556758
442.710773	2520.370236
443.086261	2520.733199
443.461689	2520.488703
443.837057	2522.873169
444.212365	2520.886954
444.587612	2520.085411
444.962800	2520.397962
445.337927	2518.585667
445.712995	2516.198681
446.088002	2522.195133
446.462949	2521.242355
446.837837	2521.290246
447.212664	2523.634383
447.587431	2522.369053
447.962139	2523.142870
448.336786	2522.537932
448.711374	2525.860052
449.085901	2523.674712
449.460369	2522.111954
449.834776	2519.498116
450.209124	2520.193795
450.583412	2524.110772
450.957640	2523.152953
451.331808	2524.897192
451.705917	2520.176151
452.079965	2522.888292
452.453954	2526.018849
452.827883	2524.156142
453.201752	2523.314270
453.575562	2525.182017
453.949311	2523.566327
454.323001	2521.380987
454.696632	2523.435257
455.070202	2523.001718
455.443713	2521.703621
455.817164	2522.479959
456.190556	2522.671523
456.563888	2524.188910
456.937160	2522.031296
457.310373	2524.430885
457.683526	2522.696728
458.056619	2523.102541
458.429653	2521.915349
458.802628	2522.747140
459.175542	2524.579599
459.548398	2526.051616
459.921194	2521.159176
460.293930	2525.882738
460.666607	2525.161853
461.039224	2522.212778
461.411782	2522.500123
461.784280	2521.847294
462.156719	2522.336286
462.529099	2523.236132
462.901419	2521.532222
463.273680	2521.932993
463.645882	2518.484844
464.018024	2522.464835
464.390106	2518.961233
464.762130	2522.779907
465.134094	2521.892664
465.505999	2526.475073
465.877845	2524.125895
466.249631	2525.126564
466.621358	2526.454908
466.993026	2529.474560
467.364634	2527.069929
467.736184	2527.551359
468.107674	2523.974661
468.479105	2526.270906
468.850477	2524.612367
469.221790	2525.093797
469.593043	2524.630011
469.964238	2525.928108
470.335373	2527.435413
470.706449	2527.599250
471.077467	2527.102697
471.448425	2528.294930
471.819324	2526.200330
472.190164	2525.124044
472.560945	2524.662778
472.931667	2525.426513
473.302330	2526.129754
473.672934	2525.852491
474.043479	2524.282171
474.413965	2522.878210
474.784393	2524.710669
475.154761	2528.516740
475.525070	2524.566996
475.895321	2523.624301
476.265513	2529.262831
476.635645	2525.081194
477.005719	2526.031452
477.375734	2524.851822
477.745691	2525.605474
478.115588	2528.577234
478.485427	2527.994981
478.855207	2526.323838
479.224928	2526.631349
479.594591	2527.884076
479.964194	2527.949611
480.333739	2527.914323
480.703226	2529.734179
481.072653	2530.046731
481.442022	2528.846936
481.811333	2525.814682
482.180584	2523.969620
482.549777	2528.083201
482.918912	2524.904754
483.287988	2531.395239
483.657005	2529.993798
484.025964	2530.177801
484.394864	2529.615712
484.763706	2526.591020
485.132489	2528.252080
485.501213	2528.244518
485.869879	2528.032790
486.238487	2531.037317
486.607036	2529.038500
486.975527	2527.339631
487.343959	2528.385670
487.712333	2528.330218
488.080648	2529.759385
488.448905	2528.347862
488.817104	2529.419107
489.185244	2529.182173
489.553326	2529.938346
489.921350	2533.091588
490.289315	2532.683254
490.657222	2532.950435
491.025070	2530.364323
491.392861	2531.007070
491.760593	2530.911288
492.128267	2532.045548
492.495883	2533.744417
492.863440	2532.423635
493.230939	2530.487832
493.598380	2531.692667
493.965763	2531.823737
494.333088	2530.162677
494.700354	2531.150743
495.067563	2529.179652
495.434713	2529.862728
495.801805	2530.969262
496.168839	2529.862728
496.535815	2531.130579
496.902733	2533.285672
497.269593	2531.095291
497.636395	2530.374406
498.003139	2532.572349
498.369825	2531.115455
498.736453	2531.438089
499.103023	2530.870959
499.469535	2534.608975
499.835989	2530.087060
500.202385	2529.472039
500.568723	2527.639580
500.935003	2529.686288
501.301226	2524.035155
501.667390	2531.536392
502.033497	2532.650487
502.399546	2531.523789
502.765537	2533.071423
503.131470	2532.017822
503.497345	2530.913809
503.863163	2532.433717
504.228923	2528.796524
504.594625	2528.499096
504.960269	2532.849612
505.325856	2529.018335
505.691385	2531.052441
506.056856	2528.725948
506.422270	2530.069416
506.787625	2532.837009
507.152924	2531.453212
507.518164	2530.765095
507.883347	2531.612009
508.248472	2533.192411
508.613540	2529.996319
508.978550	2535.370189
509.343503	2532.285003
509.708398	2531.778367
510.073236	2533.769623
510.438016	2531.357431
510.802738	2531.629653
511.167403	2534.503111
511.532010	2533.210055
511.896561	2533.671320
512.261053	2534.152750
512.625488	2534.208203
512.989866	2533.580579
513.354186	2533.895652
513.718449	2537.411856
514.082655	2535.075282
514.446803	2535.460930
514.810894	2537.515200
515.174927	2535.705426
515.538904	2533.961187
515.902822	2539.360262
516.266684	2539.163657
516.630488	2538.389840
516.994235	2536.292720
517.357925	2540.287835
517.721558	2539.947557
518.085133	2541.853113
518.448651	2538.079809
518.812112	2535.944881
519.175516	2539.781199
519.538863	2538.556198
519.902152	2544.613145
520.265385	2544.509801
520.628560	2546.795964
520.991678	2548.605738
521.354739	2546.493495
521.717743	2547.393341
522.080690	2546.964843
522.443580	2550.387786
522.806413	2547.473999
523.169189	2550.027344
523.531908	2551.063301
523.894569	2551.771583
524.257174	2551.242262
524.619722	2552.545400
524.982213	2553.548590
525.344647	2555.905329
525.707025	2555.587737
526.069345	2557.982285
526.431608	2556.313663
526.793815	2558.627552
527.155964	2558.330124
527.518057	2562.642831
527.880093	2561.311967
528.242072	2564.036710
528.603995	2563.353634
528.965860	2564.324056
529.327669	2565.753223
529.689421	2566.237174
530.051117	2568.051989
530.412755	2567.613409
530.774337	2569.239181
531.135862	2570.396126
531.497331	2570.842268
531.858743	2570.592731
532.220098	2573.982907
532.581396	2573.146075
532.942638	2576.213618
533.303824	2573.766137
533.664953	2578.956005
534.026025	2579.243351
534.387040	2579.336612
534.747999	2578.882908
535.108902	2583.082190
535.469748	2581.138825
535.830537	2584.027406
536.191270	2584.614700
536.551947	2581.912642
536.912567	2583.024216
537.273131	2586.064032
537.633638	2585.380956
537.994089	2590.127202
538.354483	2591.198447
538.714821	2591.649631
539.075103	2594.681885
539.435328	2595.465784
539.795497	2595.107862
540.155609	2597.351176
540.515665	2599.743203
540.875665	2600.514500
541.235609	2599.425610
541.595496	2601.545416
541.955328	2604.204624
542.315102	2606.135386
542.674821	2602.523399
543.034483	2604.696137
543.394090	2604.746548
543.753640	2609.223093
544.113134	2608.545058
544.472571	2608.386261
544.831953	2609.195367
545.191278	2610.856427
545.550548	2612.194853
545.909761	2614.110492
546.268918	2617.455297
546.628019	2615.206942
546.987064	2619.179372
547.346053	2616.794906
547.704986	2619.207098
548.063863	2618.130812
548.422684	2618.221552
548.781449	2619.764146
549.140158	2622.229270
549.498811	2624.079373
549.857408	2618.778600
550.215949	2624.490227
550.574434	2622.413272
550.932864	2621.478138
551.291237	2627.477111
551.649555	2625.075001
552.007817	2624.709517
552.366022	2627.444343
552.724173	2624.522995
553.082267	2627.527522
553.440305	2630.950466
553.798288	2629.238994
554.156215	2626.451236
554.514086	2627.925774
554.871902	2626.912502
555.229661	2627.923253
555.587365	2626.166411
555.945014	2633.770992
556.302606	2633.166053
556.660143	2633.365179
557.017625	2632.913995
557.375050	2633.231588
557.732421	2634.322998
558.089735	2632.649335
558.446994	2633.481125
558.804197	2635.966414
559.161345	2632.729993
559.518437	2636.215951
559.875474	2636.548667
560.232455	2637.539254
560.589381	2635.931126
560.946251	2635.454737
561.303065	2637.569501
561.659825	2637.256949
562.016528	2637.020015
562.373177	2636.175622
562.729770	2638.481950
563.086307	2634.179325
563.442789	2640.022022
563.799216	2641.279790
564.155587	2637.592186
564.511904	2637.491363
564.868164	2638.670993
565.224370	2640.410191
565.580520	2639.200314
565.936615	2640.730304
566.292654	2639.349028
566.648638	2640.334574
567.004567	2639.170067
567.360441	2642.172074
567.716260	2641.017650
568.072023	2642.366159
568.427732	2639.969090
568.783385	2638.665952
569.138982	2640.410191
569.494525	2642.940850
569.850013	2643.518062
570.205445	2642.348515
570.560823	2640.470685
570.916145	2643.432363
571.271412	2640.067393
571.626625	2641.307517
571.981782	2638.802063
572.336884	2638.968421
572.691931	2639.601086
573.046923	2638.998668
573.401860	2635.656383
573.756743	2639.959008
574.111570	2642.071251
574.466342	2641.186529
574.821059	2644.682569
575.175722	2640.450520
575.530330	2640.871457
575.884882	2641.131076
576.239380	2640.994965
576.593823	2644.924544
576.948211	2641.120994
577.302544	2641.022691
577.656823	2639.228041
578.011047	2641.350366
578.365216	2638.353400
578.719330	2641.559574
579.073389	2641.274749
579.427394	2641.589821
579.781344	2642.998824
580.135239	2644.932106
580.489080	2641.622589
580.842866	2641.534368
581.196597	2643.218114
581.550273	2643.631488
581.903895	2643.386992
582.257463	2648.486120
582.610975	2645.532003
582.964434	2645.952940
583.317837	2648.246665
583.671186	2649.234731
584.024481	2647.361942
584.377721	2650.653816
584.730906	2648.002169
585.084037	2650.051398
585.437113	2651.248672
585.790135	2655.999959
586.143103	2650.248003
586.496016	2653.665905
586.848874	2653.456697
587.201679	2657.666061
587.554428	2654.568272
587.907124	2659.070022
588.259765	2658.323931
588.612352	2662.366937
588.964884	2660.302584
589.317362	2664.080929
589.669786	2663.667554
590.022155	2663.932215
590.374470	2665.197545
590.726731	2667.788698
591.078937	2664.050682
591.431090	2673.417146
591.783188	2672.398833
592.135232	2672.524862
592.487222	2676.114163
592.839157	2679.602642
593.191038	2678.591890
593.542866	2681.679597
593.894639	2680.809998
594.246358	2684.800071
594.598022	2689.246369
594.949633	2690.436081
595.301190	2691.003211
595.652692	2695.749457
596.004141	2698.370857
596.355535	2696.104859
596.706876	2699.888245
597.058162	2701.670293
597.409395	2705.204142
597.760573	2712.458362
598.111698	2710.010882
598.462768	2714.588249
598.813785	2717.552448
599.164748	2720.259547
599.515657	2723.289281
599.866511	2727.939745
600.217312	2732.179356
600.568060	2731.362689
600.918753	2742.299472
601.269392	2745.810636
601.619978	2750.294742
601.970510	2753.808426
602.320988	2760.505599
602.671412	2764.939294
603.021783	2768.805859
603.372100	2771.283586
603.722363	2780.791202
604.072572	2783.997376
604.422728	2791.337296
604.772830	2795.050106
605.122878	2803.380613
605.472872	2804.764409
605.822813	2813.828404
606.172701	2818.693117
606.522534	2829.269458
606.872314	2835.588545
607.222041	2843.120028
607.571714	2851.546317
607.921333	2854.213087
608.270899	2867.294882
608.620411	2874.922148
608.969870	2885.697614
609.319276	2895.056516
609.668627	2905.186715
610.017926	2916.559558
610.367171	2925.482400
610.716362	2937.626540
611.065500	2950.194136
611.414585	2962.890282
611.763616	2976.022488
612.112594	2987.952378
612.461518	3000.779594
612.810389	3015.139321
613.159207	3028.032072
613.507971	3039.079761
613.856682	3057.890826
614.205340	3070.571849
614.553945	3090.814602
614.902496	3098.840119
615.250994	3118.019189
615.599439	3136.976448
615.947830	3153.138387
616.296169	3172.014988
616.644454	3192.040971
616.992686	3213.266750
617.340864	3241.625761
617.688990	3251.408120
618.037063	3287.238121
618.385082	3305.827375
618.733048	3339.280472
619.080961	3353.670446
619.428821	3374.374465
619.776628	3394.960017
620.124382	3414.292842
620.472083	3432.171294
620.819731	3454.916980
621.167326	3464.495172
621.514868	3479.462358
621.862357	3485.173985
622.209793	3504.829444
622.557176	3512.096267
622.904506	3521.014068
623.251783	3532.422200
623.599007	3546.219838
623.946179	3557.990932
624.293297	3575.302254
624.640363	3578.319385
624.987376	3592.737085
625.334336	3607.820217
625.681243	3619.167854
626.028097	3637.512613
626.374899	3661.521108
626.721647	3685.058256
627.068343	3702.714897
627.414987	3719.151579
627.761577	3736.556163
628.108115	3770.722583
628.454600	3775.741052
628.801032	3810.025939
629.147412	3839.196576
629.493739	3864.220863
629.840014	3876.359962
630.186236	3919.867640
630.532405	3932.021862
630.878521	3970.319508
631.224585	3996.384794
631.570597	4016.020088
631.916556	4055.300759
632.262462	4085.146910
632.608316	4110.418214
632.954117	4136.516268
633.299866	4165.974250
633.645562	4190.227242
633.991206	4194.222356
634.336797	4199.994477
634.682336	4218.820666
635.027823	4231.025300
635.373257	4250.829472
635.718639	4263.124847
636.063968	4283.702837
636.409245	4275.276548
636.754470	4299.811844
637.099642	4315.981345
637.444762	4311.656035
637.789829	4349.172302
638.134845	4355.892160
638.479808	4384.888877
638.824719	4408.662958
639.169577	4413.079009
639.514383	4448.881284
639.859137	4457.446204
640.203839	4493.818129
640.548489	4511.683978
640.893086	4538.553328
641.237632	4554.397675
641.582125	4594.845373
641.926566	4612.638125
642.270955	4646.113907
642.615292	4671.191127
642.959576	4698.753636
643.303809	4729.769335
643.647990	4771.666364
643.992118	4805.255573
644.336195	4829.493440
