Dividing Wavelength (nm)	Counts (n)	Blue Motor Position (mm): 2.800000	Red Motor Position (mm): 0.000000	
326.493990	2143.959881
326.888308	2143.959881
327.282561	2143.959881
327.676750	2110.776486
328.070874	2109.301948
328.464933	2113.281939
328.858929	2120.533639
329.252859	2130.981430
329.646726	2139.919396
330.040528	2153.820378
330.434265	2168.144817
330.827938	2188.553928
331.221547	2206.777699
331.615091	2224.973744
332.008571	2245.657598
332.401986	2262.865577
332.795338	2285.888526
333.188625	2302.610034
333.581847	2321.249700
333.975006	2340.970694
334.368100	2360.467356
334.761129	2378.426467
335.154095	2391.795607
335.546996	2409.157341
335.939833	2423.877510
336.332606	2439.915941
336.725315	2450.691407
337.117960	2459.100052
337.510540	2469.331074
337.903056	2480.280460
338.295508	2490.672798
338.687896	2496.656648
339.080220	2503.759634
339.472480	2511.485202
339.864676	2516.604494
340.256807	2520.274454
340.648875	2523.150432
341.040879	2523.536080
341.432818	2526.835516
341.824694	2528.645290
342.216506	2527.833664
342.608253	2531.009591
342.999937	2526.071781
343.391557	2528.562111
343.783113	2526.470032
344.174605	2530.087060
344.566033	2524.544311
344.957397	2525.050947
345.348697	2523.919208
345.739934	2519.886285
346.131106	2516.644823
346.522215	2516.365039
346.913260	2516.644823
347.304241	2513.073166
347.695159	2511.802795
348.086012	2509.186436
348.476802	2508.261384
348.867528	2504.903976
349.258191	2504.404902
349.648789	2501.954901
350.039324	2498.731083
350.429796	2503.079078
350.820203	2498.252173
351.210548	2497.836278
351.600828	2497.667399
351.991045	2496.986844
352.381198	2496.578510
352.771288	2496.699498
353.161314	2499.404077
353.551276	2494.990547
353.941175	2495.802172
354.331010	2496.132368
354.720782	2497.869046
355.110490	2496.835609
355.500135	2496.122286
355.889717	2495.222440
356.279235	2493.757985
356.668689	2496.714621
357.058080	2495.691267
357.447408	2494.078098
357.836672	2493.432830
358.225873	2497.100270
358.615010	2493.135402
359.004084	2498.738645
359.393095	2498.700836
359.782043	2498.080774
360.170927	2495.615650
360.559748	2500.860970
360.948505	2500.429952
361.337199	2501.062617
361.725830	2502.617813
362.114398	2503.230313
362.502903	2502.378358
362.891344	2504.662000
363.279722	2504.253667
363.668037	2503.376506
364.056289	2504.097391
364.444478	2504.767865
364.832603	2505.350118
365.220665	2505.198883
365.608665	2507.091837
365.996601	2509.055366
366.384474	2506.219717
366.772284	2507.079234
367.160031	2507.696775
367.547715	2507.532938
367.935336	2506.615448
368.322893	2508.941940
368.710388	2510.875223
369.097820	2510.476971
369.485189	2507.202742
369.872495	2510.552589
370.259738	2510.053514
370.646918	2510.522342
371.034035	2510.348422
371.421090	2512.564009
371.808081	2511.371776
372.195010	2509.289780
372.581875	2511.391941
372.968678	2511.170130
373.355418	2510.350943
373.742096	2512.730367
374.128710	2511.855727
374.515262	2512.909328
374.901751	2511.868330
375.288177	2514.877899
375.674540	2510.461848
376.060841	2513.007631
376.447079	2512.233813
376.833254	2509.793895
377.219367	2509.577125
377.605417	2513.075686
377.991404	2512.168278
378.377329	2511.205418
378.763191	2509.889677
379.148991	2515.235821
379.534727	2514.106602
379.920402	2516.049967
380.306013	2514.887981
380.691563	2514.542662
381.077049	2515.351767
381.462474	2515.596263
381.847835	2517.428722
382.233134	2516.869154
382.618371	2519.654392
383.003545	2516.420492
383.388657	2517.274967
383.773706	2519.561131
384.158693	2519.389731
384.543618	2520.380318
384.928480	2518.522653
385.313280	2518.305883
385.698017	2520.201357
386.082692	2519.775380
386.467305	2518.328568
386.851856	2519.805627
387.236344	2518.696573
387.620770	2519.772859
388.005133	2519.314114
388.389435	2522.316121
388.773674	2518.217663
389.157851	2519.636748
389.541965	2520.866789
389.926018	2519.576254
390.310008	2522.177489
390.693936	2522.069105
391.077802	2522.013652
391.461606	2521.877541
391.845348	2523.982222
392.229027	2522.308559
392.612645	2524.105731
392.996200	2521.736388
393.379694	2522.573220
393.763125	2525.728982
394.146494	2522.832839
394.529801	2525.091276
394.913047	2523.251255
395.296230	2525.166894
395.679351	2522.336286
396.062410	2524.309898
396.445408	2523.382325
396.828343	2522.537932
397.211217	2519.172962
397.594028	2520.284536
397.976778	2518.860410
398.359466	2524.914836
398.742092	2521.701100
399.124656	2522.797551
399.507158	2525.413910
399.889598	2526.180166
400.271977	2524.461132
400.654294	2525.408869
401.036549	2525.290402
401.418742	2527.505989
401.800874	2525.176976
402.182944	2527.180835
402.564952	2525.696215
402.946898	2526.951462
403.328783	2526.059178
403.710606	2528.017666
404.092367	2527.137985
404.474067	2527.876514
404.855705	2530.613860
405.237282	2525.456760
405.618797	2525.376102
406.000250	2530.429858
406.381642	2528.000022
406.762972	2530.240815
407.144240	2528.047913
407.525447	2530.971782
407.906593	2529.025897
408.287677	2526.749816
408.668700	2527.684950
409.049661	2528.819210
409.430560	2527.657224
409.811399	2533.628470
410.192176	2530.104704
410.572891	2529.535053
410.953545	2531.485980
411.334138	2530.044210
411.714669	2528.025228
412.095139	2533.257946
412.475547	2532.892462
412.855894	2529.144364
413.236180	2529.892975
413.616405	2531.548994
413.996568	2532.574869
414.376670	2530.969262
414.756711	2531.428007
415.136691	2532.564787
415.516609	2531.801052
415.896466	2533.298275
416.276262	2532.559746
416.655997	2532.607637
417.035670	2525.653365
417.415283	2531.163346
417.794834	2525.693694
418.174324	2531.833820
418.553753	2534.258615
418.933121	2535.526465
419.312428	2530.462626
419.691674	2536.169212
420.070859	2533.772143
420.449983	2532.773995
420.829045	2533.033614
421.208047	2534.288862
421.586988	2534.921526
421.965867	2535.657535
422.344686	2535.571835
422.723444	2532.970600
423.102141	2535.896990
423.480777	2536.532175
423.859352	2535.977648
424.237866	2535.619726
424.616319	2535.372710
424.994712	2534.752648
425.373044	2536.398584
425.751314	2535.166022
426.129524	2535.430683
426.507673	2534.092257
426.885762	2534.344314
427.263789	2537.149716
427.641756	2536.280117
428.019662	2537.288348
428.397508	2536.723739
428.775292	2536.423790
429.153016	2536.028060
429.530679	2537.411856
429.908282	2536.920344
430.285824	2537.558050
430.663305	2534.911444
431.040726	2535.564273
431.418086	2537.346321
431.795385	2535.783564
432.172624	2539.337577
432.549802	2537.888245
432.926920	2534.964376
433.303977	2537.363965
433.680974	2539.292207
434.057910	2539.692978
434.434786	2537.885725
434.811601	2539.549306
435.188355	2538.911600
435.565050	2539.435880
435.941683	2538.226003
436.318257	2537.404295
436.694770	2534.674510
437.071222	2537.890766
437.447614	2535.781043
437.823946	2535.007226
438.200218	2538.495704
438.576429	2542.125335
438.952580	2541.457382
439.328670	2540.776827
439.704700	2539.783719
440.080670	2538.851106
440.456580	2539.705581
440.832429	2539.337577
441.208218	2537.991589
441.583947	2539.151054
441.959616	2541.374203
442.335224	2541.588452
442.710773	2540.093750
443.086261	2541.291024
443.461689	2539.687937
443.837057	2543.234389
444.212365	2542.180788
444.587612	2541.689275
444.962800	2540.381096
445.337927	2539.937474
445.712995	2542.011909
446.088002	2541.694317
446.462949	2543.620037
446.837837	2540.865047
447.212664	2540.507125
447.587431	2541.777496
447.962139	2539.866898
448.336786	2544.356046
448.711374	2541.369162
449.085901	2544.096426
449.460369	2539.438400
449.834776	2542.556354
450.209124	2539.829090
450.583412	2543.456200
450.957640	2542.324461
451.331808	2541.550644
451.705917	2539.733308
452.079965	2544.114070
452.453954	2542.579039
452.827883	2542.067362
453.201752	2544.169523
453.575562	2542.011909
453.949311	2540.721374
454.323001	2542.684903
454.696632	2543.037784
455.070202	2542.957126
455.443713	2544.020809
455.817164	2539.544264
456.190556	2540.600386
456.563888	2540.572660
456.937160	2537.389171
457.310373	2545.389482
457.683526	2541.606096
458.056619	2543.355377
458.429653	2544.121632
458.802628	2544.345963
459.175542	2545.132383
459.548398	2546.309493
459.921194	2544.005686
460.293930	2543.584749
460.666607	2546.725388
461.039224	2546.609442
461.411782	2543.695655
461.784280	2546.062476
462.156719	2545.147507
462.529099	2546.526263
462.901419	2546.243958
463.273680	2543.536858
463.645882	2544.814791
464.018024	2545.313865
464.390106	2542.967208
464.762130	2545.202960
465.134094	2546.062476
465.505999	2545.974256
465.877845	2545.530635
466.249631	2545.845707
466.621358	2546.248999
466.993026	2546.576674
467.364634	2550.549103
467.736184	2545.011396
468.107674	2544.131714
468.479105	2545.742363
468.850477	2544.015768
469.221790	2544.066179
469.593043	2546.150697
469.964238	2545.190357
470.335373	2545.167672
470.706449	2546.299411
471.077467	2547.884853
471.448425	2546.022147
471.819324	2545.906201
472.190164	2547.015254
472.560945	2546.342260
472.931667	2545.208001
473.302330	2542.563916
473.672934	2545.291180
474.043479	2546.947199
474.413965	2547.552137
474.784393	2542.211035
475.154761	2544.872764
475.525070	2543.393185
475.895321	2544.035932
476.265513	2545.515511
476.635645	2547.932744
477.005719	2545.891077
477.375734	2547.169010
477.745691	2548.585574
478.115588	2549.825698
478.485427	2546.445604
478.855207	2547.670604
479.224928	2547.630275
479.594591	2546.944678
479.964194	2547.380738
480.333739	2549.263609
480.703226	2547.252189
481.072653	2549.127498
481.442022	2549.130018
481.811333	2546.732950
482.180584	2548.262940
482.549777	2549.636654
482.918912	2546.896787
483.287988	2547.075748
483.657005	2550.133208
484.025964	2545.666746
484.394864	2548.900646
484.763706	2549.752601
485.132489	2546.942158
485.501213	2550.622200
485.869879	2546.818649
486.238487	2546.279246
486.607036	2547.690769
486.975527	2547.105995
487.343959	2548.835111
487.712333	2549.044319
488.080648	2548.078938
488.448905	2548.278063
488.817104	2548.686397
489.185244	2550.901984
489.553326	2547.050542
489.921350	2548.036088
490.289315	2550.745708
490.657222	2549.611449
491.025070	2548.043650
491.392861	2550.145811
491.760593	2548.285625
492.128267	2551.252344
492.495883	2546.165820
492.863440	2550.176058
493.230939	2550.218908
493.598380	2548.633465
493.965763	2547.839483
494.333088	2544.746735
494.700354	2545.770089
495.067563	2548.157076
495.434713	2543.010058
495.801805	2548.472148
496.168839	2548.469627
496.535815	2548.951058
496.902733	2549.866027
497.269593	2548.777138
497.636395	2550.075235
498.003139	2549.608928
498.369825	2548.948537
498.736453	2552.346275
499.103023	2548.739329
499.469535	2548.509957
499.835989	2548.973743
500.202385	2549.954247
500.568723	2552.681511
500.935003	2551.297715
501.301226	2550.869217
501.667390	2550.639844
502.033497	2551.310318
502.399546	2551.375852
502.765537	2550.254196
503.131470	2549.477858
503.497345	2550.402910
503.863163	2550.228990
504.228923	2549.901315
504.594625	2550.866696
504.960269	2550.695297
505.325856	2550.889381
505.691385	2550.218908
506.056856	2551.585060
506.422270	2548.807385
506.787625	2549.747560
507.152924	2550.221428
507.518164	2550.294525
507.883347	2549.886192
508.248472	2551.791748
508.613540	2549.848383
508.978550	2549.215718
509.343503	2549.364432
509.708398	2551.882488
510.073236	2550.826367
510.438016	2551.673281
510.802738	2549.959288
511.167403	2553.150339
511.532010	2551.993394
511.896561	2549.634134
512.261053	2554.569423
512.625488	2548.540203
512.989866	2547.640357
513.354186	2547.199257
513.718449	2547.564740
514.082655	2550.695297
514.446803	2551.227138
514.810894	2551.431305
515.174927	2552.983981
515.538904	2549.659340
515.902822	2550.957437
516.266684	2550.070194
516.630488	2550.488609
516.994235	2550.818805
517.357925	2553.306614
517.721558	2549.944165
518.085133	2551.648075
518.448651	2552.361398
518.812112	2550.019782
519.175516	2553.162942
519.538863	2550.579350
519.902152	2550.680173
520.265385	2550.347457
520.628560	2553.198230
520.991678	2549.107333
521.354739	2552.159752
521.717743	2552.711758
522.080690	2550.581871
522.443580	2552.159752
522.806413	2552.502550
523.169189	2549.966850
523.531908	2553.747715
523.894569	2549.729916
524.257174	2554.423230
524.619722	2552.202602
524.982213	2551.839639
525.344647	2548.111705
525.707025	2553.162942
526.069345	2549.273691
526.431608	2552.641182
526.793815	2552.013558
527.155964	2553.316697
527.518057	2553.558672
527.880093	2550.939793
528.242072	2552.116902
528.603995	2553.972047
528.965860	2550.516336
529.327669	2553.422561
529.689421	2551.925338
530.051117	2553.195709
530.412755	2551.655637
530.774337	2552.535318
531.135862	2551.660678
531.497331	2551.630431
531.858743	2548.620862
532.220098	2549.755122
532.581396	2548.956099
532.942638	2550.196222
533.303824	2552.396686
533.664953	2550.811243
534.026025	2552.764690
534.387040	2551.567416
534.747999	2552.820143
535.108902	2555.043292
535.469748	2550.334854
535.830537	2554.030020
536.191270	2552.462221
536.551947	2552.240410
536.912567	2551.247303
537.273131	2551.842159
537.633638	2554.196378
537.994089	2552.298384
538.354483	2551.915256
538.714821	2553.848538
539.075103	2555.590257
539.435328	2555.008004
539.795497	2552.157231
540.155609	2553.843497
540.515665	2550.725544
540.875665	2551.648075
541.235609	2549.795451
541.595496	2554.282078
541.955328	2553.866183
542.315102	2553.125133
542.674821	2552.636141
543.034483	2555.441543
543.394090	2552.641182
543.753640	2556.106975
544.113134	2552.799978
544.472571	2554.070349
544.831953	2554.191337
545.191278	2553.631769
545.550548	2551.842159
545.909761	2552.762170
546.268918	2553.266285
546.628019	2554.135884
546.987064	2553.334341
547.346053	2551.970709
547.704986	2552.374001
548.063863	2552.132026
548.422684	2554.037582
548.781449	2551.837118
549.140158	2554.236707
549.498811	2554.203940
549.857408	2551.801830
550.215949	2553.881306
550.574434	2548.653629
550.932864	2553.125133
551.291237	2546.609442
551.649555	2554.345092
552.007817	2551.912735
552.366022	2553.664536
552.724173	2553.092365
553.082267	2551.615307
553.440305	2551.186809
553.798288	2555.307953
554.156215	2551.169165
554.514086	2554.927345
554.871902	2553.125133
555.229661	2552.341233
555.587365	2553.982129
555.945014	2553.205791
556.302606	2553.354505
556.660143	2553.346944
557.017625	2553.326779
557.375050	2555.814588
557.732421	2552.951213
558.089735	2554.087993
558.446994	2552.618497
558.804197	2555.020607
559.161345	2554.103117
559.518437	2550.793599
559.875474	2552.767211
560.232455	2553.916594
560.589381	2554.556821
560.946251	2554.075390
561.303065	2552.555483
561.659825	2553.326779
562.016528	2554.410627
562.373177	2550.874258
562.729770	2554.720658
563.086307	2553.563713
563.442789	2555.479352
563.799216	2553.147818
564.155587	2554.443395
564.511904	2554.771070
564.868164	2552.648744
565.224370	2551.816953
565.580520	2552.157231
565.936615	2552.215205
566.292654	2551.988353
566.648638	2554.526574
567.004567	2552.401727
567.360441	2555.809547
567.716260	2552.079093
568.072023	2553.283929
568.427732	2545.402085
568.783385	2551.053219
569.138982	2548.464586
569.494525	2550.223949
569.850013	2552.631100
570.205445	2554.042623
570.560823	2553.961964
570.916145	2552.275698
571.271412	2554.254351
571.626625	2555.895247
571.981782	2553.185627
572.336884	2553.422561
572.691931	2553.162942
573.046923	2552.028682
573.401860	2553.437684
573.756743	2552.003476
574.111570	2553.485575
574.466342	2553.465411
574.821059	2551.610266
575.175722	2554.876934
575.530330	2552.893240
575.884882	2554.614794
576.239380	2557.430278
576.593823	2555.040771
576.948211	2552.794937
577.302544	2556.149825
577.656823	2555.083621
578.011047	2555.156718
578.365216	2551.678322
578.719330	2555.252500
579.073389	2554.413148
579.427394	2554.007335
579.781344	2554.077911
580.135239	2553.783003
580.489080	2554.912222
580.842866	2555.126471
581.196597	2554.045143
581.550273	2552.099258
581.903895	2549.891233
582.257463	2552.631100
582.610975	2551.479196
582.964434	2553.379711
583.317837	2553.916594
583.671186	2554.398024
584.024481	2554.788714
584.377721	2554.836605
584.730906	2554.468600
585.084037	2554.282078
585.437113	2553.019269
585.790135	2555.812068
586.143103	2557.074877
586.496016	2556.573282
586.848874	2551.632951
587.201679	2553.656975
587.554428	2549.513146
587.907124	2552.285781
588.259765	2548.764535
588.612352	2553.273847
588.964884	2552.426933
589.317362	2555.905329
589.669786	2555.509599
590.022155	2552.580688
590.374470	2554.024979
590.726731	2553.344423
591.078937	2552.396686
591.431090	2553.450287
591.783188	2553.709907
592.135232	2555.534804
592.487222	2554.035061
592.839157	2554.335010
593.191038	2554.637479
593.542866	2555.474311
593.894639	2551.453990
594.246358	2556.802655
594.598022	2553.147818
594.949633	2554.014897
595.301190	2555.489434
595.652692	2551.184289
596.004141	2553.639331
596.355535	2554.156049
596.706876	2552.905843
597.058162	2557.304249
597.409395	2551.774104
597.760573	2555.227294
598.111698	2555.249979
598.462768	2555.807027
598.813785	2551.385935
599.164748	2555.189485
599.515657	2554.829043
599.866511	2555.998591
600.217312	2553.072201
600.568060	2556.969013
600.918753	2554.942469
601.269392	2554.304763
601.619978	2553.034392
601.970510	2554.450956
602.320988	2554.985319
602.671412	2555.260062
603.021783	2553.967006
603.372100	2550.927190
603.722363	2554.733261
604.072572	2555.771739
604.422728	2556.265772
604.772830	2550.667570
605.122878	2551.330482
605.472872	2553.155380
605.822813	2551.456511
606.172701	2554.231666
606.522534	2555.915412
606.872314	2554.866852
607.222041	2554.967675
607.571714	2555.370967
607.921333	2554.090514
608.270899	2554.163611
608.620411	2556.548076
608.969870	2551.688404
609.319276	2557.899106
609.668627	2555.827191
610.017926	2559.161915
610.367171	2561.851370
610.716362	2561.228788
611.065500	2561.359858
611.414585	2558.292316
611.763616	2559.348437
612.112594	2556.989177
612.461518	2556.200237
612.810389	2555.411296
613.159207	2555.466749
613.507971	2553.367108
613.856682	2558.292316
614.205340	2554.602191
614.553945	2555.882644
614.902496	2556.243087
615.250994	2553.561193
615.599439	2555.496996
615.947830	2555.297870
616.296169	2554.733261
616.644454	2553.392314
616.992686	2555.849877
617.340864	2555.975905
617.688990	2553.291491
618.037063	2554.191337
618.385082	2554.692932
618.733048	2555.945658
619.080961	2556.101934
619.428821	2556.500185
619.776628	2553.641851
620.124382	2555.355843
620.472083	2554.705535
620.819731	2555.406255
621.167326	2551.680842
621.514868	2553.165462
621.862357	2555.318035
622.209793	2552.174875
622.557176	2553.997253
622.904506	2553.160421
623.251783	2551.259906
623.599007	2552.126984
623.946179	2550.700338
624.293297	2552.263096
624.640363	2554.496327
624.987376	2553.150339
625.334336	2553.611604
625.681243	2552.220246
626.028097	2554.798796
626.374899	2555.766698
626.721647	2556.474980
627.068343	2554.158569
627.414987	2556.575803
627.761577	2551.353167
628.108115	2552.043805
628.454600	2554.629917
628.801032	2556.101934
629.147412	2555.973385
629.493739	2553.931718
629.840014	2554.453477
630.186236	2551.897612
630.532405	2554.443395
630.878521	2553.573796
631.224585	2553.510781
631.570597	2554.660164
631.916556	2555.325597
632.262462	2553.001625
632.608316	2552.996583
632.954117	2551.895091
633.299866	2555.680998
633.645562	2552.724361
633.991206	2555.444064
634.336797	2555.733930
634.682336	2552.376522
635.027823	2552.278219
635.373257	2554.634958
635.718639	2553.215874
636.063968	2553.233518
636.409245	2552.638662
636.754470	2555.126471
637.099642	2554.924825
637.444762	2553.838456
637.789829	2552.227808
638.134845	2554.113199
638.479808	2554.324927
638.824719	2552.850390
639.169577	2552.431974
639.514383	2551.728733
639.859137	2553.783003
640.203839	2554.206460
640.548489	2553.246121
640.893086	2549.782848
641.237632	2549.286294
641.582125	2552.179917
641.926566	2550.292004
642.270955	2552.426933
642.615292	2550.773435
642.959576	2551.706048
643.303809	2555.035730
643.647990	2555.121430
643.992118	2552.678991
644.336195	2552.865513
