Dividing Wavelength (nm)	Counts (n)	Blue Motor Position (mm): 44.000000	Red Motor Position (mm): 0.000000	
326.493990	2260.844074
326.888308	2260.844074
327.282561	2260.844074
327.676750	2223.514330
328.070874	2221.787735
328.464933	2220.315718
328.858929	2225.220760
329.252859	2231.363406
329.646726	2237.213665
330.040528	2249.440984
330.434265	2261.703591
330.827938	2281.777465
331.221547	2299.643315
331.615091	2316.037147
332.008571	2335.375013
332.401986	2353.951665
332.795338	2374.209542
333.188625	2393.217212
333.581847	2414.674884
333.975006	2431.706422
334.368100	2450.635955
334.761129	2469.492391
335.154095	2484.376397
335.546996	2513.415964
335.939833	2552.356357
336.332606	2568.684654
336.725315	2578.935841
337.117960	2595.448140
337.510540	2605.805191
337.903056	2615.050667
338.295508	2626.622635
338.687896	2632.835857
339.080220	2638.572691
339.472480	2646.404123
339.864676	2650.873106
340.256807	2656.804023
340.648875	2662.324087
341.040879	2661.305774
341.432818	2669.031342
341.824694	2669.235509
342.216506	2668.522186
342.608253	2670.160561
342.999937	2671.635098
343.391557	2671.998061
343.783113	2670.702485
344.174605	2667.665189
344.566033	2669.323729
344.957397	2669.084274
345.348697	2667.768533
345.739934	2665.479849
346.131106	2663.027328
346.522215	2662.923984
346.913260	2661.164622
347.304241	2658.200423
347.695159	2655.579023
348.086012	2654.898467
348.476802	2653.285298
348.867528	2647.228352
349.258191	2645.053094
349.648789	2644.808598
350.039324	2643.099647
350.429796	2645.421098
350.820203	2642.867754
351.210548	2644.538896
351.600828	2641.393216
351.991045	2640.281642
352.381198	2641.294914
352.771288	2642.847589
353.161314	2636.878863
353.551276	2639.734677
353.941175	2637.962711
354.331010	2640.594193
354.720782	2638.371044
355.110490	2639.341467
355.500135	2639.976652
355.889717	2639.293576
356.279235	2637.259470
356.668689	2638.413894
357.058080	2638.408853
357.447408	2639.328864
357.836672	2640.284162
358.225873	2639.490181
358.615010	2640.410191
359.004084	2640.032105
359.393095	2641.912455
359.782043	2643.013947
360.170927	2644.327168
360.559748	2642.063690
360.948505	2646.053763
361.337199	2647.344298
361.725830	2645.421098
362.114398	2648.801192
362.502903	2646.247847
362.891344	2647.704741
363.279722	2647.939154
363.668037	2648.135759
364.056289	2652.818991
364.444478	2651.283960
364.832603	2653.174393
365.220665	2652.050215
365.608665	2654.114568
365.996601	2655.768066
366.384474	2654.807727
366.772284	2654.089362
367.160031	2655.697490
367.547715	2653.028199
367.935336	2655.213539
368.322893	2655.309321
368.710388	2653.058446
369.097820	2656.017603
369.485189	2652.070380
369.872495	2658.318890
370.259738	2657.686225
370.646918	2658.417193
371.034035	2659.458191
371.421090	2660.070691
371.808081	2657.045999
372.195010	2663.183604
372.581875	2659.251504
372.968678	2660.370640
373.355418	2662.593789
373.742096	2661.227636
374.128710	2665.094201
374.515262	2665.815086
374.901751	2665.323573
375.288177	2667.909685
375.674540	2667.148471
376.060841	2668.766682
376.447079	2668.428924
376.833254	2674.659790
377.219367	2674.891683
377.605417	2680.273115
377.991404	2685.087417
378.377329	2691.963551
378.763191	2701.377906
379.148991	2714.580688
379.534727	2733.681620
379.920402	2748.144690
380.306013	2766.686054
380.691563	2795.823923
381.077049	2820.639003
381.462474	2848.456090
381.847835	2891.152142
382.233134	2926.480548
382.618371	2958.431382
383.003545	3009.256295
383.388657	3044.919937
383.773706	3101.411107
384.158693	3142.380565
384.543618	3186.215918
384.928480	3243.433014
385.313280	3303.820996
385.698017	3344.240968
386.082692	3429.645676
386.467305	3459.403607
386.851856	3511.801360
387.236344	3597.611881
387.620770	3646.158192
388.005133	3713.019016
388.389435	3775.098305
388.773674	3810.013336
389.157851	3900.113879
389.541965	3982.438442
389.926018	3977.120024
390.310008	4087.175975
390.693936	4159.685411
391.077802	4203.578738
391.461606	4223.277046
391.845348	4307.602947
392.229027	4376.308833
392.612645	4395.440012
392.996200	4501.178214
393.379694	4576.866098
393.763125	4684.469526
394.146494	4726.847986
394.529801	4797.678718
394.913047	4878.478332
395.296230	4837.962579
395.679351	4953.483140
396.062410	5011.774002
396.445408	4987.899097
396.828343	5053.562646
397.211217	5110.704125
397.594028	4998.452753
397.976778	5120.504128
398.359466	5168.022044
398.742092	5194.747722
399.124656	5108.911995
399.507158	5229.829111
399.889598	5296.634482
400.271977	5422.925468
400.654294	5410.625053
401.036549	5458.332012
401.418742	5378.175145
401.800874	5583.748358
402.182944	5641.807327
402.564952	5747.810189
402.946898	5807.777235
403.328783	5649.893338
403.710606	5668.452346
404.092367	5988.994113
404.474067	6005.221587
404.855705	5913.669192
405.237282	5840.143963
405.618797	6094.344146
406.000250	6073.297329
406.381642	6274.885509
406.762972	6297.056504
407.144240	6361.333736
407.525447	6340.629717
407.906593	6366.803388
408.287677	6522.612850
408.668700	6434.075065
409.049661	6553.187448
409.430560	6578.909936
409.811399	6434.680004
410.192176	6710.289967
410.572891	6719.250618
410.953545	6911.777324
411.334138	6643.247662
411.714669	6819.773746
412.095139	6614.392097
412.475547	6856.138109
412.855894	6926.305930
413.236180	7109.599763
413.616405	6777.770852
413.996568	6998.497773
414.376670	7039.225255
414.756711	6935.490912
415.136691	7032.790222
415.516609	7233.491160
415.896466	7225.614357
416.276262	7424.402177
416.655997	7404.605566
417.035670	7589.046261
417.415283	7934.995444
417.794834	7986.243814
418.174324	7851.466045
418.553753	7771.024353
418.933121	8076.044408
419.312428	8178.039553
419.691674	7953.393135
420.070859	8431.851567
420.449983	8115.594781
420.829045	8473.632650
421.208047	8248.867765
421.586988	8549.282725
421.965867	8576.890604
422.344686	8676.529010
422.723444	8731.172597
423.102141	8084.132939
423.480777	8843.023198
423.859352	8361.968572
424.237866	8980.346750
424.616319	8849.962347
424.994712	9273.537737
425.373044	8827.781270
425.751314	9297.445409
426.129524	9174.315226
426.507673	9272.574876
426.885762	9429.798382
427.263789	9346.296710
427.641756	9279.138459
428.019662	9365.032158
428.397508	9627.905646
428.775292	9293.024317
429.153016	9683.035705
429.530679	9510.842492
429.908282	9535.007263
430.285824	9259.717413
430.663305	9940.605899
431.040726	9394.754802
431.418086	9378.073623
431.795385	9712.367658
432.172624	9799.468715
432.549802	9710.908244
432.926920	9790.195512
433.303977	9659.135594
433.680974	9861.953817
434.057910	9959.762283
434.434786	10031.460094
434.811601	9859.118168
435.188355	10419.996944
435.565050	10163.235856
435.941683	10088.110060
436.318257	10571.292054
436.694770	10728.830632
437.071222	10786.105701
437.447614	10616.990113
437.823946	10532.838132
438.200218	10641.248146
438.576429	10478.817127
438.952580	10722.302338
439.328670	10754.386761
439.704700	10542.373475
440.080670	10533.823678
440.456580	11067.676829
440.832429	10845.505617
441.208218	10446.760430
441.583947	10750.651266
441.959616	10927.505026
442.335224	10734.030582
442.710773	10852.283448
443.086261	11076.133364
443.461689	10341.385191
443.837057	11028.638133
444.212365	11275.243818
444.587612	10905.336552
444.962800	11126.731426
445.337927	10875.001408
445.712995	10523.761535
446.088002	11572.631566
446.462949	11258.837383
446.837837	11229.558361
447.212664	11169.918991
447.587431	11738.422513
447.962139	12490.585352
448.336786	14779.458241
448.711374	15283.122442
449.085901	13095.448196
449.460369	12749.539343
449.834776	12188.524454
450.209124	13106.173251
450.583412	13529.635215
450.957640	14465.356548
451.331808	13518.191796
451.705917	12579.196233
452.079965	11834.774086
452.453954	12752.536308
452.827883	12403.988411
453.201752	12696.647556
453.575562	12223.467212
453.949311	12643.662509
454.323001	12622.353552
454.696632	12852.852749
455.070202	13135.553095
455.443713	13342.860465
455.817164	13838.789016
456.190556	13801.865084
456.563888	14170.212114
456.937160	14319.294156
457.310373	13672.541844
457.683526	13768.951391
458.056619	13299.299855
458.429653	13494.692457
458.802628	12874.776728
459.175542	13280.148511
459.548398	14225.919384
459.921194	14582.515484
460.293930	14665.818031
460.666607	15508.711557
461.039224	16570.859987
461.411782	17292.793547
461.784280	17085.493739
462.156719	17192.383844
462.529099	16859.077876
462.901419	15798.913139
463.273680	15580.452217
463.645882	15462.070801
464.018024	15193.626838
464.390106	15423.614359
464.762130	16127.329189
465.134094	16938.733147
465.505999	18981.670826
465.877845	22250.165937
466.249631	25067.830659
466.621358	24682.328583
466.993026	23264.698148
467.364634	22678.205268
467.736184	21199.218950
468.107674	20404.546581
468.479105	20541.519772
468.850477	19998.786629
469.221790	19600.724518
469.593043	18909.005114
469.964238	18334.101847
470.335373	17981.372312
470.706449	18474.835739
471.077467	18059.971462
471.448425	19929.800959
471.819324	24039.707496
472.190164	25914.394145
472.560945	22253.838417
472.931667	19954.215267
473.302330	19330.919444
473.672934	18944.741853
474.043479	19194.730152
474.413965	19004.040946
474.784393	18598.671683
475.154761	19358.040852
475.525070	19287.189955
475.895321	19000.991048
476.265513	19593.404763
476.635645	20183.975936
477.005719	19943.855696
477.375734	20135.774943
477.745691	20628.842639
478.115588	21154.093062
478.485427	21721.220349
478.855207	22803.281337
479.224928	24597.546458
479.594591	26829.345924
479.964194	26764.052899
480.333739	26973.870763
480.703226	26566.593423
481.072653	26260.701249
481.442022	26885.390952
481.811333	27805.777094
482.180584	27686.722685
482.549777	26728.817754
482.918912	26409.027119
483.287988	26547.207666
483.657005	26176.622365
484.025964	25971.676776
484.394864	25847.389648
484.763706	25501.266546
485.132489	24956.632887
485.501213	25138.084179
485.869879	25056.475460
486.238487	24901.044084
486.607036	25015.241342
486.975527	24759.503607
487.343959	25060.808331
487.712333	24957.668844
488.080648	24621.204592
488.448905	25134.820032
488.817104	24892.116200
489.185244	25604.617761
489.553326	25550.969802
489.921350	26589.664264
490.289315	28947.520303
490.657222	30668.545020
491.025070	31174.477741
491.392861	30913.351013
491.760593	30062.303420
492.128267	29137.954930
492.495883	28078.929495
492.863440	27217.106436
493.230939	26349.377666
493.598380	26198.493411
493.965763	25805.021271
494.333088	25314.451467
494.700354	25273.376145
495.067563	25127.921212
495.434713	24874.489806
495.801805	25051.209974
496.168839	24825.146992
496.535815	24679.036709
496.902733	24921.546456
497.269593	24595.507311
497.636395	24774.788386
498.003139	24700.459093
498.369825	24452.451968
498.736453	24665.743187
499.103023	24535.225193
499.469535	24533.468351
499.835989	24750.646300
500.202385	24777.122440
500.568723	24298.938751
500.935003	24494.361600
501.301226	24179.579351
501.667390	25032.338415
502.033497	25233.724949
502.399546	24958.785460
502.765537	24508.466748
503.131470	24885.456836
503.497345	25026.566294
503.863163	24277.629793
504.228923	24820.113400
504.594625	25058.706170
504.960269	24621.912875
505.325856	25097.601193
505.691385	24488.070240
506.056856	25096.953404
506.422270	25084.405973
506.787625	24617.138902
507.152924	25047.648399
507.518164	25083.203657
507.883347	24888.559666
508.248472	24569.885646
508.613540	25354.069895
508.978550	25148.040457
509.343503	25165.616440
509.708398	25381.728185
510.073236	25534.429776
510.438016	25743.851910
510.802738	25406.891105
511.167403	25675.428329
511.532010	25404.317596
511.896561	26159.542936
512.261053	26120.481555
512.625488	25945.324144
512.989866	25836.788102
513.354186	25677.497722
513.718449	25804.428935
514.082655	26185.061256
514.446803	25906.920634
514.810894	26400.381540
515.174927	25882.007252
515.538904	25906.920634
515.902822	26413.357470
516.266684	26154.728634
516.630488	26072.696458
516.994235	26022.070670
517.357925	26357.912339
517.721558	26500.037590
518.085133	26629.491900
518.448651	26508.403385
518.812112	26282.990711
519.175516	26483.850445
519.538863	26645.701730
519.902152	26434.764730
520.265385	26693.297784
520.628560	26486.741547
520.991678	26476.916338
521.354739	26543.855299
521.717743	26638.560936
522.080690	26405.936892
522.443580	26745.146052
522.806413	26714.044653
523.169189	26838.069640
523.531908	26863.582920
523.894569	26485.612328
524.257174	26584.555055
524.619722	26716.519859
524.982213	26447.801154
525.344647	26468.144730
525.707025	26632.398125
526.069345	26590.743071
526.431608	26560.324749
526.793815	26731.666006
527.155964	26211.562602
527.518057	26396.023463
527.880093	26317.207543
528.242072	26530.521447
528.603995	26267.232064
528.965860	26047.049587
529.327669	26094.612874
529.689421	26078.453455
530.051117	25914.469762
530.412755	26096.478101
530.774337	25872.232454
531.135862	25765.468378
531.497331	25942.937158
531.858743	25535.543871
532.220098	26004.046025
532.581396	25695.751741
532.942638	25599.188439
533.303824	25711.986777
533.664953	25706.451590
534.026025	25371.356011
534.387040	25606.120025
534.747999	25658.169939
535.108902	25819.670864
535.469748	25320.364740
535.830537	25484.020758
536.191270	25622.839012
536.551947	25453.874658
536.912567	25082.979326
537.273131	25511.560582
537.633638	25182.869789
537.994089	25409.222638
538.354483	24910.629838
538.714821	25414.737661
539.075103	25456.632170
539.435328	25236.023716
539.795497	24832.486912
540.155609	25171.403685
540.515665	25481.442208
540.875665	24699.430697
541.235609	25038.594487
541.595496	24958.356962
541.955328	25333.877553
542.315102	25252.215902
542.674821	24769.454845
543.034483	24656.696836
543.394090	24829.021119
543.753640	24639.594722
544.113134	25267.543530
544.472571	24846.269427
544.831953	25148.983153
545.191278	24787.978565
545.550548	24672.528580
545.909761	24878.658840
546.268918	25118.658092
546.628019	25096.567756
546.987064	24784.255672
547.346053	24509.038919
547.704986	24622.258194
548.063863	24785.513440
548.422684	24821.134233
548.781449	24317.084384
549.140158	24724.727207
549.498811	24301.643330
549.857408	24059.413367
550.215949	24449.497851
550.574434	24148.740092
550.932864	24349.773746
551.291237	24527.764285
551.649555	24367.455593
552.007817	24442.704897
552.366022	24291.039263
552.724173	24308.897550
553.082267	24280.601553
553.440305	24766.944350
553.798288	23997.129911
554.156215	24492.970242
554.514086	24621.260045
554.871902	24013.342262
555.229661	24284.722697
555.587365	24128.482216
555.945014	24032.654922
556.302606	24252.363530
556.660143	24236.534307
557.017625	24454.954900
557.375050	23981.782118
557.732421	24361.292783
558.089735	24197.515776
558.446994	24244.895061
558.804197	24280.258755
559.161345	24177.250338
559.518437	23975.243742
559.875474	24147.482324
560.232455	24322.969931
560.589381	24152.364682
560.946251	24148.230936
561.303065	24457.455313
561.659825	24553.022987
562.016528	24146.239680
562.373177	23878.544328
562.729770	24253.026442
563.086307	24092.816052
563.442789	24256.923254
563.799216	24114.203147
564.155587	24094.335960
564.511904	24095.061886
564.868164	24025.607389
565.224370	23998.496064
565.580520	23929.838069
565.936615	24054.044538
566.292654	23754.854578
566.648638	23993.651515
567.004567	23830.955836
567.360441	23779.843577
567.716260	23509.418441
568.072023	23821.483508
568.427732	23603.569551
568.783385	23368.220763
569.138982	23615.499441
569.494525	23645.519512
569.850013	23400.053129
570.205445	23500.971988
570.560823	23319.699657
570.916145	23078.666968
571.271412	23258.341253
571.626625	23005.471935
571.981782	23130.394248
572.336884	22933.499382
572.691931	23068.529208
573.046923	22812.151247
573.401860	22675.346934
573.756743	22708.794990
574.111570	22593.395417
574.466342	22511.975741
574.821059	22594.010438
575.175722	22307.589720
575.530330	22278.744238
575.884882	22286.749590
576.239380	22206.207075
576.593823	22096.869489
576.948211	22071.121796
577.302544	21922.921955
577.656823	21794.559055
578.011047	21897.020507
578.365216	21766.563007
578.719330	21631.376905
579.073389	21514.263339
579.427394	21683.935975
579.781344	21436.604364
580.135239	21321.792085
580.489080	21271.791401
580.842866	21055.931714
581.196597	21271.713263
581.550273	21223.361036
581.903895	21101.443251
582.257463	21414.476219
582.610975	20953.805499
582.964434	21277.306423
583.317837	20948.043460
583.671186	21042.358407
584.024481	21020.951147
584.377721	20787.268461
584.730906	20881.485106
585.084037	20859.813185
585.437113	20791.681991
585.790135	20987.760190
586.143103	20448.691966
586.496016	20472.453444
586.848874	20707.499763
587.201679	20613.759507
587.554428	20320.228242
587.907124	20651.858027
588.259765	20406.283259
588.612352	20477.751697
588.964884	20049.853517
589.317362	20222.528160
589.669786	20287.039806
590.022155	20285.348499
590.374470	20523.626197
590.726731	20281.038312
591.078937	20082.903322
591.431090	20155.395114
591.783188	19920.691594
592.135232	19885.655575
592.487222	19988.633745
592.839157	19994.176494
593.191038	19870.345591
593.542866	19756.808724
593.894639	19465.165371
594.246358	19687.765081
594.598022	19570.744776
594.949633	19334.458334
595.301190	19312.370518
595.652692	19484.581375
596.004141	19695.220947
596.355535	19029.037508
596.706876	19056.660510
597.058162	18951.128995
597.409395	19187.952321
597.760573	19235.739939
598.111698	19008.315845
598.462768	18957.493452
598.813785	18928.597558
599.164748	18715.959168
599.515657	18780.667419
599.866511	18573.659998
600.217312	18930.747610
600.568060	18445.213919
600.918753	18756.127082
601.269392	18650.996339
601.619978	18455.510476
601.970510	18634.695768
602.320988	18582.045958
602.671412	18780.657337
603.021783	18712.758036
603.372100	18421.651566
603.722363	18584.075022
604.072572	18525.327936
604.422728	18677.321245
604.772830	18423.957894
605.122878	18380.271254
605.472872	18365.803143
605.822813	18352.386112
606.172701	18339.236262
606.522534	18505.501078
606.872314	18547.498930
607.222041	18375.335965
607.571714	18589.269931
607.921333	18413.651255
608.270899	18492.681423
608.620411	18650.497265
608.969870	18446.915308
609.319276	18434.640099
609.668627	18470.313824
610.017926	18601.623279
610.367171	18714.812306
610.716362	18777.683056
611.065500	18579.873220
611.414585	18727.833606
611.763616	18713.045382
612.112594	18647.165062
612.461518	18614.324466
612.810389	18803.556778
613.159207	18668.874792
613.507971	18578.383559
613.856682	18836.104988
614.205340	18759.169419
614.553945	18916.092976
614.902496	18656.236619
615.250994	18870.324340
615.599439	18829.143155
615.947830	18816.205033
616.296169	18894.388288
616.644454	18839.248147
616.992686	18807.660277
617.340864	19029.339977
617.688990	18781.524415
618.037063	18939.554506
618.385082	18806.195822
618.733048	19079.282688
619.080961	18966.499473
619.428821	18995.718001
619.776628	18869.580770
620.124382	18803.753383
620.472083	18858.923771
620.819731	18869.474906
621.167326	18556.827586
621.514868	18601.134287
621.862357	18376.576089
622.209793	18388.206031
622.557176	18207.846149
622.904506	18050.050472
623.251783	17983.469432
623.599007	17711.234522
623.946179	17663.020926
624.293297	17591.103826
624.640363	17323.738670
624.987376	17354.106580
625.334336	17148.843399
625.681243	16997.366808
626.028097	17012.328953
626.374899	16932.315759
626.721647	16793.973894
627.068343	16636.079915
627.414987	16573.877117
627.761577	16537.381684
628.108115	16567.573154
628.454600	16299.724048
628.801032	16398.923873
629.147412	16339.760892
629.493739	16349.243302
629.840014	16156.116698
630.186236	16250.161944
630.532405	16008.688154
630.878521	16207.070161
631.224585	16119.142355
631.570597	15935.601505
631.916556	15966.183665
632.262462	15936.813903
632.608316	15858.292891
632.954117	15808.604758
633.299866	15787.873013
633.645562	15706.765888
633.991206	15476.735518
634.336797	15344.049828
634.682336	15308.035825
635.027823	15179.249467
635.373257	15049.928748
635.718639	14972.214320
636.063968	14909.368776
