Dividing Wavelength (nm)	Counts (n)	Blue Motor Position (mm): 23.300000	Red Motor Position (mm): 0.000000	
326.493990	2134.003602
326.888308	2134.003602
327.282561	2134.003602
327.676750	2101.949425
328.070874	2100.714343
328.464933	2101.962028
328.858929	2110.045518
329.252859	2119.704369
329.646726	2131.979579
330.040528	2141.908131
330.434265	2158.990081
330.827938	2175.812412
331.221547	2194.999043
331.615091	2214.142825
332.008571	2236.003788
332.401986	2253.226891
332.795338	2270.697009
333.188625	2290.738116
333.581847	2310.582618
333.975006	2327.646924
334.368100	2346.825994
334.761129	2365.357276
335.154095	2380.747918
335.546996	2406.069634
335.939833	2422.675195
336.332606	2439.457196
336.725315	2452.236521
337.117960	2458.623663
337.510540	2468.779067
337.903056	2478.745428
338.295508	2487.625421
338.687896	2496.825527
339.080220	2505.120745
339.472480	2512.248937
339.864676	2515.492919
340.256807	2519.157838
340.648875	2523.052130
341.040879	2523.427696
341.432818	2530.268541
341.824694	2528.771319
342.216506	2529.502286
342.608253	2530.815507
342.999937	2527.926925
343.391557	2526.275948
343.783113	2526.638911
344.174605	2526.777542
344.566033	2524.846780
344.957397	2526.359127
345.348697	2521.474248
345.739934	2521.091121
346.131106	2518.406706
346.522215	2517.529546
346.913260	2515.687004
347.304241	2515.129956
347.695159	2510.872702
348.086012	2510.038391
348.476802	2507.848010
348.867528	2508.621827
349.258191	2505.327433
349.648789	2503.124448
350.039324	2499.368789
350.429796	2501.609582
350.820203	2501.062617
351.210548	2498.186638
351.600828	2494.400732
351.991045	2496.938953
352.381198	2496.926350
352.771288	2498.637822
353.161314	2496.729745
353.551276	2496.008860
353.941175	2496.460043
354.331010	2496.097080
354.720782	2495.524909
355.110490	2497.107831
355.500135	2495.729076
355.889717	2495.275372
356.279235	2496.079436
356.668689	2496.563387
357.058080	2494.980464
357.447408	2494.052892
357.836672	2490.675319
358.225873	2497.458192
358.615010	2495.877790
359.004084	2497.233860
359.393095	2495.754282
359.782043	2499.124293
360.170927	2499.908192
360.559748	2498.249653
360.948505	2502.443893
361.337199	2500.248470
361.725830	2500.066989
362.114398	2503.416835
362.502903	2502.272493
362.891344	2503.958759
363.279722	2503.522700
363.668037	2503.590755
364.056289	2505.398009
364.444478	2505.924809
364.832603	2507.721981
365.220665	2506.887670
365.608665	2506.953205
365.996601	2505.811383
366.384474	2508.639471
366.772284	2507.553102
367.160031	2506.769203
367.547715	2506.219717
367.935336	2508.548730
368.322893	2509.168792
368.710388	2506.010509
369.097820	2511.170130
369.485189	2510.224914
369.872495	2510.154338
370.259738	2508.606703
370.646918	2509.753566
371.034035	2511.298679
371.421090	2510.580315
371.808081	2511.538134
372.195010	2512.644667
372.581875	2512.231293
372.968678	2510.603000
373.355418	2510.492095
373.742096	2513.007631
374.128710	2510.474451
374.515262	2508.730212
374.901751	2512.947137
375.288177	2514.507374
375.674540	2512.475789
376.060841	2515.928979
376.447079	2513.451252
376.833254	2513.650378
377.219367	2510.940758
377.605417	2512.984945
377.991404	2512.564009
378.377329	2509.990500
378.763191	2512.085099
379.148991	2516.107940
379.534727	2514.467045
379.920402	2513.148783
380.306013	2514.724143
380.691563	2516.659947
381.077049	2514.595594
381.462474	2515.422343
381.847835	2517.486696
382.233134	2514.280522
382.618371	2517.998373
383.003545	2517.640451
383.388657	2519.094824
383.773706	2516.296983
384.158693	2516.796058
384.543618	2517.166583
384.928480	2518.658764
385.313280	2517.285050
385.698017	2518.260513
386.082692	2519.787982
386.467305	2519.067098
386.851856	2521.507016
387.236344	2519.908970
387.620770	2521.524660
388.005133	2520.213960
388.389435	2521.050792
388.773674	2519.369567
389.157851	2519.165400
389.541965	2520.486182
389.926018	2521.698580
390.310008	2521.570030
390.693936	2522.661440
391.077802	2522.215298
391.461606	2523.478107
391.845348	2522.558097
392.229027	2523.473066
392.612645	2524.435926
392.996200	2525.605474
393.379694	2524.274609
393.763125	2523.233611
394.146494	2522.653878
394.529801	2527.957172
394.913047	2523.704959
395.296230	2522.815195
395.679351	2524.569517
396.062410	2524.849301
396.445408	2524.360309
396.828343	2525.282840
397.211217	2522.142201
397.594028	2522.532891
397.976778	2522.769825
398.359466	2521.242355
398.742092	2521.847294
399.124656	2526.018849
399.507158	2525.655886
399.889598	2528.131092
400.271977	2527.168232
400.654294	2527.405166
401.036549	2528.647810
401.418742	2530.777698
401.800874	2529.096473
402.182944	2530.082019
402.564952	2528.736031
402.946898	2528.413397
403.328783	2529.547656
403.710606	2531.783408
404.092367	2529.898017
404.474067	2529.353572
404.855705	2527.909281
405.237282	2527.884076
405.618797	2529.388860
406.000250	2527.833664
406.381642	2528.897347
406.762972	2532.093439
407.144240	2527.846267
407.525447	2532.663089
407.906593	2527.117820
408.287677	2531.619571
408.668700	2529.691329
409.049661	2531.299457
409.430560	2527.016997
409.811399	2531.591844
410.192176	2529.890455
410.572891	2531.876669
410.953545	2531.566638
411.334138	2530.228212
411.714669	2531.405322
412.095139	2531.755682
412.475547	2527.264014
412.855894	2532.748789
413.236180	2533.908254
413.616405	2534.029242
413.996568	2531.838861
414.376670	2534.515713
414.756711	2534.369520
415.136691	2534.004036
415.516609	2534.855991
415.896466	2533.517565
416.276262	2535.634850
416.655997	2531.276772
417.035670	2529.961031
417.415283	2532.259797
417.794834	2530.583613
418.174324	2533.941022
418.553753	2533.696526
418.933121	2537.842875
419.312428	2538.815818
419.691674	2533.880528
420.070859	2537.185004
420.449983	2536.514531
420.829045	2535.634850
421.208047	2535.652494
421.586988	2536.159130
421.965867	2539.476209
422.344686	2536.373379
422.723444	2537.704243
423.102141	2537.225334
423.480777	2535.864222
423.859352	2538.510828
424.237866	2538.276414
424.616319	2538.515869
424.994712	2538.699871
425.373044	2537.769778
425.751314	2538.722556
426.129524	2539.100643
426.507673	2538.208359
426.885762	2537.560570
427.263789	2540.328164
427.641756	2536.098636
428.019662	2539.977804
428.397508	2540.184491
428.775292	2539.035108
429.153016	2539.713143
429.530679	2541.119625
429.908282	2537.210210
430.285824	2538.336908
430.663305	2539.163657
431.040726	2538.349511
431.418086	2537.376568
431.795385	2541.729605
432.172624	2542.117773
432.549802	2541.333874
432.926920	2539.597197
433.303977	2541.747249
433.680974	2540.204656
434.057910	2542.631971
434.434786	2540.093750
434.811601	2539.632485
435.188355	2542.049718
435.565050	2542.881508
435.941683	2542.664739
436.318257	2538.772968
436.694770	2540.219779
437.071222	2540.149203
437.447614	2538.354552
437.823946	2537.784902
438.200218	2543.710778
438.576429	2543.010058
438.952580	2541.432177
439.328670	2545.147507
439.704700	2543.032743
440.080670	2544.477033
440.456580	2543.264636
440.832429	2545.903680
441.208218	2542.747918
441.583947	2545.412168
441.959616	2544.724050
442.335224	2545.586087
442.710773	2544.406457
443.086261	2543.768751
443.461689	2545.467620
443.837057	2545.974256
444.212365	2545.724719
444.587612	2545.475182
444.962800	2546.251520
445.337927	2546.871582
445.712995	2546.483413
446.088002	2547.027857
446.462949	2548.850234
446.837837	2543.960315
447.212664	2547.539534
447.587431	2546.780841
447.962139	2547.842004
448.336786	2549.003990
448.711374	2549.339226
449.085901	2550.866696
449.460369	2547.703372
449.834776	2546.851417
450.209124	2547.027857
450.583412	2549.452652
450.957640	2546.743032
451.331808	2548.946016
451.705917	2548.315872
452.079965	2551.000287
452.453954	2550.415513
452.827883	2550.886861
453.201752	2552.099258
453.575562	2552.757129
453.949311	2553.203271
454.323001	2551.327962
454.696632	2550.347457
455.070202	2553.120092
455.443713	2555.827191
455.817164	2550.584391
456.190556	2550.702858
456.563888	2553.649413
456.937160	2549.868547
457.310373	2558.002449
457.683526	2557.483210
458.056619	2556.008673
458.429653	2557.526060
458.802628	2559.640824
459.175542	2558.781307
459.548398	2558.720814
459.921194	2562.219374
460.293930	2564.119889
460.666607	2567.568039
461.039224	2571.790005
461.411782	2573.317475
461.784280	2573.632547
462.156719	2575.966601
462.529099	2579.155131
462.901419	2579.402147
463.273680	2584.264340
463.645882	2584.334916
464.018024	2587.483117
464.390106	2593.666092
464.762130	2598.760178
465.134094	2613.026643
465.505999	2634.083543
465.877845	2658.530619
466.249631	2673.369255
466.621358	2671.829182
466.993026	2672.895387
467.364634	2675.073165
467.736184	2676.852692
468.107674	2682.778569
468.479105	2692.228212
468.850477	2695.474715
469.221790	2702.071064
469.593043	2702.605427
469.964238	2712.337374
470.335373	2721.187120
470.706449	2734.473081
471.077467	2747.930441
471.448425	2809.883701
471.819324	2863.382946
472.190164	2878.776110
472.560945	2845.030626
472.931667	2833.201558
473.302330	2841.153978
473.672934	2840.425532
474.043479	2876.348794
474.413965	2887.845145
474.784393	2906.474729
475.154761	2932.250149
475.525070	2958.875003
475.895321	2967.608802
476.265513	3002.044924
476.635645	3037.753937
477.005719	3070.163515
477.375734	3103.717435
477.745691	3145.143117
478.115588	3193.641538
478.485427	3247.778489
478.855207	3339.439269
479.224928	3476.422542
479.594591	3579.796443
479.964194	3597.601798
480.333739	3618.512504
480.703226	3662.201664
481.072653	3724.913618
481.442022	3825.550172
481.811333	3895.090369
482.180584	3917.551230
482.549777	3932.956996
482.918912	3958.470276
483.287988	4024.690873
483.657005	4078.217844
484.025964	4086.359308
484.394864	4157.520235
484.763706	4217.530131
485.132489	4221.812591
485.501213	4278.031539
485.869879	4342.764995
486.238487	4394.071338
486.607036	4462.373932
486.975527	4491.794106
487.343959	4593.138942
487.712333	4680.779402
488.080648	4720.531420
488.448905	4810.551305
488.817104	4853.262481
489.185244	4998.019213
489.553326	5123.997648
489.921350	5363.437332
490.289315	5769.761894
490.657222	5949.136230
491.025070	6018.197517
491.392861	6058.922478
491.760593	6028.801584
492.128267	5998.993242
492.495883	5966.568540
492.863440	5930.262150
493.230939	5895.405092
493.598380	5946.305622
493.965763	5989.442776
494.333088	6008.130333
494.700354	6069.491258
495.067563	6156.229351
495.434713	6169.038923
495.801805	6302.634541
496.168839	6344.821437
496.535815	6405.877371
496.902733	6473.602753
497.269593	6532.566609
497.636395	6647.867879
498.003139	6736.897177
498.369825	6728.365024
498.736453	6895.575056
499.103023	6923.944149
499.469535	7022.846547
499.835989	7087.675785
500.202385	7152.578120
500.568723	7140.522201
500.935003	7325.114131
501.301226	7323.155643
501.667390	7528.693568
502.033497	7674.660177
502.399546	7656.600243
502.765537	7681.115375
503.131470	7800.988972
503.497345	7988.983681
503.863163	7801.856050
504.228923	8083.028927
504.594625	8192.676543
504.960269	8098.404446
505.325856	8312.058628
505.691385	8241.621106
506.056856	8405.927433
506.422270	8503.761106
506.787625	8481.121284
507.152924	8634.851271
507.518164	8678.500101
507.883347	8690.462759
508.248472	8686.833129
508.613540	8921.808871
508.978550	8899.002691
509.343503	8938.086757
509.708398	9085.447246
510.073236	9231.423938
510.438016	9292.754615
510.802738	9309.445876
511.167403	9407.188808
511.532010	9383.659222
511.896561	9614.644891
512.261053	9724.504236
512.625488	9676.061268
512.989866	9706.497235
513.354186	9752.117157
513.718449	9715.856137
514.082655	9923.090410
514.446803	9884.757476
514.810894	10028.140494
515.174927	9961.602305
515.538904	10031.364312
515.902822	10206.463750
516.266684	10136.472370
516.630488	10129.802923
516.994235	10212.921468
517.357925	10309.701539
517.721558	10423.742522
518.085133	10470.272372
518.448651	10517.442448
518.812112	10434.981774
519.175516	10493.040743
519.538863	10634.185489
519.902152	10581.460061
520.265385	10765.010993
520.628560	10706.029493
520.991678	10718.665145
521.354739	10803.734616
521.717743	10764.038050
522.080690	10770.581468
522.443580	10925.589387
522.806413	10902.397559
523.169189	10958.866044
523.531908	11032.096365
523.894569	10888.526824
524.257174	10914.070351
524.619722	11042.561800
524.982213	10998.018165
525.344647	11072.198744
525.707025	11045.042048
526.069345	11145.421503
526.431608	11089.182391
526.793815	11204.400483
527.155964	11010.865546
527.518057	11082.291134
527.880093	11042.962572
528.242072	11122.272525
528.603995	11045.478108
528.965860	10974.954886
529.327669	11030.253823
529.689421	10998.582774
530.051117	10975.431275
530.412755	11089.928482
530.774337	10987.335960
531.135862	10974.206275
531.497331	11001.252065
531.858743	10867.288443
532.220098	11032.872703
532.581396	10917.374827
532.942638	10903.206664
533.303824	10871.195337
533.664953	10893.363811
534.026025	10820.322533
534.387040	10912.121945
534.747999	10923.648543
535.108902	10980.190124
535.469748	10746.565411
535.830537	10860.077072
536.191270	10838.584113
536.551947	10868.337003
536.912567	10854.715805
537.273131	10791.141814
537.633638	10776.194793
537.994089	10767.559296
538.354483	10723.842410
538.714821	10866.665860
539.075103	10878.522654
539.435328	10846.649959
539.795497	10670.098669
540.155609	10831.733185
540.515665	10913.299054
540.875665	10657.634416
541.235609	10728.959181
541.595496	10724.621268
541.955328	10882.744621
542.315102	10772.640779
542.674821	10724.709489
543.034483	10720.137162
543.394090	10726.587318
543.753640	10652.000927
544.113134	10874.308250
544.472571	10732.588812
544.831953	10868.326921
545.191278	10683.142655
545.550548	10712.643487
545.909761	10848.250525
546.268918	10827.042391
546.628019	10906.584237
546.987064	10778.594382
547.346053	10694.550786
547.704986	10792.770107
548.063863	10787.325661
548.422684	10775.990626
548.781449	10688.685403
549.140158	10800.077259
549.498811	10671.953814
549.857408	10535.928359
550.215949	10758.613769
550.574434	10612.977355
550.932864	10711.458816
551.291237	10761.560323
551.649555	10725.221166
552.007817	10733.934800
552.366022	10701.989008
552.724173	10687.145331
553.082267	10670.983392
553.440305	10812.395319
553.798288	10611.182704
554.156215	10764.325396
554.514086	10743.966696
554.871902	10585.568601
555.229661	10626.394386
555.587365	10605.065264
555.945014	10502.770170
556.302606	10621.378438
556.660143	10523.489312
557.017625	10677.226861
557.375050	10569.668802
557.732421	10706.210975
558.089735	10617.153951
558.446994	10622.064035
558.804197	10659.436629
559.161345	10658.383027
559.518437	10506.533391
559.875474	10595.131670
560.232455	10621.312903
560.589381	10576.965872
560.946251	10567.546476
561.303065	10680.581748
561.659825	10611.938877
562.016528	10550.358662
562.373177	10428.508933
562.729770	10541.592096
563.086307	10461.115116
563.442789	10544.987313
563.799216	10430.532956
564.155587	10478.164298
564.511904	10433.161918
564.868164	10423.898797
565.224370	10440.660634
565.580520	10364.682884
565.936615	10367.669767
566.292654	10239.755530
566.648638	10368.224294
567.004567	10322.914404
567.360441	10308.335387
567.716260	10229.030475
568.072023	10308.884872
568.427732	10262.082800
568.783385	10174.243215
569.138982	10243.508669
569.494525	10261.835784
569.850013	10139.774326
570.205445	10229.862265
570.560823	10118.515780
570.916145	10037.360765
571.271412	10105.948183
571.626625	10048.272342
571.981782	10021.087920
572.336884	10000.018418
572.691931	10003.751392
573.046923	9954.743815
573.401860	9904.168439
573.756743	9845.444038
574.111570	9890.769052
574.466342	9866.538746
574.821059	9900.105269
575.175722	9798.273961
575.530330	9797.394280
575.884882	9792.340523
576.239380	9725.172189
576.593823	9698.887613
576.948211	9716.014933
577.302544	9595.538918
577.656823	9612.696485
578.011047	9613.606413
578.365216	9588.279657
578.719330	9510.164457
579.073389	9522.787506
579.427394	9468.466553
579.781344	9444.959653
580.135239	9398.379391
580.489080	9406.513293
580.842866	9307.010998
581.196597	9310.176843
581.550273	9352.973718
581.903895	9321.040529
582.257463	9390.038802
582.610975	9260.256817
582.964434	9290.987691
583.317837	9211.276966
583.671186	9189.211836
584.024481	9191.989512
584.377721	9109.382644
584.730906	9086.717616
585.084037	9120.949572
585.437113	9054.126557
585.790135	9074.326460
586.143103	8976.137386
586.496016	8945.845093
586.848874	9002.898351
587.201679	8992.747988
587.554428	8878.553251
587.907124	8925.279706
588.259765	8894.417762
588.612352	8900.441941
588.964884	8774.539123
589.317362	8793.408162
589.669786	8785.727964
590.022155	8840.308537
590.374470	8852.094755
590.726731	8794.532339
591.078937	8648.081779
591.431090	8755.067667
591.783188	8633.505283
592.135232	8626.293912
592.487222	8624.272409
592.839157	8673.017847
593.191038	8604.760623
593.542866	8554.918735
593.894639	8456.928787
594.246358	8505.013833
594.598022	8527.262965
594.949633	8423.233715
595.301190	8400.339314
595.652692	8430.130013
596.004141	8528.137606
596.355535	8312.550141
596.706876	8298.853326
597.058162	8228.685505
597.409395	8301.159654
597.760573	8365.625929
598.111698	8278.343391
598.462768	8265.064992
598.813785	8228.536791
599.164748	8196.643932
599.515657	8188.202519
599.866511	8098.104497
600.217312	8218.696459
600.568060	8075.812515
600.918753	8180.575254
601.269392	8155.913929
601.619978	8063.280207
601.970510	8127.345710
602.320988	8123.743806
602.671412	8181.883433
603.021783	8114.034543
603.372100	8089.474042
603.722363	8093.055782
604.072572	8072.119870
604.422728	8084.241324
604.772830	8007.865323
605.122878	8020.770677
605.472872	8015.543000
605.822813	8043.168523
606.172701	7985.817837
606.522534	8058.334835
606.872314	8063.726349
607.222041	8032.146040
607.571714	8080.311745
607.921333	8045.850417
608.270899	8051.657826
608.620411	8138.965570
608.969870	8044.088534
609.319276	8037.519910
609.668627	8055.385760
610.017926	8090.489834
610.367171	8131.073643
610.716362	8114.747867
611.065500	8103.478367
611.414585	8134.065568
611.763616	8120.197354
612.112594	8101.688758
612.461518	8113.409440
612.810389	8173.968822
613.159207	8116.456818
613.507971	8062.004795
613.856682	8181.996859
614.205340	8144.788103
614.553945	8211.641364
614.902496	8114.543700
615.250994	8169.938419
615.599439	8147.633834
615.947830	8164.907347
616.296169	8134.002554
616.644454	8148.730285
616.992686	8147.086869
617.340864	8205.271866
617.688990	8108.895087
618.037063	8199.104015
618.385082	8150.161972
618.733048	8229.050989
619.080961	8167.614447
619.428821	8190.216460
619.776628	8196.704425
620.124382	8153.267323
620.472083	8127.481821
620.819731	8153.640369
621.167326	8050.153042
621.514868	8054.153197
621.862357	7948.598998
622.209793	7968.753531
622.557176	7894.086481
622.904506	7862.208744
623.251783	7806.458624
623.599007	7759.205368
623.946179	7755.636231
624.293297	7720.801858
624.640363	7641.295300
624.987376	7619.146991
625.334336	7569.368117
625.681243	7521.172166
626.028097	7503.399578
626.374899	7480.573233
626.721647	7472.207439
627.068343	7409.535814
627.414987	7373.688169
627.761577	7334.132755
628.108115	7372.518621
628.454600	7268.428877
628.801032	7318.658934
629.147412	7279.113602
629.493739	7265.847806
629.840014	7202.402364
630.186236	7261.444358
630.532405	7142.508415
630.878521	7195.228802
631.224585	7153.427555
631.570597	7073.558034
631.916556	7109.279650
632.262462	7102.776561
632.608316	7063.911786
632.954117	7035.633433
633.299866	7031.534975
633.645562	7024.195055
633.991206	6942.551048
634.336797	6882.329424
634.682336	6841.942220
635.027823	6811.947355
635.373257	6801.401261
635.718639	6734.754687
636.063968	6744.010245
636.409245	6645.659854
636.754470	6635.597711
637.099642	6601.022957
637.444762	6541.045829
637.789829	6549.688888
638.134845	6497.031515
638.479808	6481.184648
638.824719	6483.241439
639.169577	6414.961531
639.514383	6437.016579
639.859137	6363.718202
640.203839	6370.750611
640.548489	6360.358273
640.893086	6330.660835
641.237632	6306.299459
641.582125	6324.432490
641.926566	6297.250588
