Dividing Wavelength (nm)	Counts (n)	Blue Motor Position (mm): 24.100000	Red Motor Position (mm): 0.000000	
326.493990	2195.298992
326.888308	2195.298992
327.282561	2195.298992
327.676750	2153.888433
328.070874	2154.185862
328.464933	2153.873310
328.858929	2158.002015
329.252859	2161.336738
329.646726	2169.999961
330.040528	2184.067301
330.434265	2195.677078
330.827938	2215.816488
331.221547	2232.240567
331.615091	2245.564337
332.008571	2268.252050
332.401986	2287.010183
332.795338	2305.392751
333.188625	2322.303301
333.581847	2343.057732
333.975006	2358.859228
334.368100	2379.495192
334.761129	2397.318191
335.154095	2414.173289
335.546996	2440.203287
335.939833	2475.070427
336.332606	2487.368322
336.725315	2502.353152
337.117960	2514.582991
337.510540	2526.394415
337.903056	2537.235416
338.295508	2547.289997
338.687896	2555.595298
339.080220	2561.006977
339.472480	2568.450241
339.864676	2571.512742
340.256807	2581.237127
340.648875	2582.646130
341.040879	2586.699217
341.432818	2589.388673
341.824694	2593.628283
342.216506	2594.843202
342.608253	2593.260279
342.999937	2594.863366
343.391557	2595.526278
343.783113	2592.516709
344.174605	2594.699529
344.566033	2593.172059
344.957397	2590.737182
345.348697	2587.687284
345.739934	2589.691142
346.131106	2585.902715
346.522215	2586.931111
346.913260	2582.008424
347.304241	2579.384503
347.695159	2579.606314
348.086012	2578.230079
348.476802	2573.254460
348.867528	2570.539799
349.258191	2568.820765
349.648789	2568.485529
350.039324	2565.352452
350.429796	2569.564336
350.820203	2565.037379
351.210548	2566.521999
351.600828	2565.150805
351.991045	2564.205589
352.381198	2562.526885
352.771288	2560.243242
353.161314	2560.669220
353.551276	2560.210475
353.941175	2559.882800
354.331010	2556.991698
354.720782	2560.099569
355.110490	2558.083108
355.500135	2559.000598
355.889717	2558.652758
356.279235	2558.204095
356.668689	2559.164435
357.058080	2560.427244
357.447408	2561.669889
357.836672	2559.971020
358.225873	2560.225598
358.615010	2560.482697
359.004084	2559.476987
359.393095	2559.953376
359.782043	2563.215002
360.170927	2560.817934
360.559748	2563.935887
360.948505	2563.151988
361.337199	2566.801783
361.725830	2563.887996
362.114398	2564.860939
362.502903	2564.457647
362.891344	2567.694067
363.279722	2568.946794
363.668037	2566.673234
364.056289	2565.082750
364.444478	2567.051320
364.832603	2571.013667
365.220665	2569.120714
365.608665	2572.067268
365.996601	2569.705488
366.384474	2570.030642
366.772284	2570.333112
367.160031	2570.386044
367.547715	2571.653894
367.935336	2570.988462
368.322893	2568.583831
368.710388	2569.566856
369.097820	2570.438976
369.485189	2567.825137
369.872495	2570.983420
370.259738	2575.175140
370.646918	2573.428380
371.034035	2577.365521
371.421090	2572.450396
371.808081	2574.756724
372.195010	2573.814028
372.581875	2575.500294
372.968678	2576.195973
373.355418	2575.434759
373.742096	2575.384348
374.128710	2577.995665
374.515262	2578.668659
374.901751	2576.732856
375.288177	2577.325192
375.674540	2578.550192
376.060841	2575.152455
376.447079	2577.854513
376.833254	2579.495409
377.219367	2580.123032
377.605417	2579.311407
377.991404	2578.865264
378.377329	2577.577250
378.763191	2577.574729
379.148991	2578.068762
379.534727	2578.272929
379.920402	2579.334092
380.306013	2579.883577
380.691563	2581.219483
381.077049	2581.897518
381.462474	2579.470203
381.847835	2582.590677
382.233134	2581.947930
382.618371	2582.285687
383.003545	2583.432550
383.388657	2583.472879
383.773706	2582.144535
384.158693	2585.000349
384.543618	2582.293249
384.928480	2583.384659
385.313280	2584.471027
385.698017	2583.193095
386.082692	2584.080338
386.467305	2583.147725
386.851856	2586.590833
387.236344	2583.906418
387.620770	2584.589495
388.005133	2580.324678
388.389435	2581.040522
388.773674	2581.590008
389.157851	2586.205184
389.541965	2585.801892
389.926018	2589.378591
390.310008	2588.445977
390.693936	2586.091758
391.077802	2588.680391
391.461606	2587.861203
391.845348	2587.173086
392.229027	2589.625607
392.612645	2589.010587
392.996200	2589.928077
393.379694	2589.398755
393.763125	2590.507809
394.146494	2587.919177
394.529801	2589.847418
394.913047	2589.492017
395.296230	2591.011925
395.679351	2590.480083
396.062410	2590.225505
396.445408	2594.787749
396.828343	2592.299939
397.211217	2593.038468
397.594028	2593.192224
397.976778	2592.940166
398.359466	2592.050402
398.742092	2591.931935
399.124656	2591.221132
399.507158	2592.360433
399.889598	2594.525609
400.271977	2595.768253
400.654294	2594.628952
401.036549	2591.566452
401.418742	2592.819178
401.800874	2594.248345
402.182944	2596.048037
402.564952	2592.592326
402.946898	2598.770260
403.328783	2594.679364
403.710606	2596.453850
404.092367	2595.944694
404.474067	2596.438727
404.855705	2596.955445
405.237282	2597.056268
405.618797	2597.318408
406.000250	2598.636670
406.381642	2598.941660
406.762972	2595.775815
407.144240	2596.153902
407.525447	2596.688264
407.906593	2593.030907
408.287677	2600.355703
408.668700	2596.209354
409.049661	2600.086002
409.430560	2602.888883
409.811399	2601.628595
410.192176	2599.352514
410.572891	2601.421907
410.953545	2599.395363
411.334138	2600.393512
411.714669	2602.447782
412.095139	2599.244129
412.475547	2602.785539
412.855894	2606.170674
413.236180	2602.140272
413.616405	2603.486260
413.996568	2601.585745
414.376670	2601.353852
414.756711	2603.508945
415.136691	2602.808225
415.516609	2605.260746
415.896466	2603.100612
416.276262	2602.246136
416.655997	2605.754779
417.035670	2605.338884
417.415283	2606.339553
417.794834	2604.212186
418.174324	2603.145982
418.553753	2605.991713
418.933121	2606.523555
419.312428	2607.667897
419.691674	2605.517845
420.070859	2605.769902
420.449983	2607.385592
420.829045	2606.808380
421.208047	2609.288628
421.586988	2607.937599
421.965867	2605.958946
422.344686	2610.044801
422.723444	2607.874584
423.102141	2609.177722
423.480777	2609.409616
423.859352	2607.753597
424.237866	2608.529934
424.616319	2610.362394
424.994712	2609.437342
425.373044	2610.990017
425.751314	2607.309975
426.129524	2606.624378
426.507673	2608.716457
426.885762	2606.044645
427.263789	2613.392127
427.641756	2611.489092
428.019662	2612.462034
428.397508	2611.108484
428.775292	2612.441870
429.153016	2615.789196
429.530679	2612.860285
429.908282	2614.259206
430.285824	2611.249637
430.663305	2612.593104
431.040726	2614.143259
431.418086	2614.556634
431.795385	2613.717282
432.172624	2615.209463
432.549802	2614.188629
432.926920	2611.741149
433.303977	2615.133846
433.680974	2617.271295
434.057910	2617.677108
434.434786	2616.817591
434.811601	2618.168620
435.188355	2618.869341
435.565050	2616.744494
435.941683	2616.318517
436.318257	2618.995370
436.694770	2620.986625
437.071222	2618.576954
437.447614	2619.302880
437.823946	2621.342027
438.200218	2619.134001
438.576429	2619.023096
438.952580	2621.026955
439.328670	2622.388066
439.704700	2621.747840
440.080670	2622.972840
440.456580	2622.390587
440.832429	2623.330762
441.208218	2623.295474
441.583947	2625.367388
441.959616	2624.694394
442.335224	2623.565176
442.710773	2624.495268
443.086261	2625.629528
443.461689	2624.064250
443.837057	2628.480301
444.212365	2630.005250
444.587612	2623.522326
444.962800	2624.714559
445.337927	2627.293109
445.712995	2623.577778
446.088002	2632.603964
446.462949	2629.105404
446.837837	2630.874849
447.212664	2632.185549
447.587431	2633.501290
447.962139	2635.114459
448.336786	2639.074285
448.711374	2643.432363
449.085901	2640.576549
449.460369	2639.527989
449.834776	2637.675365
450.209124	2642.464461
450.583412	2643.467651
450.957640	2646.444452
451.331808	2646.295738
451.705917	2646.031078
452.079965	2644.914462
452.453954	2649.060811
452.827883	2650.409320
453.201752	2653.043323
453.575562	2654.495175
453.949311	2659.606905
454.323001	2662.818120
454.696632	2665.018584
455.070202	2673.210459
455.443713	2678.118022
455.817164	2683.305369
456.190556	2691.966072
456.563888	2697.458409
456.937160	2706.459389
457.310373	2709.078268
457.683526	2715.972046
458.056619	2724.063098
458.429653	2731.566856
458.802628	2741.669328
459.175542	2754.554517
459.548398	2780.206428
459.921194	2800.842392
460.293930	2823.038592
460.666607	2863.181300
461.039224	2917.303128
461.411782	2961.498924
461.784280	2980.763693
462.156719	3005.089781
462.529099	3027.696835
462.901419	3028.037113
463.273680	3048.857079
463.645882	3077.523600
464.018024	3105.262549
464.390106	3157.801454
464.762130	3237.028228
465.134094	3334.259483
465.505999	3528.543032
465.877845	3847.910210
466.249631	4117.538844
466.621358	4152.100995
466.993026	4122.864823
467.364634	4154.800533
467.736184	4145.161847
468.107674	4165.218077
468.479105	4273.980972
468.850477	4331.432481
469.221790	4380.016602
469.593043	4399.959406
469.964238	4440.623874
470.335373	4492.383921
470.706449	4648.072396
471.077467	4681.137324
471.448425	5048.004774
471.819324	5800.240710
472.190164	6275.727382
472.560945	5867.323344
472.931667	5590.742959
473.302330	5612.651814
473.672934	5630.126973
474.043479	5848.424058
474.413965	5944.024500
474.784393	6006.053378
475.154761	6290.261028
475.525070	6429.348984
475.895321	6479.115254
476.265513	6765.790550
476.635645	7044.400000
477.005719	7165.813670
477.375734	7365.715584
477.745691	7682.163935
478.115588	7969.050959
478.485427	8324.049013
478.855207	8804.675141
479.224928	9532.700935
479.594591	10502.457618
479.964194	10722.869468
480.333739	11078.311143
480.703226	11083.012019
481.072653	11224.287835
481.442022	11684.706498
481.811333	12250.729772
482.180584	12495.404695
482.549777	12323.345073
482.918912	12462.763224
483.287988	12739.469638
483.657005	12853.608922
484.025964	12950.920836
484.394864	13173.510463
484.763706	13278.086679
485.132489	13287.581692
485.501213	13533.816852
485.869879	13777.077731
486.238487	13808.148883
486.607036	14202.614130
486.975527	14234.396084
487.343959	14619.769611
487.712333	14862.395304
488.080648	14846.500546
488.448905	15367.123189
488.817104	15429.691470
489.185244	16037.301743
489.553326	16294.471165
489.921350	17022.902773
490.289315	18660.970262
490.657222	20062.637883
491.025070	20664.594502
491.392861	20776.372007
491.760593	20496.348513
492.128267	20236.207331
492.495883	19739.401619
492.863440	19411.262833
493.230939	18977.380804
493.598380	19108.957440
493.965763	18991.959821
494.333088	18873.114619
494.700354	19008.020937
495.067563	19137.107243
495.434713	19124.438823
495.801805	19354.481797
496.168839	19447.498647
496.535815	19477.296907
496.902733	19805.760848
497.269593	19668.853192
497.636395	20027.513644
498.003139	20161.888120
498.369825	20134.383585
498.736453	20403.636653
499.103023	20446.131059
499.469535	20611.783375
499.835989	20913.902245
500.202385	21098.912592
500.568723	20787.167638
500.935003	21130.588682
501.301226	20905.770864
501.667390	21694.855114
502.033497	22069.213719
502.399546	21920.610586
502.765537	21704.685364
503.131470	22130.335189
503.497345	22366.099872
503.863163	21739.232391
504.228923	22418.386720
504.594625	22675.001615
504.960269	22294.583543
505.325856	22863.460111
505.691385	22397.831415
506.056856	23020.484491
506.422270	23078.104880
506.787625	22762.390017
507.152924	23227.643147
507.518164	23297.286687
507.883347	23177.219005
508.248472	22941.265279
508.613540	23738.271702
508.978550	23595.097892
509.343503	23624.570998
509.708398	23961.277225
510.073236	24148.248580
510.438016	24391.103646
510.802738	24145.090297
511.167403	24418.656072
511.532010	24151.454754
511.896561	24953.772032
512.261053	24961.348887
512.625488	24838.274157
512.989866	24761.676344
513.354186	24661.561550
513.718449	24765.527786
514.082655	25169.770351
514.446803	24945.522184
514.810894	25413.240438
515.174927	24929.703043
515.538904	24979.867565
515.902822	25485.066798
516.266684	25259.865853
516.630488	25172.583315
516.994235	25192.407652
517.357925	25478.866179
517.721558	25696.676792
518.085133	25789.585258
518.448651	25726.328859
518.812112	25454.043537
519.175516	25638.380889
519.538863	25823.055999
519.902152	25615.433557
520.265385	25930.200683
520.628560	25717.524484
520.991678	25747.695790
521.354739	25826.355434
521.717743	25885.546142
522.080690	25685.916449
522.443580	26034.860078
522.806413	26031.268255
523.169189	26131.781301
523.531908	26190.457812
523.894569	25791.122810
524.257174	25854.900968
524.619722	26079.398672
524.982213	25751.348106
525.344647	25850.404258
525.707025	25953.518540
526.069345	25968.281559
526.431608	25915.530925
526.793815	26117.635824
527.155964	25551.511726
527.518057	25736.690951
527.880093	25659.369733
528.242072	25889.241308
528.603995	25593.207110
528.965860	25395.419959
529.327669	25446.285201
529.689421	25430.312305
530.051117	25272.065445
530.412755	25443.270591
530.774337	25265.489260
531.135862	25124.737724
531.497331	25338.137328
531.858743	24884.441043
532.220098	25372.878440
532.581396	25041.677153
532.942638	24995.411963
533.303824	25083.370015
533.664953	25103.048159
534.026025	24768.345791
534.387040	24995.865667
534.747999	25076.945065
535.108902	25237.117646
535.469748	24723.718977
535.830537	24914.118316
536.191270	25028.207189
536.551947	24921.677526
536.912567	24605.907211
537.273131	24896.070985
537.633638	24618.000939
537.994089	24839.294990
538.354483	24388.482246
538.714821	24872.249013
539.075103	24919.719038
539.435328	24729.102929
539.795497	24252.393777
540.155609	24676.932028
540.515665	24950.979233
540.875665	24207.343506
541.235609	24475.048940
541.595496	24452.192348
541.955328	24809.668129
542.315102	24729.148299
542.674821	24303.589215
543.034483	24170.109543
543.394090	24340.581202
543.753640	24118.122644
544.113134	24764.587611
544.472571	24352.354817
544.831953	24639.793847
545.191278	24244.227108
545.550548	24193.976886
545.909761	24411.845473
546.268918	24626.359172
546.628019	24588.200158
546.987064	24284.763026
547.346053	24055.932450
547.704986	24196.061403
548.063863	24333.831097
548.422684	24334.642723
548.781449	23890.101174
549.140158	24281.014928
549.498811	23855.723025
549.857408	23595.158386
550.215949	24051.793663
550.574434	23719.238826
550.932864	23942.025058
551.291237	24088.972172
551.649555	23958.928047
552.007817	24006.579554
552.366022	23883.456933
552.724173	23920.040586
553.082267	23850.316387
553.440305	24324.046217
553.798288	23612.126909
554.156215	24135.025633
554.514086	24211.547828
554.871902	23576.851435
555.229661	23872.227763
555.587365	23727.266863
555.945014	23573.093255
556.302606	23841.441436
556.660143	23770.852679
557.017625	24041.655902
557.375050	23567.469848
557.732421	23964.864006
558.089735	23769.746146
558.446994	23844.566952
558.804197	23853.656152
559.161345	23806.289470
559.518437	23559.240164
559.875474	23759.797429
560.232455	23934.498616
560.589381	23772.206229
560.946251	23727.382810
561.303065	24062.226331
561.659825	24144.389577
562.016528	23750.272169
562.373177	23505.216639
562.729770	23835.369366
563.086307	23712.304719
563.442789	23894.315578
563.799216	23710.999060
564.155587	23727.254260
564.511904	23705.864645
564.868164	23642.550273
565.224370	23631.255568
565.580520	23518.174925
565.936615	23670.637062
566.292654	23338.641793
566.648638	23653.608044
567.004567	23476.784532
567.360441	23416.610799
567.716260	23147.503924
568.072023	23478.642197
568.427732	23235.366194
568.783385	23031.922869
569.138982	23251.893617
569.494525	23290.483650
569.850013	23041.710269
570.205445	23145.608450
570.560823	22946.256021
570.916145	22712.089384
571.271412	22883.987689
571.626625	22635.753712
571.981782	22750.543306
572.336884	22553.131721
572.691931	22683.775743
573.046923	22423.339653
573.401860	22310.354793
573.756743	22308.171973
574.111570	22223.926731
574.466342	22154.809991
574.821059	22249.606368
575.175722	21949.801387
575.530330	21928.411772
575.884882	21962.404272
576.239380	21859.370649
576.593823	21760.470773
576.948211	21733.883727
577.302544	21585.477199
577.656823	21458.283846
578.011047	21549.992517
578.365216	21428.288981
578.719330	21304.102677
579.073389	21203.324970
579.427394	21353.024554
579.781344	21124.572065
580.135239	21022.433247
580.489080	20993.945686
580.842866	20755.788976
581.196597	20937.106677
581.550273	20915.578429
581.903895	20806.833179
582.257463	21129.588013
582.610975	20658.015797
582.964434	20967.588013
583.317837	20670.898465
583.671186	20766.869432
584.024481	20729.151519
584.377721	20509.016933
584.730906	20553.666433
585.084037	20587.575754
585.437113	20489.648820
585.790135	20690.503513
586.143103	20165.432052
586.496016	20173.969246
586.848874	20418.313972
587.201679	20353.023468
587.554428	20015.321613
587.907124	20356.511947
588.259765	20132.752772
588.612352	20210.804957
588.964884	19779.390572
589.317362	19956.544280
589.669786	20004.173102
590.022155	20053.251255
590.374470	20223.722913
590.726731	20032.393481
591.078937	19777.585839
591.431090	19884.544000
591.783188	19639.191043
592.135232	19619.616242
592.487222	19708.448935
592.839157	19731.176977
593.191038	19616.571385
593.542866	19505.716412
593.894639	19227.079236
594.246358	19457.555749
594.598022	19360.155616
594.949633	19116.060426
595.301190	19070.102747
595.652692	19225.118228
596.004141	19477.846393
596.355535	18802.563671
596.706876	18813.122368
597.058162	18704.374597
597.409395	18929.043700
597.760573	19015.524695
598.111698	18794.023956
598.462768	18721.302792
598.813785	18689.755251
599.164748	18511.797479
599.515657	18541.744453
599.866511	18328.697730
600.217312	18699.184729
600.568060	18227.899859
600.918753	18535.445532
601.269392	18441.390204
601.619978	18197.146300
601.970510	18427.889994
602.320988	18379.081542
602.671412	18577.022448
603.021783	18480.854877
603.372100	18216.254793
603.722363	18349.676492
604.072572	18293.218089
604.422728	18427.774047
604.772830	18187.966359
605.122878	18135.392165
605.472872	18134.487278
605.822813	18121.423128
606.172701	18081.550122
606.522534	18281.779711
606.872314	18304.694276
607.222041	18129.786402
607.571714	18348.393518
607.921333	18182.259773
608.270899	18255.502697
608.620411	18453.506617
608.969870	18199.175364
609.319276	18208.282209
609.668627	18240.243124
610.017926	18376.281181
610.367171	18484.292943
610.716362	18527.059572
611.065500	18345.991408
611.414585	18492.938522
611.763616	18468.998083
612.112594	18421.407070
612.461518	18383.847953
612.810389	18580.193334
613.159207	18438.657898
613.507971	18332.095468
613.856682	18624.671434
614.205340	18549.328869
614.553945	18701.097847
614.902496	18433.142876
615.250994	18680.252676
615.599439	18614.586606
615.947830	18598.848123
616.296169	18640.175503
616.644454	18621.117421
616.992686	18582.383715
617.340864	18795.450603
617.688990	18555.927740
618.037063	18731.780830
618.385082	18579.480010
618.733048	18857.260190
619.080961	18715.949086
619.428821	18769.503784
619.776628	18651.523140
620.124382	18575.925997
620.472083	18612.149208
620.819731	18631.514800
621.167326	18324.831165
621.514868	18375.283033
621.862357	18131.848234
622.209793	18148.521850
622.557176	17976.573134
622.904506	17803.142318
623.251783	17717.609061
623.599007	17488.803691
623.946179	17426.462262
624.293297	17371.012090
624.640363	17117.898276
624.987376	17142.673026
625.334336	16930.521108
625.681243	16781.247501
626.028097	16779.362110
626.374899	16726.682052
626.721647	16579.707212
627.068343	16413.676810
627.414987	16352.149527
627.761577	16317.791543
628.108115	16368.636621
628.454600	16071.576548
628.801032	16181.241809
629.147412	16110.431241
629.493739	16129.229704
629.840014	15945.391426
630.186236	16038.904830
630.532405	15811.324460
630.878521	16005.718914
631.224585	15895.738581
631.570597	15720.112343
631.916556	15758.200781
632.262462	15736.095321
632.608316	15651.429143
632.954117	15585.211066
633.299866	15588.661736
633.645562	15511.791702
633.991206	15263.005718
634.336797	15136.931502
634.682336	15102.434886
635.027823	14989.281147
635.373257	14884.478079
635.718639	14771.278969
636.063968	14730.899327
636.409245	14479.454135
636.754470	14501.768802
637.099642	14358.554663
637.444762	14122.369043
637.789829	14162.675589
