Dividing Wavelength (nm)	Counts (n)	Blue Motor Position (mm): 35.000000	Red Motor Position (mm): 0.000000	
326.493990	2131.687192
326.888308	2131.687192
327.282561	2131.687192
327.676750	2098.816348
328.070874	2096.358786
328.464933	2099.809456
328.858929	2104.759869
329.252859	2116.084821
329.646726	2125.688219
330.040528	2139.730353
330.434265	2157.780204
330.827938	2175.209994
331.221547	2191.722293
331.615091	2212.023020
332.008571	2229.775443
332.401986	2248.798237
332.795338	2269.482091
333.188625	2289.681995
333.581847	2307.688996
333.975006	2326.661379
334.368100	2344.194512
334.761129	2362.188910
335.154095	2379.336395
335.546996	2399.644683
335.939833	2424.066553
336.332606	2438.726229
336.725315	2452.221397
337.117960	2462.258335
337.510540	2469.731845
337.903056	2479.960347
338.295508	2490.524084
338.687896	2497.337204
339.080220	2500.392143
339.472480	2511.974194
339.864676	2516.067611
340.256807	2522.240504
340.648875	2524.206554
341.040879	2525.265196
341.432818	2528.123530
341.824694	2528.151257
342.216506	2530.356762
342.608253	2532.048069
342.999937	2531.407842
343.391557	2528.617563
343.783113	2528.809127
344.174605	2528.005063
344.566033	2522.772346
344.957397	2525.512213
345.348697	2519.475431
345.739934	2520.274454
346.131106	2519.470390
346.522215	2518.003414
346.913260	2514.204905
347.304241	2514.214987
347.695159	2510.454286
348.086012	2512.203567
348.476802	2508.894049
348.867528	2504.581342
349.258191	2503.782319
349.648789	2504.104953
350.039324	2502.050683
350.429796	2502.249808
350.820203	2499.630929
351.210548	2499.608244
351.600828	2495.592965
351.991045	2497.059940
352.381198	2494.254538
352.771288	2499.691423
353.161314	2497.959786
353.551276	2497.241422
353.941175	2496.858294
354.331010	2494.178921
354.720782	2496.472646
355.110490	2497.997595
355.500135	2496.626401
355.889717	2494.390649
356.279235	2494.864518
356.668689	2499.802328
357.058080	2498.993223
357.447408	2494.685557
357.836672	2493.059785
358.225873	2495.542553
358.615010	2492.200268
359.004084	2499.071361
359.393095	2502.396002
359.782043	2500.646721
360.170927	2500.792915
360.559748	2499.313336
360.948505	2502.227123
361.337199	2498.562204
361.725830	2502.290138
362.114398	2503.389109
362.502903	2505.846672
362.891344	2503.769716
363.279722	2504.846002
363.668037	2505.095540
364.056289	2506.292814
364.444478	2507.091837
364.832603	2505.748369
365.220665	2503.799963
365.608665	2508.266425
365.996601	2506.650736
366.384474	2504.946826
366.772284	2508.102588
367.160031	2508.442866
367.547715	2507.180057
367.935336	2509.166271
368.322893	2509.070489
368.710388	2508.773061
369.097820	2511.097033
369.485189	2511.873371
369.872495	2511.081910
370.259738	2511.767507
370.646918	2508.510921
371.034035	2510.045953
371.421090	2509.675428
371.808081	2512.586694
372.195010	2511.533093
372.581875	2515.024092
372.968678	2511.621313
373.355418	2510.280366
373.742096	2513.415964
374.128710	2515.273629
374.515262	2517.199350
374.901751	2515.613907
375.288177	2515.255985
375.674540	2514.323372
376.060841	2514.996366
376.447079	2513.685666
376.833254	2514.247754
377.219367	2513.267250
377.605417	2516.760770
377.991404	2514.567868
378.377329	2516.402848
378.763191	2510.232475
379.148991	2518.510050
379.534727	2517.464011
379.920402	2516.523835
380.306013	2517.690863
380.691563	2517.234638
381.077049	2520.460977
381.462474	2516.793537
381.847835	2520.075328
382.233134	2518.494927
382.618371	2517.705986
383.003545	2521.295288
383.388657	2523.359640
383.773706	2517.559793
384.158693	2522.036337
384.543618	2522.016172
384.928480	2521.562469
385.313280	2522.225380
385.698017	2522.991636
386.082692	2521.489372
386.467305	2520.105575
386.851856	2523.173117
387.236344	2522.295957
387.620770	2525.013138
388.005133	2524.113293
388.389435	2523.455422
388.773674	2524.602284
389.157851	2523.810823
389.541965	2524.695546
389.926018	2526.646472
390.310008	2523.957017
390.693936	2525.683612
391.077802	2525.849970
391.461606	2527.316946
391.845348	2527.856349
392.229027	2530.150074
392.612645	2528.294930
392.996200	2528.231915
393.379694	2530.301309
393.763125	2533.041176
394.146494	2529.119158
394.529801	2531.594365
394.913047	2531.483459
395.296230	2532.816845
395.679351	2531.324663
396.062410	2536.075951
396.445408	2530.323994
396.828343	2536.103677
397.211217	2527.753006
397.594028	2534.223327
397.976778	2528.380629
398.359466	2533.908254
398.742092	2530.387008
399.124656	2533.900693
399.507158	2533.184849
399.889598	2535.803728
400.271977	2537.006043
400.654294	2539.254398
401.036549	2539.874460
401.418742	2540.406302
401.800874	2539.647608
402.182944	2540.098791
402.564952	2541.109543
402.946898	2547.544576
403.328783	2548.494833
403.710606	2551.769062
404.092367	2552.278219
404.474067	2560.094528
404.855705	2564.054354
405.237282	2567.787329
405.618797	2579.180337
406.000250	2584.672674
406.381642	2595.226329
406.762972	2605.555653
407.144240	2613.213166
407.525447	2628.613891
407.906593	2641.325161
408.287677	2656.614980
408.668700	2664.148985
409.049661	2685.352078
409.430560	2702.912937
409.811399	2717.602859
410.192176	2749.057139
410.572891	2764.591454
410.953545	2794.172945
411.334138	2800.706281
411.714669	2831.820282
412.095139	2841.857219
412.475547	2889.906977
412.855894	2908.029925
413.236180	2943.549895
413.616405	2959.356433
413.996568	3002.249091
414.376670	3023.805065
414.756711	3044.524207
415.136691	3083.804878
415.516609	3133.770274
415.896466	3178.376924
416.276262	3222.358471
416.655997	3256.996239
417.035670	3347.800022
417.415283	3418.000610
417.794834	3440.854681
418.174324	3465.906695
418.553753	3476.601503
418.933121	3585.354315
419.312428	3657.881395
419.691674	3682.646064
420.070859	3783.254892
420.449983	3791.189668
420.829045	3889.897981
421.208047	3889.353536
421.586988	3977.276300
421.965867	4030.732696
422.344686	4155.115605
422.723444	4117.735449
423.102141	4061.806368
423.480777	4283.443217
423.859352	4190.859906
424.237866	4399.984612
424.616319	4439.908030
424.994712	4554.717788
425.373044	4516.037015
425.751314	4663.752905
426.129524	4572.565993
426.507673	4754.990227
426.885762	4851.150237
427.263789	4854.540413
427.641756	4797.038492
428.019662	4926.868368
428.397508	4974.121623
428.775292	4974.469463
429.153016	5088.903655
429.530679	5062.919028
429.908282	5164.059697
430.285824	5085.077420
430.663305	5354.690930
431.040726	5155.545189
431.418086	5183.228685
431.795385	5303.319052
432.172624	5335.353064
432.549802	5356.288976
432.926920	5393.669132
433.303977	5417.982617
433.680974	5477.122913
434.057910	5513.260424
434.434786	5541.238828
434.811601	5526.896746
435.188355	5764.123363
435.565050	5657.502959
435.941683	5660.510008
436.318257	5873.523963
436.694770	5873.639910
437.071222	5919.708494
437.447614	5863.020719
437.823946	5791.874915
438.200218	5944.672288
438.576429	5823.409853
438.952580	5927.328198
439.328670	5976.156815
439.704700	5897.671090
440.080670	5881.249532
440.456580	6153.534854
440.832429	6046.866559
441.208218	5898.465072
441.583947	6053.538526
441.959616	6061.788374
442.335224	5988.815152
442.710773	6129.281863
443.086261	6157.973590
443.461689	5955.785512
443.837057	6108.048523
444.212365	6259.688951
444.587612	6152.710625
444.962800	6314.753474
445.337927	6296.993489
445.712995	5904.353140
446.088002	6478.943855
446.462949	6309.729965
446.837837	6245.180510
447.212664	6419.528816
447.587431	6557.439662
447.962139	7096.840603
448.336786	8029.018004
448.711374	7761.950277
449.085901	6844.533373
449.460369	6764.285766
449.834776	6699.501898
450.209124	7092.600992
450.583412	7245.113540
450.957640	7389.000674
451.331808	7155.973337
451.705917	6705.949533
452.079965	6631.516897
452.453954	6844.147725
452.827883	6718.822120
453.201752	6814.518343
453.575562	6616.443847
453.949311	6815.382901
454.323001	6703.857455
454.696632	6782.743951
455.070202	6918.565238
455.443713	7073.434525
455.817164	7175.838004
456.190556	7254.197699
456.563888	7329.963721
456.937160	7373.436111
457.310373	7029.150509
457.683526	7052.178500
458.056619	6945.137160
458.429653	6935.153155
458.802628	6867.137907
459.175542	6979.059084
459.548398	7336.149217
459.921194	7495.971438
460.293930	7496.820872
460.666607	8022.794700
461.039224	8329.102769
461.411782	8459.028428
461.784280	8475.641550
462.156719	8363.876649
462.529099	8242.087413
462.901419	7828.864032
463.273680	7725.381747
463.645882	7738.967656
464.018024	7613.810930
464.390106	7772.120804
464.762130	8156.954927
465.134094	8633.742217
465.505999	9651.747783
465.877845	10868.357168
466.249631	11514.315498
466.621358	11134.189813
466.993026	10508.885090
467.364634	10251.957643
467.736184	9881.248833
468.107674	9553.243637
468.479105	9586.399306
468.850477	9350.322072
469.221790	9118.338254
469.593043	8792.440261
469.964238	8654.481524
470.335373	8671.893669
470.706449	8730.224860
471.077467	8706.609575
471.448425	10014.340336
471.819324	11083.064951
472.190164	11103.027920
472.560945	9864.597902
472.931667	9075.896780
473.302330	8934.794883
473.672934	8589.095238
474.043479	8943.316954
474.413965	8880.983087
474.784393	8767.191642
475.154761	8921.070342
475.525070	9007.571501
475.895321	8838.385337
476.265513	9011.269187
476.635645	9182.688583
477.005719	9185.907359
477.375734	9295.262589
477.745691	9532.335452
478.115588	9664.663220
478.485427	9908.372761
478.855207	10450.072468
479.224928	11260.710171
479.594591	11885.546067
479.964194	11698.287366
480.333739	11635.149435
480.703226	11556.658670
481.072653	11641.493727
481.442022	11878.080118
481.811333	12064.323027
482.180584	11873.124664
482.549777	11582.648338
482.918912	11408.753736
483.287988	11423.834348
483.657005	11437.974785
484.025964	11125.491302
484.394864	11249.125600
484.763706	11222.372196
485.132489	10979.254990
485.501213	10944.869280
485.869879	11028.353308
486.238487	10866.512105
486.607036	10977.893879
486.975527	10761.048646
487.343959	10948.103180
487.712333	10999.255768
488.080648	10924.311455
488.448905	10973.888682
488.817104	10904.512323
489.185244	11177.326966
489.553326	11328.231386
489.921350	11868.232224
490.289315	12938.806943
490.657222	13262.116304
491.025070	13176.439374
491.392861	13044.910629
491.760593	12667.121518
492.128267	12320.887510
492.495883	11992.968014
492.863440	11651.727269
493.230939	11327.908752
493.598380	11259.021385
493.965763	11126.335695
494.333088	11025.903308
494.700354	10945.625453
495.067563	11011.188179
495.434713	10840.804741
495.801805	10962.541045
496.168839	10888.005065
496.535815	10824.975518
496.902733	10829.431898
497.269593	10759.233831
497.636395	10854.420898
498.003139	10849.019301
498.369825	10717.901410
498.736453	10875.500482
499.103023	10798.164141
499.469535	10827.871661
499.835989	10813.327932
500.202385	10783.449013
500.568723	10628.289860
500.935003	10853.316885
501.301226	10662.153811
501.667390	10917.919272
502.033497	11014.066678
502.399546	10874.373785
502.765537	10780.434403
503.131470	10851.116421
503.497345	11024.698472
503.863163	10647.383230
504.228923	10949.423962
504.594625	11011.977120
504.960269	10769.575758
505.325856	10982.723304
505.691385	10777.926429
506.056856	10925.034860
506.422270	10955.269180
506.787625	10842.047386
507.152924	10955.596855
507.518164	10937.511716
507.883347	10862.945489
508.248472	10776.610688
508.613540	11005.269865
508.978550	10897.056456
509.343503	10869.609894
509.708398	10989.554068
510.073236	11104.767118
510.438016	11112.969076
510.802738	11058.771631
511.167403	11120.069541
511.532010	11015.382419
511.896561	11244.984292
512.261053	11317.980200
512.625488	11177.773108
512.989866	11158.906590
513.354186	11153.142031
513.718449	11057.201311
514.082655	11245.775753
514.446803	11145.265228
514.810894	11264.561613
515.174927	11132.891716
515.538904	11155.375262
515.902822	11307.290433
516.266684	11189.244254
516.630488	11127.722012
516.994235	11183.721670
517.357925	11246.345403
517.721558	11342.240752
518.085133	11352.799449
518.448651	11367.098682
518.812112	11246.947821
519.175516	11266.008424
519.538863	11386.917978
519.902152	11297.964298
520.265385	11459.445059
520.628560	11363.930317
520.991678	11354.337001
521.354739	11415.403018
521.717743	11344.423572
522.080690	11327.210552
522.443580	11462.376490
522.806413	11413.179869
523.169189	11451.386774
523.531908	11507.741833
523.894569	11328.753145
524.257174	11328.659884
524.619722	11441.354878
524.982213	11387.296065
525.344647	11443.615836
525.707025	11392.369986
526.069345	11492.043680
526.431608	11409.625856
526.793815	11516.652073
527.155964	11307.673561
527.518057	11359.219359
527.880093	11310.262193
528.242072	11370.798889
528.603995	11279.193562
528.965860	11201.169103
529.327669	11255.220355
529.689421	11206.699249
530.051117	11167.652992
530.412755	11279.047368
530.774337	11171.544763
531.135862	11155.728142
531.497331	11168.817498
531.858743	11021.562874
532.220098	11194.981087
532.581396	11063.966540
532.942638	11050.854498
533.303824	11006.762046
533.664953	11021.409119
534.026025	10936.120358
534.387040	11031.332630
534.747999	11039.469052
535.108902	11102.637231
535.469748	10856.906187
535.830537	10957.441918
536.191270	10933.955182
536.551947	10960.973246
536.912567	10954.308841
537.273131	10884.763603
537.633638	10857.770744
537.994089	10856.475168
538.354483	10803.543053
538.714821	10947.931781
539.075103	10958.845879
539.435328	10921.206104
539.795497	10747.268652
540.155609	10905.500389
540.515665	10989.549027
540.875665	10724.704448
541.235609	10802.716303
541.595496	10793.347319
541.955328	10951.994951
542.315102	10835.007414
542.674821	10781.014136
543.034483	10780.953642
543.394090	10787.164344
543.753640	10712.313291
544.113134	10940.065060
544.472571	10787.118973
544.831953	10926.184243
545.191278	10741.927550
545.550548	10773.263362
545.909761	10909.485421
546.268918	10880.642459
546.628019	10964.580192
546.987064	10827.319655
547.346053	10749.537171
547.704986	10854.259581
548.063863	10834.982208
548.422684	10826.981897
548.781449	10745.718497
549.140158	10846.470998
549.498811	10724.959026
549.857408	10577.550646
550.215949	10804.783176
550.574434	10660.470065
550.932864	10760.141238
551.291237	10814.018570
551.649555	10761.759449
552.007817	10775.771336
552.366022	10738.978475
552.724173	10733.544111
553.082267	10719.998530
553.440305	10853.909221
553.798288	10655.544858
554.156215	10815.127624
554.514086	10787.625609
554.871902	10633.739347
555.229661	10673.559421
555.587365	10649.165278
555.945014	10545.398167
556.302606	10666.322845
556.660143	10563.082535
557.017625	10719.378468
557.375050	10615.525658
557.732421	10746.550288
558.089735	10664.613894
558.446994	10666.640437
558.804197	10698.956754
559.161345	10699.450787
559.518437	10550.139372
559.875474	10633.454522
560.232455	10666.322845
560.589381	10619.548499
560.946251	10617.605134
561.303065	10730.678215
561.659825	10657.526031
562.016528	10589.455331
562.373177	10467.479572
562.729770	10587.746380
563.086307	10498.830508
563.442789	10591.227297
563.799216	10462.627462
564.155587	10522.997800
564.511904	10474.988371
564.868164	10464.840528
565.224370	10483.253343
565.580520	10399.280323
565.936615	10408.316591
566.292654	10278.169122
566.648638	10406.821889
567.004567	10361.484272
567.360441	10352.836172
567.716260	10262.486092
568.072023	10347.187559
568.427732	10309.116766
568.783385	10210.731087
569.138982	10282.996027
569.494525	10301.625611
569.850013	10172.811527
570.205445	10258.601883
570.560823	10150.353187
570.916145	10070.425693
571.271412	10144.104677
571.626625	10083.580584
571.981782	10060.348426
572.336884	10036.781032
572.691931	10039.916630
573.046923	9982.225665
573.401860	9939.582545
573.756743	9878.289676
574.111570	9919.266695
574.466342	9909.370910
574.821059	9938.397873
575.175722	9831.149846
575.530330	9831.477521
575.884882	9823.938475
576.239380	9758.557231
576.593823	9743.186752
576.948211	9751.055994
577.302544	9629.607036
577.656823	9649.827104
578.011047	9648.592021
578.365216	9618.135890
578.719330	9548.494870
579.073389	9557.848731
579.427394	9504.941822
579.781344	9483.579932
580.135239	9432.818034
580.489080	9447.770096
580.842866	9343.032563
581.196597	9350.725364
581.550273	9387.251044
581.903895	9356.144604
582.257463	9416.094006
582.610975	9302.504207
582.964434	9326.459770
583.317837	9249.158717
583.671186	9232.268331
584.024481	9217.759890
584.377721	9142.051842
584.730906	9116.959498
585.084037	9155.332761
585.437113	9087.181403
585.790135	9109.881718
586.143103	9006.628805
586.496016	8978.794074
586.848874	9034.032518
587.201679	9025.696970
587.554428	8914.297552
587.907124	8954.737688
588.259765	8928.397659
588.612352	8933.247249
588.964884	8806.056417
589.317362	8827.912340
589.669786	8823.334972
590.022155	8873.055872
590.374470	8880.814208
590.726731	8826.578954
591.078937	8673.796705
591.431090	8793.841701
591.783188	8658.642996
592.135232	8657.952358
592.487222	8655.119230
592.839157	8708.152168
593.191038	8642.823856
593.542866	8586.713293
593.894639	8492.287440
594.246358	8540.921972
594.598022	8556.632728
594.949633	8450.216491
595.301190	8430.442565
595.652692	8455.091286
596.004141	8564.950632
596.355535	8341.713216
596.706876	8324.172521
597.058162	8256.921008
597.409395	8336.959408
597.760573	8401.115652
598.111698	8301.096639
598.462768	8288.148436
598.813785	8254.070236
599.164748	8230.129796
599.515657	8216.551448
599.866511	8128.074157
600.217312	8252.131912
600.568060	8113.248123
600.918753	8216.964823
601.269392	8186.957354
601.619978	8091.064526
601.970510	8161.688571
602.320988	8155.921491
602.671412	8211.215387
603.021783	8148.639544
603.372100	8125.596430
603.722363	8126.448385
604.072572	8100.589786
604.422728	8111.024975
604.772830	8038.548306
605.122878	8042.853451
605.472872	8043.881847
605.822813	8067.237512
606.172701	8017.151128
606.522534	8094.515196
606.872314	8088.428002
607.222041	8062.203920
607.571714	8117.964123
607.921333	8074.211949
608.270899	8083.202847
608.620411	8169.401536
608.969870	8076.404851
609.319276	8073.854027
609.668627	8085.335255
610.017926	8115.347764
610.367171	8167.435486
610.716362	8144.258781
611.065500	8135.038511
611.414585	8158.421903
611.763616	8152.516191
612.112594	8130.632542
612.461518	8144.757856
612.810389	8211.112043
613.159207	8144.800705
613.507971	8092.266841
613.856682	8213.539359
614.205340	8169.577977
614.553945	8252.981346
614.902496	8147.094430
615.250994	8201.853964
615.599439	8179.514091
615.947830	8190.375257
616.296169	8164.090681
616.644454	8182.175820
616.992686	8177.268257
617.340864	8231.417811
617.688990	8137.228892
618.037063	8235.296979
618.385082	8178.236158
618.733048	8267.598172
619.080961	8206.640540
619.428821	8214.172023
619.776628	8222.515133
620.124382	8176.754059
620.472083	8159.815782
620.819731	8189.392232
621.167326	8078.340654
621.514868	8092.844053
621.862357	7984.925552
622.209793	7998.357707
622.557176	7928.023528
622.904506	7901.507059
623.251783	7834.495001
623.599007	7783.418030
623.946179	7791.083105
624.293297	7751.247907
624.640363	7665.180287
624.987376	7644.786299
625.334336	7604.131914
625.681243	7547.151752
626.028097	7539.617748
626.374899	7511.843511
626.721647	7508.871751
627.068343	7436.611851
627.414987	7412.638644
627.761577	7364.639298
628.108115	7402.367293
628.454600	7296.992054
628.801032	7346.917122
629.147412	7306.749208
629.493739	7295.126827
629.840014	7232.301448
630.186236	7287.522247
630.532405	7171.704258
630.878521	7224.023873
631.224585	7180.518715
631.570597	7095.426559
631.916556	7133.804863
632.262462	7135.085316
632.608316	7093.142916
632.954117	7075.904691
633.299866	7055.871145
633.645562	7047.820423
633.991206	6972.349308
634.336797	6914.560041
634.682336	6873.482199
635.027823	6841.183527
635.373257	6829.437638
635.718639	6763.126300
636.063968	6776.336644
636.409245	6670.245561
636.754470	6663.636609
637.099642	6625.396936
637.444762	6570.181178
637.789829	6583.847746
638.134845	6517.677561
638.479808	6504.873030
638.824719	6505.886302
639.169577	6437.185457
639.514383	6458.809487
639.859137	6384.155039
640.203839	6394.819600
640.548489	6380.757302
