Dividing Wavelength (nm)	Counts (n)	Blue Motor Position (mm): 33.200000	Red Motor Position (mm): 0.000000	
326.493990	2129.007819
326.888308	2129.007819
327.282561	2129.007819
327.676750	2095.101018
328.070874	2095.227047
328.464933	2098.352562
328.858929	2104.648963
329.252859	2116.132712
329.646726	2126.343569
330.040528	2138.449900
330.434265	2157.268527
330.827938	2174.552123
331.221547	2189.642817
331.615091	2209.822556
332.008571	2230.299723
332.401986	2249.083062
332.795338	2266.142327
333.188625	2287.816768
333.581847	2306.073306
333.975006	2322.961172
334.368100	2341.389110
334.761129	2359.706142
335.154095	2377.521580
335.546996	2398.611247
335.939833	2423.738878
336.332606	2437.549119
336.725315	2448.753084
337.117960	2461.865125
337.510540	2470.256125
337.903056	2479.506643
338.295508	2487.983343
338.687896	2498.980620
339.080220	2503.865498
339.472480	2513.030316
339.864676	2514.048629
340.256807	2520.380318
340.648875	2523.493231
341.040879	2524.619928
341.432818	2525.038344
341.824694	2528.010104
342.216506	2528.325177
342.608253	2530.376926
342.999937	2530.543284
343.391557	2528.481452
343.783113	2524.614887
344.174605	2528.254600
344.566033	2522.416944
344.957397	2525.161853
345.348697	2518.663805
345.739934	2519.175482
346.131106	2516.342354
346.522215	2518.603311
346.913260	2512.924452
347.304241	2512.158196
347.695159	2510.519821
348.086012	2511.439832
348.476802	2507.671569
348.867528	2506.532268
349.258191	2505.319871
349.648789	2505.261898
350.039324	2501.758296
350.429796	2501.717967
350.820203	2500.820641
351.210548	2498.703357
351.600828	2501.181084
351.991045	2496.787718
352.381198	2493.944507
352.771288	2495.008191
353.161314	2495.678664
353.551276	2497.173366
353.941175	2494.526761
354.331010	2497.201093
354.720782	2492.742192
355.110490	2497.120434
355.500135	2495.325783
355.889717	2495.966010
356.279235	2493.911740
356.668689	2495.429127
357.058080	2494.841833
357.447408	2496.001298
357.836672	2493.369816
358.225873	2495.774446
358.615010	2491.313025
359.004084	2496.538181
359.393095	2499.368789
359.782043	2501.284427
360.170927	2499.633449
360.559748	2497.997595
360.948505	2501.123110
361.337199	2501.201248
361.725830	2501.465909
362.114398	2503.913389
362.502903	2501.312154
362.891344	2504.112515
363.279722	2504.823317
363.668037	2503.207628
364.056289	2504.828358
364.444478	2505.082937
364.832603	2505.390447
365.220665	2505.521517
365.608665	2506.774244
365.996601	2508.757938
366.384474	2506.191991
366.772284	2507.323730
367.160031	2508.241220
367.547715	2505.501353
367.935336	2509.647702
368.322893	2507.903462
368.710388	2510.696262
369.097820	2513.040398
369.485189	2509.723319
369.872495	2508.019409
370.259738	2510.101405
370.646918	2508.818432
371.034035	2508.846158
371.421090	2510.706344
371.808081	2509.488905
372.195010	2511.089472
372.581875	2509.259533
372.968678	2513.829339
373.355418	2510.560150
373.742096	2515.815553
374.128710	2511.253309
374.515262	2513.988135
374.901751	2513.141221
375.288177	2514.905625
375.674540	2513.531911
376.060841	2513.897394
376.447079	2512.163237
376.833254	2518.857890
377.219367	2509.292300
377.605417	2513.070645
377.991404	2508.962105
378.377329	2511.376817
378.763191	2511.563340
379.148991	2514.429236
379.534727	2514.870337
379.920402	2517.854700
380.306013	2516.826305
380.691563	2516.957375
381.077049	2516.886798
381.462474	2521.101203
381.847835	2516.599453
382.233134	2518.774711
382.618371	2515.656757
383.003545	2519.654392
383.388657	2518.472241
383.773706	2515.220697
384.158693	2518.250431
384.543618	2519.820750
384.928480	2519.266223
385.313280	2521.028106
385.698017	2520.473579
386.082692	2521.358302
386.467305	2518.973836
386.851856	2520.776049
387.236344	2520.884433
387.620770	2523.820906
388.005133	2523.263858
388.389435	2522.795031
388.773674	2522.202695
389.157851	2525.592871
389.541965	2525.502130
389.926018	2523.596574
390.310008	2522.679084
390.693936	2526.583458
391.077802	2523.102541
391.461606	2525.623118
391.845348	2525.345855
392.229027	2527.289219
392.612645	2528.090763
392.996200	2528.655372
393.379694	2528.216792
393.763125	2528.622605
394.146494	2525.761750
394.529801	2528.531864
394.913047	2526.497758
395.296230	2526.414579
395.679351	2527.195958
396.062410	2527.621936
396.445408	2528.025228
396.828343	2528.647810
397.211217	2524.166225
397.594028	2527.846267
397.976778	2525.098838
398.359466	2530.540764
398.742092	2527.780732
399.124656	2529.088911
399.507158	2532.272400
399.889598	2530.079498
400.271977	2530.787780
400.654294	2533.630991
401.036549	2530.792821
401.418742	2531.397760
401.800874	2533.991433
402.182944	2533.257946
402.564952	2533.951104
402.946898	2534.225847
403.328783	2534.054448
403.710606	2536.207021
404.092367	2535.997813
404.474067	2536.557381
404.855705	2536.867412
405.237282	2535.599562
405.618797	2540.340767
406.000250	2537.074099
406.381642	2539.400592
406.762972	2537.946219
407.144240	2541.023843
407.525447	2541.016281
407.906593	2540.441590
408.287677	2541.311189
408.668700	2542.909235
409.049661	2546.727909
409.430560	2545.281097
409.811399	2551.635472
410.192176	2553.266285
410.572891	2556.752243
410.953545	2562.965465
411.334138	2567.154664
411.714669	2567.777247
412.095139	2575.941395
412.475547	2583.770307
412.855894	2588.352716
413.236180	2597.257914
413.616405	2607.597321
413.996568	2621.447891
414.376670	2626.965434
414.756711	2636.473050
415.136691	2648.027375
415.516609	2665.547905
415.896466	2680.555420
416.276262	2697.027390
416.655997	2711.238403
417.035670	2737.853174
417.415283	2763.389139
417.794834	2777.542179
418.174324	2792.763943
418.553753	2803.864563
418.933121	2845.345698
419.312428	2875.517004
419.691674	2895.154818
420.070859	2937.137548
420.449983	2951.172120
420.829045	2998.725324
421.208047	3012.691841
421.586988	3056.580126
421.965867	3088.354519
422.344686	3150.958088
422.723444	3156.024448
423.102141	3148.981956
423.480777	3252.292842
423.859352	3235.979668
424.237866	3344.470340
424.616319	3381.490053
424.994712	3450.717699
425.373044	3457.712300
425.751314	3545.186401
426.129524	3526.410624
426.507673	3640.975886
426.885762	3709.442317
427.263789	3738.222264
427.641756	3736.399887
428.019662	3832.723734
428.397508	3883.798184
428.775292	3919.620624
429.153016	4007.525744
429.530679	4028.701111
429.908282	4112.243112
430.285824	4092.275102
430.663305	4287.403044
431.040726	4197.988098
431.418086	4244.971652
431.795385	4354.571378
432.172624	4412.191766
432.549802	4452.692396
432.926920	4510.111138
433.303977	4558.241555
433.680974	4634.521774
434.057910	4695.628120
434.434786	4745.500255
434.811601	4764.830560
435.188355	4979.031707
435.565050	4926.207977
435.941683	4962.068225
436.318257	5160.629192
436.694770	5192.869892
437.071222	5265.580974
437.447614	5248.919961
437.823946	5219.580445
438.200218	5378.865783
438.576429	5307.334331
438.952580	5424.256333
439.328670	5498.694010
439.704700	5451.307164
440.080670	5467.332992
440.456580	5737.100258
440.832429	5668.056615
441.208218	5557.347835
441.583947	5721.374379
441.959616	5748.316825
442.335224	5712.234767
442.710773	5860.225400
443.086261	5905.958747
443.461689	5730.647581
443.837057	5892.450976
444.212365	6056.026336
444.587612	5972.018027
444.962800	6136.929293
445.337927	6129.458303
445.712995	5778.805724
446.088002	6341.471590
446.462949	6192.563467
446.837837	6134.653212
447.212664	6312.457229
447.587431	6465.380631
447.962139	7003.864082
448.336786	7908.647853
448.711374	7667.030391
449.085901	6770.204080
449.460369	6701.185643
449.834776	6641.959647
450.209124	7037.334823
450.583412	7192.630087
450.957640	7334.674679
451.331808	7111.838035
451.705917	6667.795561
452.079965	6598.020950
452.453954	6809.053733
452.827883	6690.619385
453.201752	6787.921216
453.575562	6584.601399
453.949311	6794.048738
454.323001	6686.059661
454.696632	6759.980620
455.070202	6896.018677
455.443713	7051.457615
455.817164	7154.632390
456.190556	7235.966367
456.563888	7311.301370
456.937160	7356.389450
457.310373	7016.562748
457.683526	7042.421347
458.056619	6927.495642
458.429653	6918.862666
458.802628	6851.379260
459.175542	6959.494366
459.548398	7323.702608
459.921194	7479.680949
460.293930	7487.167063
460.666607	8012.009151
461.039224	8323.910381
461.411782	8439.556971
461.784280	8461.818706
462.156719	8355.157973
462.529099	8233.146927
462.901419	7828.228847
463.273680	7719.990232
463.645882	7727.952735
464.018024	7598.712674
464.390106	7762.552694
464.762130	8152.848907
465.134094	8615.720092
465.505999	9635.018714
465.877845	10856.119767
466.249631	11503.265289
466.621358	11117.672472
466.993026	10488.823818
467.364634	10239.942052
467.736184	9875.141475
468.107674	9541.767451
468.479105	9573.100742
468.850477	9338.230864
469.221790	9110.335422
469.593043	8786.398438
469.964238	8648.515318
470.335373	8661.909664
470.706449	8713.891522
471.077467	8704.088998
471.448425	10002.786011
471.819324	11073.882489
472.190164	11091.876888
472.560945	9842.590745
472.931667	9057.050426
473.302330	8925.826671
473.672934	8579.146521
474.043479	8930.456971
474.413965	8878.709526
474.784393	8765.659131
475.154761	8914.481554
475.525070	9004.020008
475.895321	8830.248914
476.265513	9005.255091
476.635645	9174.670628
477.005719	9172.351697
477.375734	9284.091392
477.745691	9517.053194
478.115588	9656.269698
478.485427	9893.093024
478.855207	10436.882289
479.224928	11246.668037
479.594591	11876.787062
479.964194	11680.726507
480.333739	11622.642332
480.703226	11536.284846
481.072653	11630.312448
481.442022	11866.641740
481.811333	12051.190821
482.180584	11854.737055
482.549777	11562.922303
482.918912	11397.181768
483.287988	11414.235991
483.657005	11426.241499
484.025964	11111.784404
484.394864	11245.087636
484.763706	11209.320649
485.132489	10968.693773
485.501213	10940.075143
485.869879	11006.368836
486.238487	10848.454692
486.607036	10964.222270
486.975527	10744.322098
487.343959	10930.159193
487.712333	10981.488222
488.080648	10912.782336
488.448905	10959.680190
488.817104	10898.982177
489.185244	11153.479788
489.553326	11319.621095
489.921350	11852.511386
490.289315	12914.158221
490.657222	13246.524015
491.025070	13159.271724
491.392861	13028.327753
491.760593	12654.742965
492.128267	12305.005355
492.495883	11978.923360
492.863440	11639.746967
493.230939	11306.937552
493.598380	11244.331462
493.965763	11115.562749
494.333088	11010.709270
494.700354	10930.496950
495.067563	10991.159675
495.434713	10823.390075
495.801805	10948.997985
496.168839	10874.383867
496.535815	10814.318519
496.902733	10810.610750
497.269593	10746.376368
497.636395	10843.438744
498.003139	10830.389717
498.369825	10699.576816
498.736453	10862.564882
499.103023	10787.597883
499.469535	10816.166102
499.835989	10802.340737
500.202385	10770.382343
500.568723	10618.038673
500.935003	10838.445481
501.301226	10649.099743
501.667390	10905.790255
502.033497	11000.115285
502.399546	10860.182937
502.765537	10765.976374
503.131470	10841.024031
503.497345	11017.623212
503.863163	10630.054263
504.228923	10931.316138
504.594625	11001.020172
504.960269	10745.574824
505.325856	10970.243928
505.691385	10761.580488
506.056856	10913.157902
506.422270	10942.336100
506.787625	10827.627165
507.152924	10942.648652
507.518164	10927.747001
507.883347	10843.499238
508.248472	10766.674574
508.613540	11000.816005
508.978550	10881.864939
509.343503	10863.598318
509.708398	10977.593930
510.073236	11089.999058
510.438016	11096.981056
510.802738	11043.280165
511.167403	11095.259502
511.532010	10997.282157
511.896561	11218.530837
512.261053	11294.886674
512.625488	11169.122488
512.989866	11146.492749
513.354186	11137.708538
513.718449	11037.747498
514.082655	11228.822353
514.446803	11124.198246
514.810894	11248.021587
515.174927	11123.920982
515.538904	11137.537139
515.902822	11288.451641
516.266684	11174.057778
516.630488	11118.176587
516.994235	11175.943169
517.357925	11230.559030
517.721558	11323.507825
518.085133	11336.914773
518.448651	11351.405570
518.812112	11230.581715
519.175516	11242.299877
519.538863	11368.689166
519.902152	11290.183277
520.265385	11444.142636
520.628560	11359.380676
520.991678	11336.844197
521.354739	11397.297714
521.717743	11329.622744
522.080690	11312.155146
522.443580	11444.190527
522.806413	11401.620504
523.169189	11430.034967
523.531908	11491.592497
523.894569	11316.704788
524.257174	11319.711836
524.619722	11431.096130
524.982213	11378.020342
525.344647	11430.866758
525.707025	11382.340611
526.069345	11477.802421
526.431608	11395.508105
526.793815	11506.698314
527.155964	11294.374997
527.518057	11348.643018
527.880093	11295.300048
528.242072	11357.573422
528.603995	11260.226221
528.965860	11185.851557
529.327669	11235.181768
529.689421	11190.726353
530.051117	11153.121866
530.412755	11264.150759
530.774337	11154.777885
531.135862	11130.466921
531.497331	11155.871815
531.858743	11012.110711
532.220098	11175.968375
532.581396	11045.084898
532.942638	11027.372804
533.303824	10993.997845
533.664953	11001.741057
534.026025	10921.566546
534.387040	11017.920640
534.747999	11020.620178
535.108902	11083.334653
535.469748	10835.957672
535.830537	10944.024887
536.191270	10925.705334
536.551947	10947.601585
536.912567	10936.838722
537.273131	10872.919412
537.633638	10845.213230
537.994089	10842.274238
538.354483	10786.640064
538.714821	10929.327403
539.075103	10941.844588
539.435328	10910.060113
539.795497	10738.839843
540.155609	10893.318441
540.515665	10977.044444
540.875665	10710.831192
541.235609	10780.567994
541.595496	10779.423652
541.955328	10933.670357
542.315102	10809.098404
542.674821	10765.510067
543.034483	10769.490058
543.394090	10768.582651
543.753640	10704.421365
544.113134	10926.542165
544.472571	10777.823086
544.831953	10919.126628
545.191278	10727.489685
545.550548	10754.890877
545.909761	10886.646474
546.268918	10860.777793
546.628019	10942.804927
546.987064	10808.372478
547.346053	10725.561444
547.704986	10832.151601
548.063863	10820.196504
548.422684	10817.088633
548.781449	10727.358615
549.140158	10830.177989
549.498811	10709.182735
549.857408	10567.382639
550.215949	10787.003027
550.574434	10644.784515
550.932864	10746.192366
551.291237	10803.096910
551.649555	10750.391647
552.007817	10759.314489
552.366022	10724.323840
552.724173	10721.321833
553.082267	10707.055368
553.440305	10841.999495
553.798288	10640.746551
554.156215	10797.486106
554.514086	10770.087435
554.871902	10619.790474
555.229661	10660.147431
555.587365	10637.137085
555.945014	10531.154387
556.302606	10651.196863
556.660143	10552.186081
557.017625	10695.246465
557.375050	10600.845818
557.732421	10731.245345
558.089735	10645.845678
558.446994	10652.126956
558.804197	10689.388644
559.161345	10681.809269
559.518437	10531.227483
559.875474	10627.770621
560.232455	10652.996555
560.589381	10601.680129
560.946251	10601.478483
561.303065	10714.322191
561.659825	10648.678806
562.016528	10567.491024
562.373177	10456.225197
562.729770	10571.244163
563.086307	10485.935237
563.442789	10575.579555
563.799216	10454.019692
564.155587	10502.757567
564.511904	10457.840886
564.868164	10445.873187
565.224370	10464.911105
565.580520	10385.727181
565.936615	10393.334282
566.292654	10267.829716
566.648638	10398.982895
567.004567	10352.483292
567.360441	10346.930461
567.716260	10246.482950
568.072023	10338.486528
568.427732	10289.859558
568.783385	10196.744405
569.138982	10275.474625
569.494525	10285.642633
569.850013	10165.678295
570.205445	10247.027394
570.560823	10144.124841
570.916145	10057.878261
571.271412	10133.157811
571.626625	10071.280168
571.981782	10048.854595
572.336884	10022.970791
572.691931	10029.305001
573.046923	9979.712650
573.401860	9928.950751
573.756743	9869.823058
574.111570	9909.096167
574.466342	9893.403055
574.821059	9924.880019
575.175722	9811.103698
575.530330	9823.862858
575.884882	9814.982866
576.239380	9744.565508
576.593823	9728.053209
576.948211	9745.873687
577.302544	9618.725705
577.656823	9634.015525
578.011047	9637.123396
578.365216	9611.431156
578.719330	9532.126244
579.073389	9547.138800
579.427394	9495.593002
579.781344	9467.337335
580.135239	9422.282022
580.489080	9429.132950
580.842866	9330.603598
581.196597	9339.183642
581.550273	9375.734528
581.903895	9344.706226
582.257463	9406.024301
582.610975	9291.363257
582.964434	9318.681269
583.317837	9236.384433
583.671186	9221.213080
584.024481	9215.249395
584.377721	9136.564546
584.730906	9114.890105
585.084037	9146.198191
585.437113	9076.617665
585.790135	9103.434083
586.143103	9002.058999
586.496016	8969.198238
586.848874	9024.618163
587.201679	9014.876133
587.554428	8902.808762
587.907124	8948.781565
588.259765	8927.825488
588.612352	8922.875075
588.964884	8799.928895
589.317362	8815.821132
589.669786	8817.610742
590.022155	8861.380560
590.374470	8876.521666
590.726731	8815.871544
591.078937	8668.969800
591.431090	8779.968446
591.783188	8659.051330
592.135232	8651.834918
592.487222	8641.213207
592.839157	8696.945683
593.191038	8633.669120
593.542866	8570.810973
593.894639	8479.465265
594.246358	8523.106534
594.598022	8548.554279
594.949633	8443.652908
595.301190	8419.011748
595.652692	8447.267416
596.004141	8554.142398
596.355535	8334.587545
596.706876	8316.177251
597.058162	8250.881706
597.409395	8328.152512
597.760573	8390.385556
598.111698	8300.521948
598.462768	8285.443857
598.813785	8247.337775
599.164748	8220.498672
599.515657	8204.603913
599.866511	8118.077549
600.217312	8245.580933
600.568060	8104.229499
600.918753	8204.082154
601.269392	8177.716919
601.619978	8085.476407
601.970510	8152.669947
602.320988	8145.355232
602.671412	8205.208852
603.021783	8145.037640
603.372100	8114.180737
603.722363	8119.289946
604.072572	8092.599557
604.422728	8100.055424
604.772830	8034.535547
605.122878	8039.523769
605.472872	8033.539919
605.822813	8069.516114
606.172701	8012.868668
606.522534	8086.681243
606.872314	8085.562107
607.222041	8046.790592
607.571714	8111.977753
607.921333	8070.950322
608.270899	8075.394099
608.620411	8161.494486
608.969870	8068.926299
609.319276	8067.781957
609.668627	8077.614727
610.017926	8117.369267
610.367171	8156.788569
610.716362	8137.657390
611.065500	8123.552242
611.414585	8152.183475
611.763616	8144.407495
612.112594	8125.951831
612.461518	8141.506311
612.810389	8201.319602
613.159207	8138.703430
613.507971	8088.541428
613.856682	8205.644912
614.205340	8161.635639
614.553945	8240.305365
614.902496	8138.075806
615.250994	8194.405659
615.599439	8176.940582
615.947830	8190.796193
616.296169	8160.874424
616.644454	8178.583998
616.992686	8170.308944
617.340864	8231.639622
617.688990	8135.048593
618.037063	8224.093014
618.385082	8176.285232
618.733048	8260.648941
619.080961	8198.693161
619.428821	8216.238897
619.776628	8219.399700
620.124382	8169.119232
620.472083	8156.090369
620.819731	8184.709000
621.167326	8077.125736
621.514868	8084.750481
621.862357	7970.790157
622.209793	7987.874627
622.557176	7920.416427
622.904506	7894.494814
623.251783	7826.207344
623.599007	7782.351826
623.946179	7789.089328
624.293297	7743.832370
624.640363	7665.760020
624.987376	7647.684963
625.334336	7592.849812
625.681243	7543.179323
626.028097	7535.065586
626.374899	7504.664908
626.721647	7499.616192
627.068343	7426.418638
627.414987	7399.125831
627.761577	7358.221909
628.108115	7397.532827
628.454600	7291.023328
628.801032	7338.531162
629.147412	7298.786705
629.493739	7291.330839
629.840014	7223.688636
630.186236	7281.792976
630.532405	7166.466499
630.878521	7222.645117
631.224585	7174.391193
631.570597	7097.284224
631.916556	7134.571119
632.262462	7127.334542
632.608316	7088.749551
632.954117	7066.583597
633.299866	7054.217647
633.645562	7045.839249
633.991206	6966.753628
634.336797	6907.865389
634.682336	6863.964501
635.027823	6833.871333
635.373257	6825.787843
635.718639	6759.219406
636.063968	6769.457990
636.409245	6666.562998
636.754470	6657.070506
637.099642	6622.649507
637.444762	6565.376958
637.789829	6576.094452
638.134845	6518.705956
638.479808	6500.078893
638.824719	6504.167268
639.169577	6427.302275
639.514383	6453.982582
639.859137	6380.474997
640.203839	6392.924127
640.548489	6375.091045
