Dividing Wavelength (nm)	Counts (n)	Blue Motor Position (mm): 10.000000	Red Motor Position (mm): 0.000000	
326.493990	2162.844043
326.888308	2162.844043
327.282561	2162.844043
327.676750	2119.795110
328.070874	2114.839656
328.464933	2118.859976
328.858929	2122.618156
329.252859	2124.135543
329.646726	2135.316823
330.040528	2146.717392
330.434265	2157.840698
330.827938	2178.552279
331.221547	2194.240349
331.615091	2210.104861
332.008571	2230.198900
332.401986	2250.179513
332.795338	2269.328336
333.188625	2288.293157
333.581847	2305.884263
333.975006	2322.099134
334.368100	2338.331650
334.761129	2358.589527
335.154095	2375.787423
335.546996	2394.268293
335.939833	2416.847621
336.332606	2432.581062
336.725315	2445.085644
337.117960	2457.406224
337.510540	2470.790488
337.903056	2483.811788
338.295508	2489.924187
338.687896	2498.746206
339.080220	2506.890190
339.472480	2511.646519
339.864676	2517.562313
340.256807	2523.352078
340.648875	2526.575896
341.040879	2532.481608
341.432818	2531.682585
341.824694	2535.231557
342.216506	2532.655528
342.608253	2536.038142
342.999937	2535.972607
343.391557	2537.379089
343.783113	2537.963863
344.174605	2536.834644
344.566033	2536.217103
344.957397	2534.485467
345.348697	2531.579241
345.739934	2531.498583
346.131106	2531.029756
346.522215	2528.718387
346.913260	2523.906605
347.304241	2523.150432
347.695159	2521.983405
348.086012	2521.701100
348.476802	2517.171624
348.867528	2514.555265
349.258191	2509.761128
349.648789	2512.009482
350.039324	2507.779954
350.429796	2511.921262
350.820203	2509.383041
351.210548	2507.434635
351.600828	2508.019409
351.991045	2505.226610
352.381198	2503.189983
352.771288	2504.167967
353.161314	2504.236023
353.551276	2503.235354
353.941175	2501.120590
354.331010	2504.546054
354.720782	2502.073368
355.110490	2500.056906
355.500135	2504.278873
355.889717	2500.709736
356.279235	2502.217041
356.668689	2503.757113
357.058080	2499.565394
357.447408	2502.053203
357.836672	2501.735611
358.225873	2504.500683
358.615010	2501.425580
359.004084	2503.252998
359.393095	2506.018071
359.782043	2506.343225
360.170927	2504.122597
360.559748	2505.219048
360.948505	2506.738956
361.337199	2508.281549
361.725830	2508.999913
362.114398	2508.916734
362.502903	2506.519666
362.891344	2508.435304
363.279722	2510.542506
363.668037	2512.077538
364.056289	2510.136693
364.444478	2511.248268
364.832603	2510.139214
365.220665	2512.574091
365.608665	2509.345232
365.996601	2515.240862
366.384474	2514.048629
366.772284	2514.673732
367.160031	2513.940244
367.547715	2516.110461
367.935336	2516.241531
368.322893	2514.061232
368.710388	2510.971004
369.097820	2513.778927
369.485189	2510.209790
369.872495	2515.581140
370.259738	2516.060049
370.646918	2516.039885
371.034035	2515.326561
371.421090	2517.738753
371.808081	2515.704648
372.195010	2516.738084
372.581875	2516.223887
372.968678	2518.389062
373.355418	2520.544156
373.742096	2519.162879
374.128710	2520.372756
374.515262	2519.528363
374.901751	2520.720596
375.288177	2519.997190
375.674540	2520.460977
376.060841	2519.150277
376.447079	2522.195133
376.833254	2520.213960
377.219367	2521.093641
377.605417	2521.940555
377.991404	2521.993487
378.377329	2522.802593
378.763191	2523.825947
379.148991	2522.943745
379.534727	2522.626152
379.920402	2521.665812
380.306013	2523.583971
380.691563	2522.038858
381.077049	2523.478107
381.462474	2524.284692
381.847835	2524.871986
382.233134	2524.388035
382.618371	2522.893333
383.003545	2523.513395
383.388657	2523.606657
383.773706	2529.406504
384.158693	2523.999867
384.543618	2524.708149
384.928480	2525.275278
385.313280	2523.188241
385.698017	2525.958355
386.082692	2527.586648
386.467305	2528.456247
386.851856	2527.972296
387.236344	2526.162522
387.620770	2525.338293
388.005133	2521.474248
388.389435	2524.405679
388.773674	2525.577748
389.157851	2526.563293
389.541965	2526.044054
389.926018	2527.105217
390.310008	2527.432892
390.693936	2528.146216
391.077802	2529.066226
391.461606	2527.067409
391.845348	2528.572193
392.229027	2532.716022
392.612645	2528.000022
392.996200	2529.093953
393.379694	2529.829961
393.763125	2529.288037
394.146494	2527.085053
394.529801	2528.700743
394.913047	2529.076308
395.296230	2533.162164
395.679351	2530.818027
396.062410	2529.850126
396.445408	2531.853984
396.828343	2530.349200
397.211217	2530.571011
397.594028	2529.472039
397.976778	2533.245343
398.359466	2532.020342
398.742092	2534.205683
399.124656	2533.991433
399.507158	2531.123017
399.889598	2534.472864
400.271977	2529.608150
400.654294	2533.663758
401.036549	2531.385157
401.418742	2533.232740
401.800874	2533.424304
402.182944	2533.711649
402.564952	2535.052596
402.946898	2534.581248
403.328783	2534.041845
403.710606	2534.820703
404.092367	2534.278779
404.474067	2534.498069
404.855705	2535.516382
405.237282	2532.242153
405.618797	2532.000178
406.000250	2535.985210
406.381642	2534.735004
406.762972	2532.370703
407.144240	2531.017153
407.525447	2533.663758
407.906593	2529.645959
408.287677	2534.944212
408.668700	2537.694161
409.049661	2534.571166
409.430560	2536.393543
409.811399	2537.817669
410.192176	2534.982020
410.572891	2538.677186
410.953545	2536.375899
411.334138	2536.196938
411.714669	2538.445293
412.095139	2538.563760
412.475547	2538.170550
412.855894	2538.460416
413.236180	2537.091743
413.616405	2536.552340
413.996568	2535.929757
414.376670	2539.723225
414.756711	2536.731301
415.136691	2538.344470
415.516609	2537.754655
415.896466	2536.096115
416.276262	2539.120808
416.655997	2539.138452
417.035670	2539.327495
417.415283	2541.326312
417.794834	2539.529141
418.174324	2542.755479
418.553753	2539.135931
418.933121	2540.086188
419.312428	2540.872608
419.691674	2537.792463
420.070859	2537.994110
420.449983	2540.847403
420.829045	2539.992927
421.208047	2540.781868
421.586988	2537.575694
421.965867	2543.947712
422.344686	2539.430838
422.723444	2540.933102
423.102141	2540.149203
423.480777	2544.562733
423.859352	2540.744059
424.237866	2543.579708
424.616319	2541.825387
424.994712	2539.473688
425.373044	2542.717671
425.751314	2538.641898
426.129524	2539.307330
426.507673	2541.064172
426.885762	2534.921526
427.263789	2540.134079
427.641756	2542.155582
428.019662	2542.241282
428.397508	2544.078782
428.775292	2543.826725
429.153016	2541.807742
429.530679	2543.115922
429.908282	2544.648433
430.285824	2542.664739
430.663305	2542.314378
431.040726	2541.543082
431.418086	2540.733977
431.795385	2543.151210
432.172624	2543.743546
432.549802	2544.671118
432.926920	2542.929399
433.303977	2545.923845
433.680974	2545.883515
434.057910	2546.294369
434.434786	2544.976108
434.811601	2546.317055
435.188355	2544.270346
435.565050	2545.001313
435.941683	2543.541899
436.318257	2544.971067
436.694770	2544.635830
437.071222	2544.101468
437.447614	2546.054915
437.823946	2548.565409
438.200218	2544.724050
438.576429	2542.586601
438.952580	2543.725902
439.328670	2541.754810
439.704700	2544.250182
440.080670	2546.110367
440.456580	2544.872764
440.832429	2544.189688
441.208218	2546.312013
441.583947	2546.768238
441.959616	2546.783361
442.335224	2545.679349
442.710773	2544.436704
443.086261	2545.414688
443.461689	2546.833773
443.837057	2545.913762
444.212365	2547.302600
444.587612	2545.908721
444.962800	2541.515356
445.337927	2544.174564
445.712995	2541.074255
446.088002	2544.933258
446.462949	2546.727909
446.837837	2547.234545
447.212664	2550.158414
447.587431	2548.262940
447.962139	2545.404606
448.336786	2546.987528
448.711374	2549.102292
449.085901	2546.594318
449.460369	2548.419216
449.834776	2547.950388
450.209124	2546.279246
450.583412	2547.443753
450.957640	2547.509287
451.331808	2546.904349
451.705917	2547.955430
452.079965	2547.995759
452.453954	2549.379556
452.827883	2550.458363
453.201752	2547.660522
453.575562	2547.983156
453.949311	2549.487940
454.323001	2549.724875
454.696632	2547.221942
455.070202	2548.772097
455.443713	2549.455173
455.817164	2547.584905
456.190556	2549.130018
456.563888	2549.745039
456.937160	2548.038609
457.310373	2548.807385
457.683526	2550.244113
458.056619	2550.236552
458.429653	2550.453321
458.802628	2549.530790
459.175542	2548.588094
459.548398	2551.433826
459.921194	2547.287477
460.293930	2549.913918
460.666607	2550.556665
461.039224	2548.280584
461.411782	2552.505071
461.784280	2550.375183
462.156719	2550.735626
462.529099	2552.338713
462.901419	2553.208312
463.273680	2550.823846
463.645882	2545.326468
464.018024	2548.101623
464.390106	2545.586087
464.762130	2550.700338
465.134094	2552.860472
465.505999	2550.596994
465.877845	2551.766542
466.249631	2552.114382
466.621358	2550.438198
466.993026	2553.462890
467.364634	2557.261400
467.736184	2552.742005
468.107674	2553.294012
468.479105	2551.489278
468.850477	2553.606563
469.221790	2553.011707
469.593043	2552.346275
469.964238	2552.794937
470.335373	2551.564896
470.706449	2554.271995
471.077467	2549.987015
471.448425	2553.447767
471.819324	2553.677139
472.190164	2555.290308
472.560945	2553.954403
472.931667	2552.976419
473.302330	2552.210163
473.672934	2552.477345
474.043479	2552.646223
474.413965	2555.406255
474.784393	2554.455998
475.154761	2553.160421
475.525070	2553.425082
475.895321	2553.304094
476.265513	2555.459187
476.635645	2556.071687
477.005719	2553.599001
477.375734	2556.409445
477.745691	2555.265103
478.115588	2555.910370
478.485427	2554.206460
478.855207	2555.809547
479.224928	2556.404403
479.594591	2556.532953
479.964194	2558.889692
480.333739	2557.261400
480.703226	2554.496327
481.072653	2556.459856
481.442022	2555.507078
481.811333	2553.082283
482.180584	2553.654454
482.549777	2557.548745
482.918912	2554.244269
483.287988	2557.770556
483.657005	2555.965823
484.025964	2559.592933
484.394864	2560.694425
484.763706	2558.541853
485.132489	2556.845504
485.501213	2558.665361
485.869879	2557.115206
486.238487	2561.044786
486.607036	2556.364074
486.975527	2560.971689
487.343959	2557.367264
487.712333	2558.130999
488.080648	2555.048333
488.448905	2556.812737
488.817104	2556.485062
489.185244	2558.027655
489.553326	2559.257697
489.921350	2558.907336
490.289315	2557.904147
490.657222	2558.778787
491.025070	2561.725341
491.392861	2559.688715
491.760593	2559.615618
492.128267	2561.843808
492.495883	2559.192162
492.863440	2562.045455
493.230939	2559.126627
493.598380	2562.204251
493.965763	2560.301215
494.333088	2559.252655
494.700354	2560.555794
495.067563	2561.072512
495.434713	2561.064950
495.801805	2558.509085
496.168839	2561.652245
496.535815	2560.981771
496.902733	2561.785835
497.269593	2561.526216
497.636395	2561.904302
498.003139	2560.500341
498.369825	2560.550752
498.736453	2559.177038
499.103023	2559.756771
499.469535	2563.144426
499.835989	2561.672409
500.202385	2559.290464
500.568723	2557.208468
500.935003	2556.308622
501.301226	2555.113868
501.667390	2558.630073
502.033497	2562.216854
502.399546	2560.109652
502.765537	2563.572924
503.131470	2562.181566
503.497345	2561.604354
503.863163	2561.863973
504.228923	2561.818603
504.594625	2562.153839
504.960269	2560.800290
505.325856	2560.543191
505.691385	2561.581668
506.056856	2560.013870
506.422270	2564.008984
506.787625	2560.134857
507.152924	2561.422872
507.518164	2559.260217
507.883347	2562.221895
508.248472	2561.553942
508.613540	2564.008984
508.978550	2561.420352
509.343503	2559.300546
509.708398	2563.739282
510.073236	2563.129303
510.438016	2562.418500
510.802738	2562.042934
511.167403	2560.991853
511.532010	2562.426062
511.896561	2560.427244
512.261053	2565.125600
512.625488	2563.305743
512.989866	2562.388253
513.354186	2562.020249
513.718449	2563.474622
514.082655	2563.840105
514.446803	2563.333469
514.810894	2564.268603
515.174927	2563.318346
515.538904	2562.297512
515.902822	2565.760785
516.266684	2562.695763
516.630488	2564.293809
516.994235	2563.648542
517.357925	2563.754406
517.721558	2565.027297
518.085133	2565.932184
518.448651	2563.479663
518.812112	2562.925136
519.175516	2562.791545
519.538863	2561.241391
519.902152	2566.348079
520.265385	2565.982596
520.628560	2567.502504
520.991678	2567.464695
521.354739	2565.866649
521.717743	2565.344890
522.080690	2569.269428
522.443580	2568.097360
522.806413	2567.830179
523.169189	2566.706001
523.531908	2572.019377
523.894569	2568.770354
524.257174	2571.031311
524.619722	2570.423852
524.982213	2573.287228
525.344647	2570.817062
525.707025	2573.486353
526.069345	2570.943091
526.431608	2572.281517
526.793815	2573.115828
527.155964	2574.396282
527.518057	2571.381672
527.880093	2574.925603
528.242072	2577.622620
528.603995	2578.101530
528.965860	2578.265367
529.327669	2576.735377
529.689421	2576.195973
530.051117	2578.469534
530.412755	2578.280491
530.774337	2580.123032
531.135862	2581.794175
531.497331	2580.909452
531.858743	2581.194277
532.220098	2581.232086
532.581396	2581.789134
532.942638	2582.134453
533.303824	2585.766604
533.664953	2587.062181
534.026025	2584.881882
534.387040	2585.086048
534.747999	2588.756008
535.108902	2587.518405
535.469748	2587.914136
535.830537	2590.608632
536.191270	2589.907912
536.551947	2584.695359
536.912567	2584.733168
537.273131	2589.630648
537.633638	2587.543611
537.994089	2593.524940
538.354483	2590.520412
538.714821	2593.920670
539.075103	2593.227512
539.435328	2596.484097
539.795497	2599.110538
540.155609	2597.325970
540.515665	2596.852101
540.875665	2596.615167
541.235609	2596.993254
541.595496	2599.017277
541.955328	2598.971907
542.315102	2599.959973
542.674821	2603.307299
543.034483	2598.508120
543.394090	2603.715632
543.753640	2601.893255
544.113134	2603.771085
544.472571	2603.667741
544.831953	2603.002309
545.191278	2604.905345
545.550548	2605.051538
545.909761	2606.276538
546.268918	2608.209821
546.628019	2605.288472
546.987064	2606.473143
547.346053	2606.906683
547.704986	2607.962804
548.063863	2612.784668
548.422684	2609.568412
548.781449	2608.650922
549.140158	2608.091354
549.498811	2609.838114
549.857408	2608.713936
550.215949	2608.905500
550.574434	2609.739811
550.932864	2610.687548
551.291237	2611.801643
551.649555	2610.543875
552.007817	2611.231993
552.366022	2612.711571
552.724173	2611.116046
553.082267	2610.178392
553.440305	2613.608897
553.798288	2612.106633
554.156215	2617.717437
554.514086	2613.440018
554.871902	2607.204111
555.229661	2610.362394
555.587365	2608.401385
555.945014	2614.559154
556.302606	2615.416150
556.660143	2614.637292
557.017625	2616.883126
557.375050	2615.464041
557.732421	2616.094186
558.089735	2617.334309
558.446994	2611.925151
558.804197	2618.403034
559.161345	2617.667026
559.518437	2612.247785
559.875474	2616.106788
560.232455	2615.060749
560.589381	2618.735750
560.946251	2613.359360
561.303065	2616.464710
561.659825	2618.660133
562.016528	2618.347581
562.373177	2615.489247
562.729770	2615.529576
563.086307	2620.462345
563.442789	2618.730709
563.799216	2616.701645
564.155587	2616.905811
564.511904	2616.575616
564.868164	2616.368928
565.224370	2617.404886
565.580520	2614.029833
565.936615	2618.211470
566.292654	2615.259875
566.648638	2616.691562
567.004567	2615.466562
567.360441	2615.501850
567.716260	2613.296345
568.072023	2615.547220
568.427732	2614.599483
568.783385	2615.204422
569.138982	2616.053856
569.494525	2615.496809
569.850013	2615.368259
570.205445	2614.082765
570.560823	2616.636110
570.916145	2615.635441
571.271412	2612.320882
571.626625	2616.931017
571.981782	2613.326592
572.336884	2613.719802
572.691931	2611.937754
573.046923	2608.887856
573.401860	2608.661004
573.756743	2612.066304
574.111570	2615.267436
574.466342	2612.683845
574.821059	2611.179061
575.175722	2612.013372
575.530330	2611.617641
575.884882	2614.841459
576.239380	2614.191150
576.593823	2616.557972
576.948211	2613.387086
577.302544	2612.134359
577.656823	2613.538321
578.011047	2612.507405
578.365216	2612.225100
578.719330	2613.359360
579.073389	2613.961778
579.427394	2613.810543
579.781344	2611.484050
580.135239	2614.738115
580.489080	2611.012703
580.842866	2611.612600
581.196597	2613.039246
581.550273	2614.481016
581.903895	2615.050667
582.257463	2612.628392
582.610975	2614.523866
582.964434	2614.778444
583.317837	2612.257867
583.671186	2615.983280
584.024481	2617.351953
584.377721	2613.505553
584.730906	2616.381531
585.084037	2616.237858
585.437113	2617.044443
585.790135	2615.459000
586.143103	2616.353805
586.496016	2616.603342
586.848874	2614.702827
587.201679	2618.095524
587.554428	2616.943620
587.907124	2616.575616
588.259765	2616.318517
588.612352	2621.170627
588.964884	2617.402365
589.317362	2617.604011
589.669786	2618.093003
590.022155	2616.820112
590.374470	2619.174331
590.726731	2618.103085
591.078937	2616.744494
591.431090	2618.589557
591.783188	2621.548714
592.135232	2622.178858
592.487222	2625.175824
592.839157	2623.411420
593.191038	2624.238170
593.542866	2622.882099
593.894639	2624.409569
594.246358	2627.366206
594.598022	2625.649693
594.949633	2625.304374
595.301190	2626.368057
595.652692	2627.043572
596.004141	2626.136164
596.355535	2628.102214
596.706876	2626.486524
597.058162	2627.277985
597.409395	2629.044910
597.760573	2633.012298
598.111698	2629.231432
598.462768	2631.164715
598.813785	2632.041876
599.164748	2632.535909
599.515657	2633.047586
599.866511	2634.386012
600.217312	2636.248719
600.568060	2633.949952
600.918753	2636.722587
601.269392	2639.538072
601.619978	2633.312247
601.970510	2642.489667
602.320988	2641.383134
602.671412	2640.700057
603.021783	2642.910603
603.372100	2643.835655
603.722363	2645.819349
604.072572	2644.942188
604.422728	2646.431849
604.772830	2644.687610
605.122878	2648.007210
605.472872	2647.505615
605.822813	2651.200781
606.172701	2652.093065
606.522534	2655.662202
606.872314	2656.015083
607.222041	2658.828047
607.571714	2655.866369
607.921333	2659.286792
608.270899	2661.724190
608.620411	2666.067144
608.969870	2669.459840
609.319276	2670.372289
609.668627	2677.669359
610.017926	2684.661440
610.367171	2687.522294
610.716362	2692.432378
611.065500	2691.580423
611.414585	2693.612008
611.763616	2695.262986
612.112594	2693.609488
612.461518	2694.221988
612.810389	2699.048893
613.159207	2697.682740
613.507971	2698.116279
613.856682	2706.068699
614.205340	2707.679348
614.553945	2713.703527
614.902496	2710.426777
615.250994	2718.036399
615.599439	2720.579661
615.947830	2724.368088
616.296169	2724.902450
616.644454	2731.987792
616.992686	2730.593913
617.340864	2738.816035
617.688990	2741.845768
618.037063	2751.799527
618.385082	2755.910587
618.733048	2763.789911
619.080961	2764.977103
619.428821	2776.397837
619.776628	2779.977056
620.124382	2785.020730
620.472083	2790.550876
620.819731	2796.988430
621.167326	2791.218829
621.514868	2792.731175
621.862357	2794.785445
622.209793	2800.320632
622.557176	2800.524799
622.904506	2798.407514
623.251783	2800.154274
623.599007	2801.240643
623.946179	2804.540078
624.293297	2809.586273
624.640363	2811.582570
624.987376	2811.713640
625.334336	2811.141469
625.681243	2817.871409
626.028097	2818.569609
626.374899	2832.145437
626.721647	2832.478153
627.068343	2834.504697
627.414987	2841.406036
627.761577	2850.051615
628.108115	2858.896319
628.454600	2855.669981
628.801032	2864.703729
629.147412	2869.699512
629.493739	2876.951212
629.840014	2886.668036
630.186236	2889.266751
630.532405	2896.039541
630.878521	2908.307189
631.224585	2916.161307
631.570597	2925.444591
631.916556	2933.391970
632.262462	2939.116201
632.608316	2957.050105
632.954117	2959.295939
633.299866	2973.219606
633.645562	2979.261429
633.991206	2976.839155
634.336797	2976.224134
634.682336	2987.402893
635.027823	2985.648571
635.373257	2992.842298
635.718639	2991.035044
636.063968	2996.958400
636.409245	2995.148626
636.754470	2998.811024
637.099642	3007.958198
637.444762	3005.828310
637.789829	3019.320958
638.134845	3020.369518
638.479808	3029.851929
638.824719	3037.264945
639.169577	3039.236037
639.514383	3048.834393
639.859137	3055.647513
640.203839	3070.070254
640.548489	3066.798545
640.893086	3083.547779
641.237632	3077.498394
641.582125	3100.783484
641.926566	3104.796242
642.270955	3114.576081
642.615292	3122.246196
642.959576	3130.543936
643.303809	3149.402892
643.647990	3158.335817
643.992118	3174.306192
644.336195	3167.450223
