Dividing Wavelength (nm)	Counts (n)	Blue Motor Position (mm): 47.500000	Red Motor Position (mm): 0.000000	
326.493990	2130.046296
326.888308	2130.046296
327.282561	2130.046296
327.676750	2095.872314
328.070874	2097.125041
328.464933	2098.143354
328.858929	2105.730291
329.252859	2114.950561
329.646726	2126.482201
330.040528	2138.459982
330.434265	2155.607467
330.827938	2173.291835
331.221547	2192.753209
331.615091	2209.840200
332.008571	2228.903323
332.401986	2249.503998
332.795338	2268.410846
333.188625	2286.886675
333.581847	2306.337967
333.975006	2325.048209
334.368100	2344.078565
334.761129	2360.555577
335.154095	2377.914790
335.546996	2399.374982
335.939833	2425.425144
336.332606	2441.425767
336.725315	2454.709207
337.117960	2461.136678
337.510540	2469.820066
337.903056	2482.425471
338.295508	2489.949393
338.687896	2498.060609
339.080220	2505.488750
339.472480	2512.543844
339.864676	2516.458300
340.256807	2520.949968
340.648875	2525.242511
341.040879	2525.766791
341.432818	2528.736031
341.824694	2530.593696
342.216506	2531.153264
342.608253	2529.807276
342.999937	2529.172090
343.391557	2531.002029
343.783113	2526.999353
344.174605	2527.513551
344.566033	2526.253262
344.957397	2529.159488
345.348697	2524.743437
345.739934	2519.316635
346.131106	2517.655574
346.522215	2519.109947
346.913260	2515.644154
347.304241	2515.742457
347.695159	2513.332785
348.086012	2512.213649
348.476802	2510.960922
348.867528	2508.221055
349.258191	2507.001096
349.648789	2504.871208
350.039324	2506.620489
350.429796	2501.670076
350.820203	2501.135713
351.210548	2501.297030
351.600828	2499.217554
351.991045	2500.402225
352.381198	2499.041114
352.771288	2496.339055
353.161314	2499.232678
353.551276	2498.105980
353.941175	2500.515651
354.331010	2499.141937
354.720782	2498.058089
355.110490	2498.499190
355.500135	2499.300733
355.889717	2497.435506
356.279235	2496.923829
356.668689	2499.441886
357.058080	2498.544560
357.447408	2497.392657
357.836672	2497.543891
358.225873	2500.800477
358.615010	2495.000629
359.004084	2499.522544
359.393095	2501.425580
359.782043	2504.258708
360.170927	2505.556805
360.559748	2506.186949
360.948505	2506.297855
361.337199	2506.320540
361.725830	2503.805004
362.114398	2508.788185
362.502903	2506.318019
362.891344	2505.352638
363.279722	2511.510408
363.668037	2509.042763
364.056289	2512.316993
364.444478	2511.636437
364.832603	2512.422857
365.220665	2511.921262
365.608665	2513.166427
365.996601	2514.961078
366.384474	2511.727178
366.772284	2515.351767
367.160031	2511.757424
367.547715	2516.501150
367.935336	2515.994514
368.322893	2514.439318
368.710388	2515.051818
369.097820	2519.818229
369.485189	2517.655574
369.872495	2521.234794
370.259738	2523.024403
370.646918	2522.598426
371.034035	2524.975330
371.421090	2526.727131
371.808081	2536.164171
372.195010	2538.994779
372.581875	2549.263609
372.968678	2552.527756
373.355418	2560.414641
373.742096	2568.863615
374.128710	2576.944585
374.515262	2591.100145
374.901751	2600.320415
375.288177	2611.274842
375.674540	2630.164046
376.060841	2641.615027
376.447079	2657.855104
376.833254	2674.493432
377.219367	2687.481965
377.605417	2719.321893
377.991404	2726.447564
378.377329	2748.984042
378.763191	2767.749737
379.148991	2797.535395
379.534727	2826.857266
379.920402	2852.720906
380.306013	2868.819831
380.691563	2917.759352
381.077049	2939.630398
381.462474	2961.325004
381.847835	3000.439317
382.233134	3029.400745
382.618371	3038.038762
383.003545	3101.247270
383.388657	3115.574229
383.773706	3155.187616
384.158693	3172.856860
384.543618	3207.426573
384.928480	3245.630957
385.313280	3298.016108
385.698017	3302.724545
386.082692	3357.998277
386.467305	3372.098384
386.851856	3409.317223
387.236344	3434.102056
387.620770	3469.047334
388.005133	3501.063702
388.389435	3535.146943
388.773674	3549.816701
389.157851	3590.576950
389.541965	3611.769961
389.926018	3583.468923
390.310008	3654.715551
390.693936	3675.593489
391.077802	3717.460272
391.461606	3709.149930
391.845348	3773.343983
392.229027	3777.601238
392.612645	3788.285963
392.996200	3868.241184
393.379694	3905.618819
393.763125	3975.093481
394.146494	3941.431176
394.529801	4003.341586
394.913047	4054.325296
395.296230	4019.727857
395.679351	4072.160898
396.062410	4095.783745
396.445408	4080.751024
396.828343	4112.664048
397.211217	4136.170949
397.594028	4057.365111
397.976778	4120.878609
398.359466	4151.044873
398.742092	4179.081250
399.124656	4101.964199
399.507158	4182.763813
399.889598	4202.310887
400.271977	4267.903861
400.654294	4236.565528
401.036549	4242.952670
401.418742	4217.331005
401.800874	4322.081141
402.182944	4340.304912
402.564952	4405.945776
402.946898	4394.046133
403.328783	4388.536152
403.710606	4301.251093
404.092367	4491.499198
404.474067	4460.533911
404.855705	4469.174448
405.237282	4396.488572
405.618797	4503.255169
406.000250	4535.314387
406.381642	4620.840082
406.762972	4579.704267
407.144240	4593.985856
407.525447	4590.288170
407.906593	4653.095905
408.287677	4692.447152
408.668700	4619.869660
409.049661	4675.168597
409.430560	4716.095205
409.811399	4643.865553
410.192176	4804.731292
410.572891	4738.878700
410.953545	4848.128065
411.334138	4726.719437
411.714669	4793.308038
412.095139	4689.099826
412.475547	4828.782637
412.855894	4812.663548
413.236180	4821.462882
413.616405	4772.737610
413.996568	4861.066187
414.376670	4803.186179
414.756711	4758.007358
415.136691	4787.614055
415.516609	4867.539028
415.896466	4902.227208
416.276262	4936.486889
416.655997	4919.750259
417.035670	5103.311273
417.415283	5192.517011
417.794834	5135.539370
418.174324	5090.824335
418.553753	4993.963605
418.933121	5181.013098
419.312428	5251.319550
419.691674	5187.165826
420.070859	5312.715763
420.449983	5226.007917
420.829045	5339.116285
421.208047	5250.475157
421.586988	5321.515097
421.965867	5330.629503
422.344686	5462.248989
422.723444	5321.515097
423.102141	5139.274865
423.480777	5435.843425
423.859352	5206.395308
424.237866	5463.791582
424.616319	5459.642712
424.994712	5564.828908
425.373044	5442.996822
425.751314	5584.191980
426.129524	5386.495570
426.507673	5582.417493
426.885762	5664.782386
427.263789	5595.234627
427.641756	5475.444209
428.019662	5599.728816
428.397508	5608.386997
428.775292	5554.998658
429.153016	5653.472557
429.530679	5580.453964
429.908282	5661.540924
430.285824	5539.363519
430.663305	5809.995343
431.040726	5543.499786
431.418086	5542.489034
431.795385	5650.891486
432.172624	5661.487992
432.549802	5655.012629
432.926920	5668.293549
433.303977	5678.070867
433.680974	5710.881217
434.057910	5737.616976
434.434786	5739.603191
434.811601	5709.411721
435.188355	5942.897802
435.565050	5814.245035
435.941683	5795.577643
436.318257	6014.078894
436.694770	5997.102809
437.071222	6033.444487
437.447614	5960.498991
437.823946	5877.072936
438.200218	6028.970463
438.576429	5896.967849
438.952580	5993.117777
439.328670	6035.544128
439.704700	5945.143636
440.080670	5932.419764
440.456580	6203.099478
440.832429	6084.531540
441.208218	5931.421615
441.583947	6087.730152
441.959616	6090.538075
442.335224	6017.632908
442.710773	6153.121479
443.086261	6183.038207
443.461689	5977.069263
443.837057	6123.633250
444.212365	6278.215191
444.587612	6170.422719
444.962800	6323.361245
445.337927	6301.780065
445.712995	5914.616929
446.088002	6492.517162
446.462949	6322.673127
446.837837	6255.242653
447.212664	6425.684065
447.587431	6577.475728
447.962139	7121.217102
448.336786	8041.691465
448.711374	7777.575333
449.085901	6855.565938
449.460369	6774.000069
449.834776	6706.183947
450.209124	7097.090140
450.583412	7253.174345
450.957640	7396.353197
451.331808	7159.996178
451.705917	6720.031997
452.079965	6637.669625
452.453954	6847.626121
452.827883	6730.752010
453.201752	6820.507234
453.575562	6618.654393
453.949311	6821.344066
454.323001	6709.347271
454.696632	6788.526154
455.070202	6924.140754
455.443713	7079.194044
455.817164	7179.961668
456.190556	7262.850840
456.563888	7339.299938
456.937160	7380.019858
457.310373	7036.142590
457.683526	7062.961528
458.056619	6955.335414
458.429653	6943.158507
458.802628	6876.267437
459.175542	6984.891699
459.548398	7338.390010
459.921194	7496.578897
460.293930	7503.681883
460.666607	8036.799025
461.039224	8335.011002
461.411782	8472.178277
461.784280	8488.332655
462.156719	8381.787868
462.529099	8248.782065
462.901419	7838.883325
463.273680	7730.894248
463.645882	7748.830674
464.018024	7609.778007
464.390106	7783.586909
464.762130	8170.845827
465.134094	8635.814131
465.505999	9665.885699
465.877845	10885.285362
466.249631	11535.019517
466.621358	11143.838581
466.993026	10515.791470
467.364634	10263.708572
467.736184	9899.777594
468.107674	9565.985154
468.479105	9599.077808
468.850477	9362.564514
469.221790	9136.831727
469.593043	8806.679000
469.964238	8667.465016
470.335373	8680.756018
470.706449	8736.468329
471.077467	8719.212460
471.448425	10031.124857
471.819324	11102.899371
472.190164	11119.862853
472.560945	9875.320436
472.931667	9091.368081
473.302330	8953.744581
473.672934	8596.707380
474.043479	8955.524108
474.413965	8895.778873
474.784393	8775.688506
475.154761	8936.002240
475.525070	9027.363071
475.895321	8851.610804
476.265513	9029.344244
476.635645	9192.760808
477.005719	9199.674751
477.375734	9310.093664
477.745691	9545.782730
478.115588	9680.326085
478.485427	9923.750801
478.855207	10465.503440
479.224928	11277.388829
479.594591	11913.491703
479.964194	11714.197248
480.333739	11657.816983
480.703226	11571.930845
481.072653	11660.153558
481.442022	11894.834393
481.811333	12087.038466
482.180584	11888.507745
482.549777	11606.432502
482.918912	11423.335274
483.287988	11451.341404
483.657005	11468.483848
484.025964	11141.925463
484.394864	11274.631318
484.763706	11241.679816
485.132489	10999.084369
485.501213	10958.175406
485.869879	11038.155832
486.238487	10883.520958
486.607036	10991.472227
486.975527	10770.256314
487.343959	10965.175048
487.712333	11010.013591
488.080648	10939.238311
488.448905	10990.494243
488.817104	10927.530231
489.185244	11192.004286
489.553326	11346.823161
489.921350	11886.211499
490.289315	12945.920011
490.657222	13290.742496
491.025070	13203.654043
491.392861	13069.864340
491.760593	12690.552801
492.128267	12334.092813
492.495883	12007.234480
492.863440	11672.350630
493.230939	11339.359733
493.598380	11270.303487
493.965763	11136.798610
494.333088	11039.022910
494.700354	10956.403440
495.067563	11021.925837
495.434713	10846.085350
495.801805	10982.572070
496.168839	10906.271686
496.535815	10838.947076
496.902733	10835.536735
497.269593	10773.603640
497.636395	10873.713393
498.003139	10860.999603
498.369825	10731.182330
498.736453	10885.786957
499.103023	10814.129476
499.469535	10845.989568
499.835989	10830.072125
500.202385	10790.385641
500.568723	10641.149843
500.935003	10866.751560
501.301226	10672.871304
501.667390	10925.964953
502.033497	11027.095540
502.399546	10885.872657
502.765537	10795.260437
503.131470	10868.213495
503.497345	11039.307736
503.863163	10651.332974
504.228923	10962.014244
504.594625	11017.295537
504.960269	10771.947621
505.325856	10996.888947
505.691385	10786.327512
506.056856	10937.292426
506.422270	10967.766201
506.787625	10856.578512
507.152924	10972.608229
507.518164	10953.514859
507.883347	10874.373785
508.248472	10794.063163
508.613540	11028.922959
508.978550	10914.692933
509.343503	10883.861236
509.708398	11009.506955
510.073236	11120.624068
510.438016	11125.960129
510.802738	11075.442726
511.167403	11124.178081
511.532010	11024.995900
511.896561	11259.833011
512.261053	11328.042343
512.625488	11190.476816
512.989866	11177.125320
513.354186	11165.490337
513.718449	11065.521736
514.082655	11259.301169
514.446803	11161.709472
514.810894	11280.748758
515.174927	11138.915894
515.538904	11166.473362
515.902822	11317.965076
516.266684	11201.431243
516.630488	11144.698098
516.994235	11206.323683
517.357925	11262.441808
517.721558	11352.539830
518.085133	11372.817871
518.448651	11377.024714
518.812112	11256.394944
519.175516	11278.366813
519.538863	11405.076215
519.902152	11314.184211
520.265385	11478.384674
520.628560	11384.795653
520.991678	11363.272446
521.354739	11424.560274
521.717743	11361.928979
522.080690	11338.558190
522.443580	11473.797224
522.806413	11424.817373
523.169189	11461.615276
523.531908	11517.095694
523.894569	11335.793117
524.257174	11339.082470
524.619722	11460.627209
524.982213	11411.281875
525.344647	11460.007147
525.707025	11414.563666
526.069345	11510.542194
526.431608	11425.349215
526.793815	11530.116995
527.155964	11315.378964
527.518057	11370.929959
527.880093	11324.384986
528.242072	11395.659339
528.603995	11301.530915
528.965860	11220.154089
529.327669	11267.881213
529.689421	11214.404653
530.051117	11188.470437
530.412755	11292.174533
530.774337	11181.082626
531.135862	11157.598411
531.497331	11189.708040
531.858743	11036.010821
532.220098	11202.510050
532.581396	11081.537481
532.942638	11056.649305
533.303824	11017.736638
533.664953	11034.160718
534.026025	10950.601072
534.387040	11048.112111
534.747999	11050.869622
535.108902	11113.536205
535.469748	10858.584891
535.830537	10965.646396
536.191270	10948.488828
536.551947	10979.630556
536.912567	10967.932559
537.273131	10899.599718
537.633638	10881.617923
537.994089	10867.497651
538.354483	10813.375823
538.714821	10961.404265
539.075103	10967.685542
539.435328	10932.473083
539.795497	10760.471434
540.155609	10917.274004
540.515665	11007.034269
540.875665	10739.618701
541.235609	10811.535802
541.595496	10801.892075
541.955328	10953.598038
542.315102	10844.023518
542.674821	10787.159303
543.034483	10796.861003
543.394090	10798.383432
543.753640	10723.791999
544.113134	10944.879362
544.472571	10801.521550
544.831953	10949.691144
545.191278	10752.322409
545.550548	10779.895000
545.909761	10916.674107
546.268918	10888.851978
546.628019	10970.306942
546.987064	10843.849598
547.346053	10758.013872
547.704986	10863.815088
548.063863	10850.413180
548.422684	10843.433703
548.781449	10756.937585
549.140158	10859.038595
549.498811	10735.300953
549.857408	10592.222924
550.215949	10820.708181
550.574434	10671.580768
550.932864	10773.119689
551.291237	10833.729482
551.649555	10780.220154
552.007817	10791.557709
552.366022	10752.632440
552.724173	10749.932902
553.082267	10730.247196
553.440305	10870.073680
553.798288	10667.951137
554.156215	10828.322844
554.514086	10801.173710
554.871902	10654.070320
555.229661	10685.547285
555.587365	10663.237659
555.945014	10560.481299
556.302606	10681.032932
556.660143	10573.789945
557.017625	10730.796682
557.375050	10622.779878
557.732421	10759.606876
558.089735	10671.943731
558.446994	10673.166211
558.804197	10708.761798
559.161345	10715.542150
559.518437	10557.595239
559.875474	10651.239712
560.232455	10672.495738
560.589381	10626.328851
560.946251	10624.302307
561.303065	10735.048895
561.659825	10670.779225
562.016528	10600.220715
562.373177	10478.388629
562.729770	10592.701834
563.086307	10504.973154
563.442789	10602.186765
563.799216	10477.876952
564.155587	10527.413851
564.511904	10480.425256
564.868164	10480.795780
565.224370	10488.788530
565.580520	10413.803887
565.936615	10418.101471
566.292654	10288.904259
566.648638	10421.340412
567.004567	10378.281396
567.360441	10363.949396
567.716260	10271.993709
568.072023	10373.802331
568.427732	10319.950205
568.783385	10226.870341
569.138982	10296.836515
569.494525	10310.326642
569.850013	10187.864413
570.205445	10265.714952
570.560823	10161.554631
570.916145	10082.358104
571.271412	10152.911572
571.626625	10093.597356
571.981782	10078.524306
572.336884	10047.042301
572.691931	10050.210666
573.046923	10000.283078
573.401860	9950.347929
573.756743	9891.063959
574.111570	9937.508110
574.466342	9922.810626
574.821059	9948.908679
575.175722	9837.637811
575.530330	9844.947484
575.884882	9838.787194
576.239380	9773.743707
576.593823	9747.559953
576.948211	9757.387683
577.302544	9639.754878
577.656823	9654.996807
578.011047	9660.239607
578.365216	9629.644844
578.719330	9556.475017
579.073389	9567.028672
579.427394	9513.531948
579.781344	9493.226180
580.135239	9438.980844
580.489080	9450.628430
580.842866	9357.679636
581.196597	9353.573616
581.550273	9399.163291
581.903895	9367.923260
582.257463	9432.137478
582.610975	9306.632912
582.964434	9338.082150
583.317837	9265.058516
583.671186	9244.228468
584.024481	9235.824865
584.377721	9154.087596
584.730906	9131.581365
585.084037	9163.834667
585.437113	9093.775232
585.790135	9122.582905
586.143103	9015.899487
586.496016	8988.944438
586.848874	9049.960043
587.201679	9035.421355
587.554428	8925.335158
587.907124	8972.147313
588.259765	8939.710008
588.612352	8942.180174
588.964884	8822.740116
589.317362	8829.954007
589.669786	8833.644132
590.022155	8886.603973
590.374470	8897.117300
590.726731	8831.327721
591.078937	8688.978140
591.431090	8804.410480
591.783188	8673.101026
592.135232	8667.129779
592.487222	8665.574583
592.839157	8719.202377
593.191038	8650.519177
593.542866	8596.392308
593.894639	8498.223399
594.246358	8552.130977
594.598022	8565.157319
594.949633	8461.080177
595.301190	8439.592259
595.652692	8465.400446
596.004141	8573.999503
596.355535	8352.423147
596.706876	8332.661824
597.058162	8267.729242
597.409395	8346.381324
597.760573	8408.959688
598.111698	8317.233373
598.462768	8300.695868
598.813785	8270.418698
599.164748	8239.629850
599.515657	8226.225422
599.866511	8134.678068
600.217312	8264.016432
600.568060	8123.577448
600.918753	8223.704845
601.269392	8198.289868
601.619978	8105.388965
601.970510	8168.322729
602.320988	8164.864498
602.671412	8219.651758
603.021783	8156.415524
603.372100	8131.459292
603.722363	8131.847461
604.072572	8111.798792
604.422728	8121.878579
604.772830	8051.362919
605.122878	8056.809886
605.472872	8051.564565
605.822813	8080.702434
606.172701	8018.522322
606.522534	8104.627750
606.872314	8103.039787
607.222041	8070.466371
607.571714	8129.906616
607.921333	8084.087569
608.270899	8088.344823
608.620411	8179.272115
608.969870	8084.311900
609.319276	8076.301507
609.668627	8092.246677
610.017926	8130.824106
610.367171	8170.152668
610.716362	8153.229515
611.065500	8140.775344
611.414585	8170.719798
611.763616	8159.185638
612.112594	8145.267012
612.461518	8154.966192
612.810389	8218.517498
613.159207	8156.223960
613.507971	8104.063141
613.856682	8224.486224
614.205340	8173.157196
614.553945	8249.984380
614.902496	8153.617683
615.250994	8215.898619
615.599439	8193.702418
615.947830	8200.956639
616.296169	8186.871655
616.644454	8194.887089
616.992686	8187.085904
617.340864	8247.115964
617.688990	8152.264134
618.037063	8247.776355
618.385082	8184.489710
618.733048	8276.047146
619.080961	8216.432981
619.428821	8232.605002
619.776628	8235.425528
620.124382	8185.407200
620.472083	8173.507556
620.819731	8199.106535
621.167326	8094.144671
621.514868	8100.277235
621.862357	7986.518557
622.209793	8006.904983
622.557176	7939.545085
622.904506	7909.462000
623.251783	7845.061259
623.599007	7797.649207
623.946179	7801.296482
624.293297	7757.877024
624.640363	7675.759149
624.987376	7656.088566
625.334336	7610.473686
625.681243	7552.868421
626.028097	7545.629324
626.374899	7520.910026
626.721647	7509.683376
627.068343	7442.101668
627.414987	7415.980929
627.761577	7371.908642
628.108115	7409.069507
628.454600	7295.257897
628.801032	7350.811413
629.147412	7309.242058
629.493739	7305.541851
629.840014	7232.772796
630.186236	7296.707229
630.532405	7178.408992
630.878521	7230.494194
631.224585	7189.136568
631.570597	7106.254957
631.916556	7141.225442
632.262462	7140.159238
632.608316	7104.581294
632.954117	7075.965185
633.299866	7065.749286
633.645562	7057.940539
633.991206	6975.447097
634.336797	6923.235867
634.682336	6873.071345
635.027823	6847.114444
635.373257	6836.969122
635.718639	6765.467916
636.063968	6782.214629
636.409245	6675.697569
636.754470	6674.112126
637.099642	6629.359283
637.444762	6574.975315
637.789829	6584.208189
638.134845	6524.336925
638.479808	6512.434761
638.824719	6516.918867
639.169577	6443.703669
639.514383	6467.941537
639.859137	6389.680144
640.203839	6398.570219
640.548489	6387.411625
