Dividing Wavelength (nm)	Counts (n)	Blue Motor Position (mm): 43.500000	Red Motor Position (mm): 0.000000	
326.493990	2095.169073
326.888308	2095.169073
327.282561	2095.169073
327.676750	2071.130331
328.070874	2070.623695
328.464933	2079.654923
328.858929	2089.616243
329.252859	2101.367172
329.646726	2116.442743
330.040528	2132.340021
330.434265	2150.553710
330.827938	2171.144303
331.221547	2193.272448
331.615091	2211.672659
332.008571	2230.372820
332.401986	2251.480131
332.795338	2272.665580
333.188625	2290.843981
333.581847	2311.358956
333.975006	2328.632470
334.368100	2348.907991
334.761129	2366.163860
335.154095	2380.296735
335.546996	2430.514189
335.939833	2510.446724
336.332606	2526.245701
336.725315	2537.172402
337.117960	2544.978628
337.510540	2553.167983
337.903056	2563.434292
338.295508	2569.997875
338.687896	2577.002558
339.080220	2583.001531
339.472480	2588.748447
339.864676	2590.280957
340.256807	2596.587441
340.648875	2598.432503
341.040879	2596.781525
341.432818	2599.113059
341.824694	2600.355703
342.216506	2599.213882
342.608253	2599.037442
342.999937	2598.724890
343.391557	2596.297574
343.783113	2597.119282
344.174605	2595.634663
344.566033	2592.877152
344.957397	2589.411358
345.348697	2588.292222
345.739934	2586.616038
346.131106	2586.694176
346.522215	2585.867427
346.913260	2586.006059
347.304241	2582.477251
347.695159	2581.088413
348.086012	2579.162692
348.476802	2580.959864
348.867528	2577.385686
349.258191	2573.897207
349.648789	2577.776375
350.039324	2572.546178
350.429796	2575.538103
350.820203	2574.207238
351.210548	2571.553071
351.600828	2571.026270
351.991045	2570.819583
352.381198	2570.184397
352.771288	2569.818914
353.161314	2566.262380
353.551276	2571.356466
353.941175	2567.310940
354.331010	2567.867987
354.720782	2572.410067
355.110490	2576.866447
355.500135	2570.267577
355.889717	2570.970818
356.279235	2573.589697
356.668689	2572.185736
357.058080	2570.922927
357.447408	2568.803121
357.836672	2573.204049
358.225873	2568.994685
358.615010	2574.527352
359.004084	2575.225551
359.393095	2575.550706
359.782043	2577.667990
360.170927	2577.047928
360.559748	2576.957188
360.948505	2579.898701
361.337199	2579.697055
361.725830	2582.820050
362.114398	2580.347364
362.502903	2581.406006
362.891344	2579.908783
363.279722	2583.142683
363.668037	2586.759711
364.056289	2583.329206
364.444478	2585.711151
364.832603	2587.951944
365.220665	2588.418251
365.608665	2589.113930
365.996601	2590.535536
366.384474	2592.791452
366.772284	2590.606112
367.160031	2591.135433
367.547715	2588.748447
367.935336	2592.315063
368.322893	2592.791452
368.710388	2592.148705
369.097820	2595.387646
369.485189	2594.467636
369.872495	2596.252204
370.259738	2597.267997
370.646918	2598.064499
371.034035	2599.385281
371.421090	2598.903851
371.808081	2601.192535
372.195010	2602.455344
372.581875	2599.105497
372.968678	2602.730087
373.355418	2603.017432
373.742096	2605.608586
374.128710	2603.755962
374.515262	2609.581015
374.901751	2607.937599
375.288177	2608.111518
375.674540	2605.550612
376.060841	2609.104626
376.447079	2610.606890
376.833254	2613.200563
377.219367	2610.281735
377.605417	2612.963629
377.991404	2610.483381
378.377329	2613.460183
378.763191	2612.381376
379.148991	2617.127622
379.534727	2619.481841
379.920402	2619.890174
380.306013	2623.020731
380.691563	2626.284878
381.077049	2626.148767
381.462474	2629.299488
381.847835	2632.160343
382.233134	2635.747124
382.618371	2637.781229
383.003545	2642.527476
383.388657	2646.308341
383.773706	2654.858138
384.158693	2663.002122
384.543618	2669.147289
384.928480	2676.817404
385.313280	2689.105217
385.698017	2702.529809
386.082692	2720.864486
386.467305	2736.827300
386.851856	2759.968716
387.236344	2786.898560
387.620770	2811.002837
388.005133	2843.057014
388.389435	2881.339536
388.773674	2917.658529
389.157851	2961.892134
389.541965	3014.476409
389.926018	3051.851524
390.310008	3115.576750
390.693936	3175.816018
391.077802	3236.856829
391.461606	3309.600679
391.845348	3380.028119
392.229027	3460.442084
392.612645	3565.101479
392.996200	3653.205725
393.379694	3757.867641
393.763125	3883.462948
394.146494	3972.887976
394.529801	4095.980350
394.913047	4240.505189
395.296230	4314.007733
395.679351	4405.479470
396.062410	4579.742076
396.445408	4627.496926
396.828343	4770.721148
397.211217	4911.248353
397.594028	4952.928613
397.976778	5123.773317
398.359466	5291.172392
398.742092	5369.282550
399.124656	5534.473600
399.507158	5722.914451
399.889598	5833.441749
400.271977	6041.853132
400.654294	6153.963352
401.036549	6374.327310
401.418742	6485.441902
401.800874	6764.913389
402.182944	6915.094404
402.564952	7255.871362
402.946898	7247.745022
403.328783	7380.166052
403.710606	7619.411652
404.092367	7897.393477
404.474067	8259.902851
404.855705	8208.036939
405.237282	8270.093543
405.618797	8683.644599
406.000250	8968.172363
406.381642	9347.312503
406.762972	9403.075226
407.144240	9341.132048
407.525447	9631.767170
407.906593	9672.237553
408.287677	9968.342327
408.668700	10180.713536
409.049661	10241.401467
409.430560	10457.813160
409.811399	10500.912505
410.192176	10709.233146
410.572891	10840.817344
410.953545	11343.301915
411.334138	10932.841087
411.714669	11525.741273
412.095139	10977.845988
412.475547	11469.204733
412.855894	11390.386292
413.236180	11741.260682
413.616405	11493.480409
413.996568	11793.605503
414.376670	11805.979015
414.756711	11738.150290
415.136691	12026.597552
415.516609	12227.611041
415.896466	12329.152482
416.276262	12640.819298
416.655997	13107.771297
417.035670	13176.477182
417.415283	13806.976814
417.794834	13908.256116
418.174324	13671.286597
418.553753	13596.312036
418.933121	14089.926698
419.312428	13934.185291
419.691674	13855.810472
420.070859	14323.367409
420.449983	14005.371424
420.829045	14550.509198
421.208047	14316.166120
421.586988	14766.348721
421.965867	15028.347568
422.344686	15026.305901
422.723444	15607.044303
423.102141	14319.863807
423.480777	15511.176681
423.859352	15009.712943
424.237866	16119.328878
424.616319	15826.226111
424.994712	16483.660628
425.373044	16277.555574
425.751314	16955.404243
426.129524	16105.352279
426.507673	17189.286055
426.885762	16908.569403
427.263789	17094.308196
427.641756	17278.214530
428.019662	17342.995877
428.397508	17388.436838
428.775292	17687.089915
429.153016	17659.976069
429.530679	17745.751302
429.908282	17781.848484
430.285824	17512.587854
430.663305	18218.082212
431.040726	17832.751535
431.418086	17674.809665
431.795385	18315.991502
432.172624	18748.262882
432.549802	18306.496488
432.926920	18516.669754
433.303977	18405.565244
433.680974	18658.132093
434.057910	18963.852868
434.434786	18999.534155
434.811601	18933.956305
435.188355	19980.716613
435.565050	19647.748401
435.941683	19617.622466
436.318257	20508.477530
436.694770	20306.450769
437.071222	20907.452089
437.447614	19965.124324
437.823946	19995.537605
438.200218	20175.191725
438.576429	19949.877354
438.952580	20255.199878
439.328670	20227.854139
439.704700	20641.914351
440.080670	20216.599763
440.456580	20831.214719
440.832429	20994.046509
441.208218	20003.041363
441.583947	20456.155394
441.959616	20572.903476
442.335224	20827.620377
442.710773	20971.462140
443.086261	21516.423474
443.461689	20855.129953
443.837057	21019.884943
444.212365	21671.053306
444.587612	21672.220333
444.962800	21264.524578
445.337927	21701.154036
445.712995	20416.242058
446.088002	22317.873674
446.462949	22525.118029
446.837837	22709.467984
447.212664	22733.907498
447.587431	25745.729740
447.962139	28717.999089
448.336786	30993.245739
448.711374	29260.893549
449.085901	25537.096547
449.460369	25569.559057
449.834776	25589.247283
450.209124	28160.913780
450.583412	27623.373025
450.957640	28080.063755
451.331808	26732.490235
451.705917	25360.255390
452.079965	25412.680870
452.453954	25808.406406
452.827883	25725.693674
453.201752	25514.164338
453.575562	25678.826067
453.949311	26817.229510
454.323001	26899.581800
454.696632	26690.205036
455.070202	28295.139542
455.443713	28471.980699
455.817164	29067.903057
456.190556	29599.704458
456.563888	29017.579738
456.937160	29435.672874
457.310373	27719.500267
457.683526	28174.973558
458.056619	28180.833899
458.429653	28160.457556
458.802628	28784.547361
459.175542	28928.396686
459.548398	30309.259465
459.921194	31948.491461
460.293930	32721.648185
460.666607	34807.619673
461.039224	36597.461182
461.411782	36927.223220
461.784280	35615.623374
462.156719	35042.996188
462.529099	34467.903878
462.901419	33136.081443
463.273680	32082.145052
463.645882	32215.476010
464.018024	32239.290421
464.390106	33207.668348
464.762130	36176.418972
465.134094	40583.423390
465.505999	46100.696573
465.877845	50593.410689
466.249631	51507.863394
466.621358	49593.986816
466.993026	47341.755553
467.364634	45195.058326
467.736184	43240.729008
468.107674	41972.772952
468.479105	41179.023114
468.850477	40456.340943
469.221790	39001.746247
469.593043	37221.891265
469.964238	36321.591599
470.335373	36290.117155
470.706449	38184.595374
471.077467	41012.428103
471.448425	45689.928234
471.819324	48392.369823
472.190164	46316.710015
472.560945	42683.842825
472.931667	39541.094256
473.302330	38467.043662
473.672934	37617.412634
474.043479	38169.618106
474.413965	37368.205714
474.784393	37018.067333
475.154761	37939.164278
475.525070	37989.545570
475.895321	37505.113370
476.265513	38140.717171
476.635645	39145.829986
477.005719	38997.562090
477.375734	39515.656594
477.745691	40241.330690
478.115588	41637.425316
478.485427	43777.150627
478.855207	47304.796334
479.224928	49954.681374
479.594591	51452.934982
479.964194	50323.935811
480.333739	50463.532922
480.703226	50537.043028
481.072653	51211.360369
481.442022	51677.543592
481.811333	51879.855178
482.180584	50589.677715
482.549777	50050.947248
482.918912	49536.810049
483.287988	49212.245441
483.657005	48386.741375
484.025964	47693.948205
484.394864	47688.617185
484.763706	47246.455060
485.132489	46375.741927
485.501213	46201.534773
485.869879	46370.587347
486.238487	45953.194932
486.607036	46145.209962
486.975527	45580.683910
487.343959	45818.848182
487.712333	45884.025260
488.080648	45756.131187
488.448905	46231.748929
488.817104	46043.867646
489.185244	47063.869509
489.553326	48872.217093
489.921350	51660.055829
490.289315	54454.435461
490.657222	54946.341171
491.025070	55151.168293
491.392861	54216.805551
491.760593	52949.270431
492.128267	51235.199986
492.495883	49676.039157
492.863440	48255.343700
493.230939	46883.537354
493.598380	45786.141176
493.965763	45470.504451
494.333088	44632.896575
494.700354	44141.981452
495.067563	43843.318292
495.434713	43699.292527
495.801805	43780.366884
496.168839	43378.801171
496.535815	43038.926579
496.902733	43064.281062
497.269593	42638.177533
497.636395	42562.101481
498.003139	42957.950525
498.369825	42403.063159
498.736453	42707.795868
499.103023	42225.014646
499.469535	42106.343364
499.835989	42195.297044
500.202385	41846.149250
500.568723	41857.111239
500.935003	42065.265522
501.301226	41849.872142
501.667390	42474.713079
502.033497	42718.228536
502.399546	42146.791062
502.765537	41419.004722
503.131470	41805.933445
503.497345	42176.382635
503.863163	40812.075005
504.228923	41442.246962
504.594625	41859.573842
504.960269	41107.196754
505.325856	41818.848881
505.691385	41169.865858
506.056856	41299.917545
506.422270	41760.898297
506.787625	41310.350213
507.152924	41519.364013
507.518164	41598.510129
507.883347	40795.754270
508.248472	41063.416854
508.613540	41549.832747
508.978550	41837.175996
509.343503	41587.969076
509.708398	41793.761579
510.073236	42326.528361
510.438016	42339.395907
510.802738	41776.858590
511.167403	42417.773246
511.532010	42617.118113
511.896561	42934.549488
512.261053	43791.507834
512.625488	43322.821678
512.989866	43201.208883
513.354186	43034.321485
513.718449	43034.714695
514.082655	43707.224782
514.446803	43362.702246
514.810894	43914.955609
515.174927	43814.205629
515.538904	43719.736926
515.902822	44379.757555
516.266684	43820.406248
516.630488	44251.676960
516.994235	44093.551087
517.357925	44673.631619
517.721558	44860.575248
518.085133	45166.664027
518.448651	45280.160564
518.812112	45047.176078
519.175516	45150.741542
519.538863	45486.527759
519.902152	45441.737107
520.265385	45908.482418
520.628560	45936.488548
520.991678	45730.330562
521.354739	45948.771320
521.717743	46255.323885
522.080690	46163.080852
522.443580	46695.315793
522.806413	46742.798421
523.169189	46700.666977
523.531908	46872.966054
523.894569	46719.823362
524.257174	46891.547747
524.619722	47174.051488
524.982213	47137.087228
525.344647	47074.249245
525.707025	47130.984911
526.069345	47538.718475
526.431608	47425.721012
526.793815	47762.354142
527.155964	47281.801111
527.518057	47459.043039
527.880093	47245.824916
528.242072	47763.067465
528.603995	47445.023590
528.965860	47454.001885
529.327669	47551.838078
529.689421	47438.409596
530.051117	47391.526865
530.412755	47546.534784
530.774337	47617.332749
531.135862	47433.701158
531.497331	47606.564844
531.858743	47498.379162
532.220098	47853.236064
532.581396	47566.843073
532.942638	47211.421562
533.303824	47536.553300
533.664953	47505.025923
534.026025	47194.347174
534.387040	47677.803910
534.747999	47636.534504
535.108902	47802.942992
535.469748	47300.793658
535.830537	47407.582940
536.191270	47597.563864
536.551947	47259.083151
536.912567	47561.323009
537.273131	47696.166313
537.633638	47187.161009
537.994089	47515.733334
538.354483	47091.313551
538.714821	47678.353396
539.075103	48022.923823
539.435328	47781.140002
539.795497	47652.240219
540.155609	47654.581835
540.515665	48109.775342
540.875665	47547.623673
541.235609	47889.950787
541.595496	47851.113738
541.955328	48532.196308
542.315102	47888.675375
542.674821	47664.598607
543.034483	47691.314202
543.394090	47680.702573
543.753640	47618.267883
544.113134	48632.069127
544.472571	47597.067310
544.831953	48865.260301
545.191278	48055.754337
545.550548	47778.442985
545.909761	48232.038446
546.268918	48419.440820
546.628019	48737.701465
546.987064	48289.126993
547.346053	47543.994043
547.704986	48408.869520
548.063863	47979.721134
548.422684	48155.927105
548.781449	47984.356475
549.140158	48383.751971
549.498811	48215.082525
549.857408	47658.614758
550.215949	48490.072426
550.574434	48420.577600
550.932864	48173.732461
551.291237	48885.525740
551.649555	48471.004262
552.007817	48711.000993
552.366022	48354.357003
552.724173	48516.712404
553.082267	48906.451569
553.440305	49161.256690
553.798288	48460.402715
554.156215	48781.393145
554.514086	48984.723044
554.871902	48714.164317
555.229661	48737.325899
555.587365	48554.601716
555.945014	48655.029062
556.302606	48569.901618
556.660143	48787.165266
557.017625	48853.199341
557.375050	48639.555241
557.732421	48978.492178
558.089735	48942.921797
558.446994	48850.885451
558.804197	49304.392692
559.161345	49221.427903
559.518437	48452.969534
559.875474	48775.656312
560.232455	48941.832908
560.589381	49118.245566
560.946251	48781.849370
561.303065	49460.113934
561.659825	49239.939020
562.016528	48911.822919
562.373177	48611.647413
562.729770	49097.985168
563.086307	48608.400910
563.442789	49060.247091
563.799216	49086.992932
564.155587	48878.445439
564.511904	48898.269777
564.868164	48967.421804
565.224370	49201.117094
565.580520	48943.075552
565.936615	49141.364297
566.292654	48832.139920
566.648638	49091.557697
567.004567	49047.782838
567.360441	49100.079768
567.716260	48941.543041
568.072023	49211.474144
568.427732	49173.602476
568.783385	48706.491681
569.138982	49110.401530
569.494525	49022.554383
569.850013	48785.168969
570.205445	48777.156055
570.560823	48716.062312
570.916145	48584.291592
571.271412	48605.169530
571.626625	48338.890743
571.981782	48368.051297
572.336884	48049.672185
572.691931	48367.521976
573.046923	47953.479408
573.401860	47793.843710
573.756743	47753.809386
574.111570	47857.634470
574.466342	47694.951395
574.821059	47792.127197
575.175722	47306.669123
575.530330	47316.159095
575.884882	47034.035961
576.239380	46974.452043
576.593823	46929.963860
576.948211	46850.600975
577.302544	46376.498100
577.656823	46377.556742
578.011047	46594.835514
578.365216	46318.131621
578.719330	46077.010712
579.073389	45928.468072
579.427394	45999.639082
579.781344	45952.481609
580.135239	45590.620024
580.489080	45654.456155
580.842866	45149.937478
581.196597	45587.139107
581.550273	45526.970416
581.903895	45377.565739
582.257463	45783.245033
582.610975	45162.588254
582.964434	45444.608044
583.317837	45059.516822
583.671186	44891.008693
584.024481	45103.379902
584.377721	44600.270227
584.730906	44887.807561
585.084037	44914.313948
585.437113	44625.899454
585.790135	44647.626827
586.143103	44236.276235
586.496016	44337.051421
586.848874	44350.879306
587.201679	44359.600502
587.554428	43851.396741
587.907124	44022.889233
588.259765	43772.505204
588.612352	44002.903579
588.964884	43364.391033
589.317362	43660.147967
589.669786	43597.037762
590.022155	43340.054863
590.374470	43761.397022
590.726731	43273.158751
591.078937	42768.080506
591.431090	42885.839339
591.783188	42522.977086
592.135232	42191.092722
592.487222	42436.755711
592.839157	42527.186449
593.191038	42163.888135
593.542866	41924.498863
593.894639	41325.466113
594.246358	41593.617689
594.598022	41563.995869
594.949633	41166.624396
595.301190	41108.063833
595.652692	40938.234921
596.004141	41247.953331
596.355535	40272.457295
596.706876	40200.643537
597.058162	40039.813086
597.409395	40505.598057
597.760573	40572.393346
598.111698	40141.762861
598.462768	40149.125466
598.813785	40192.393689
599.164748	39646.456892
599.515657	40016.253253
599.866511	39503.149491
600.217312	40126.150407
600.568060	39082.276160
600.918753	39842.136841
601.269392	39779.639136
601.619978	39443.742014
601.970510	39643.462447
602.320988	39804.703753
602.671412	40108.947470
603.021783	39858.901198
603.372100	39511.280872
603.722363	39614.294331
604.072572	39669.313484
604.422728	39686.034991
604.772830	39504.868525
605.122878	39600.363102
605.472872	39523.679590
605.822813	39796.242176
606.172701	39631.119182
606.522534	39885.894056
606.872314	40117.540116
607.222041	39879.819466
607.571714	40248.211865
607.921333	39712.080112
608.270899	40007.148929
608.620411	40346.385816
608.969870	40137.296398
609.319276	40132.635852
609.668627	40195.143639
610.017926	40675.502586
610.367171	40819.493063
610.716362	40906.352144
611.065500	40849.041786
611.414585	41027.980063
611.763616	41319.242808
612.112594	41274.968875
612.461518	41473.791982
612.810389	41776.770370
613.159207	41635.192085
613.507971	41712.946842
613.856682	42180.927235
614.205340	42068.421284
614.553945	42779.050057
614.902496	42221.059861
615.250994	42685.077908
615.599439	42764.839044
615.947830	42965.451762
616.296169	43039.367680
616.644454	43157.741534
616.992686	43328.603882
617.340864	43830.874204
617.688990	43539.006520
618.037063	44164.495245
618.385082	44125.000325
618.733048	44424.177682
619.080961	44422.582157
619.428821	44453.413854
619.776628	44550.768617
620.124382	44384.554213
620.472083	44485.241179
620.819731	44619.839987
621.167326	44277.510352
621.514868	44258.434626
621.862357	43809.116584
622.209793	43838.821583
622.557176	43498.271476
622.904506	43229.293151
623.251783	42892.818817
623.599007	42654.286540
623.946179	42436.637244
624.293297	42390.775347
624.640363	41803.720378
624.987376	41778.527212
625.334336	41540.365460
625.681243	41194.577594
626.028097	41165.376711
626.374899	41008.254028
626.721647	41006.293019
627.068343	40896.781513
627.414987	40660.265698
627.761577	40435.253796
628.108115	40780.749275
628.454600	40227.522970
628.801032	40430.648702
629.147412	40384.522145
629.493739	40387.486343
629.840014	40046.822810
630.186236	40368.513961
630.532405	39966.620573
630.878521	40181.807266
631.224585	40054.402185
631.570597	39753.435218
631.916556	39926.931569
632.262462	39862.911436
632.608316	39881.820804
632.954117	39779.939084
633.299866	39772.284092
633.645562	39671.602168
633.991206	39185.385400
634.336797	38743.387113
634.682336	38740.548943
635.027823	38502.722428
