Dividing Wavelength (nm)	Counts (n)	Blue Motor Position (mm): 12.500000	Red Motor Position (mm): 0.000000	
326.493990	2138.444859
326.888308	2138.444859
327.282561	2138.444859
327.676750	2106.945209
328.070874	2104.036463
328.464933	2108.142483
328.858929	2114.320417
329.252859	2123.770060
329.646726	2134.369086
330.040528	2146.992135
330.434265	2165.737666
330.827938	2183.905984
331.221547	2201.948274
331.615091	2218.712631
332.008571	2239.822463
332.401986	2258.517582
332.795338	2278.294028
333.188625	2297.639456
333.581847	2316.768114
333.975006	2332.834272
334.368100	2352.429237
334.761129	2369.007071
335.154095	2386.283105
335.546996	2404.761455
335.939833	2422.791141
336.332606	2440.878801
336.725315	2451.603856
337.117960	2459.934363
337.510540	2468.274952
337.903056	2480.698876
338.295508	2485.684577
338.687896	2494.438540
339.080220	2504.198214
339.472480	2509.584687
339.864676	2514.071314
340.256807	2518.472241
340.648875	2523.405010
341.040879	2526.235618
341.432818	2525.078673
341.824694	2527.689991
342.216506	2529.414066
342.608253	2527.246370
342.999937	2528.368026
343.391557	2526.679240
343.783113	2525.867614
344.174605	2528.849457
344.566033	2521.837212
344.957397	2520.718075
345.348697	2520.072808
345.739934	2517.164062
346.131106	2519.364526
346.522215	2513.703310
346.913260	2515.152642
347.304241	2512.571571
347.695159	2509.907321
348.086012	2509.637619
348.476802	2507.069151
348.867528	2506.751559
349.258191	2504.004130
349.648789	2502.776609
350.039324	2499.996413
350.429796	2501.662514
350.820203	2498.408449
351.210548	2499.832575
351.600828	2496.215547
351.991045	2498.352996
352.381198	2494.859477
352.771288	2495.464415
353.161314	2495.177069
353.551276	2495.686226
353.941175	2494.458705
354.331010	2494.604898
354.720782	2495.040958
355.110490	2496.190341
355.500135	2494.277223
355.889717	2494.219250
356.279235	2494.035248
356.668689	2495.119096
357.058080	2494.935094
357.447408	2492.971565
357.836672	2494.083139
358.225873	2494.410814
358.615010	2491.701194
359.004084	2501.327277
359.393095	2498.262256
359.782043	2497.067502
360.170927	2499.053717
360.559748	2499.086484
360.948505	2500.863491
361.337199	2502.711074
361.725830	2499.993892
362.114398	2501.859119
362.502903	2501.992709
362.891344	2501.498676
363.279722	2501.954901
363.668037	2503.903307
364.056289	2503.643687
364.444478	2502.958090
364.832603	2503.605879
365.220665	2505.932371
365.608665	2507.298524
365.996601	2507.001096
366.384474	2503.469768
366.772284	2505.796260
367.160031	2504.046980
367.547715	2505.014881
367.935336	2506.733915
368.322893	2505.829027
368.710388	2508.931858
369.097820	2509.609893
369.485189	2506.118894
369.872495	2506.393637
370.259738	2509.057887
370.646918	2506.832217
371.034035	2508.899090
371.421090	2509.337671
371.808081	2510.827332
372.195010	2513.237003
372.581875	2510.285408
372.968678	2510.212311
373.355418	2507.530417
373.742096	2514.184740
374.128710	2510.555109
374.515262	2514.741788
374.901751	2508.465551
375.288177	2512.884122
375.674540	2512.566530
376.060841	2512.296828
376.447079	2513.040398
376.833254	2513.804133
377.219367	2508.573936
377.605417	2512.377486
377.991404	2509.055366
378.377329	2511.923783
378.763191	2509.191477
379.148991	2516.198681
379.534727	2513.816736
379.920402	2516.042405
380.306013	2514.998886
380.691563	2518.557941
381.077049	2517.128774
381.462474	2514.739267
381.847835	2515.334123
382.233134	2513.955368
382.618371	2514.714061
383.003545	2519.919053
383.388657	2515.003928
383.773706	2518.177334
384.158693	2513.627692
384.543618	2517.592560
384.928480	2517.350585
385.313280	2518.023579
385.698017	2516.496109
386.082692	2518.018537
386.467305	2519.508198
386.851856	2517.600122
387.236344	2519.125071
387.620770	2519.029289
388.005133	2517.060718
388.389435	2518.131963
388.773674	2520.617252
389.157851	2518.487365
389.541965	2517.821933
389.926018	2519.581295
390.310008	2519.717406
390.693936	2519.253620
391.077802	2517.794206
391.461606	2520.196316
391.845348	2520.405524
392.229027	2520.365195
392.612645	2520.768487
392.996200	2522.253107
393.379694	2521.519619
393.763125	2522.558097
394.146494	2524.309898
394.529801	2522.883251
394.913047	2523.402490
395.296230	2523.899043
395.679351	2520.745802
396.062410	2523.949455
396.445408	2525.855011
396.828343	2523.289064
397.211217	2520.380318
397.594028	2521.534742
397.976778	2519.525843
398.359466	2524.158663
398.742092	2521.514578
399.124656	2523.339475
399.507158	2526.013808
399.889598	2524.458612
400.271977	2523.210926
400.654294	2526.419620
401.036549	2524.914836
401.418742	2525.403828
401.800874	2525.794517
402.182944	2526.177645
402.564952	2524.761081
402.946898	2528.756195
403.328783	2526.401976
403.710606	2529.285516
404.092367	2526.142357
404.474067	2528.564631
404.855705	2527.357275
405.237282	2526.190248
405.618797	2527.790814
406.000250	2528.985568
406.381642	2528.549508
406.762972	2528.650331
407.144240	2527.775691
407.525447	2528.378109
407.906593	2527.352234
408.287677	2528.899868
408.668700	2529.225023
409.049661	2530.177801
409.430560	2525.938190
409.811399	2532.877338
410.192176	2529.298119
410.572891	2528.463808
410.953545	2528.922553
411.334138	2528.529343
411.714669	2528.957841
412.095139	2530.248377
412.475547	2530.626463
412.855894	2530.941535
413.236180	2528.710825
413.616405	2528.640249
413.996568	2530.465146
414.376670	2533.154602
414.756711	2529.802235
415.136691	2529.789632
415.516609	2530.921371
415.896466	2531.329704
416.276262	2531.433048
416.655997	2530.886083
417.035670	2528.496576
417.415283	2529.209899
417.794834	2526.674199
418.174324	2532.753830
418.553753	2531.125537
418.933121	2532.428676
419.312428	2531.790970
419.691674	2532.905065
420.070859	2535.337422
420.449983	2530.054292
420.829045	2533.769623
421.208047	2534.064530
421.586988	2533.915816
421.965867	2535.876825
422.344686	2533.177287
422.723444	2531.801052
423.102141	2531.458254
423.480777	2533.416742
423.859352	2529.071267
424.237866	2532.509334
424.616319	2535.478574
424.994712	2533.860363
425.373044	2534.782895
425.751314	2536.199459
426.129524	2531.826258
426.507673	2535.445806
426.885762	2533.653676
427.263789	2536.403626
427.641756	2535.382792
428.019662	2532.907585
428.397508	2536.093595
428.775292	2532.703419
429.153016	2533.409180
429.530679	2535.874304
429.908282	2535.589479
430.285824	2537.686599
430.663305	2538.810777
431.040726	2534.750127
431.418086	2537.058976
431.795385	2536.055786
432.172624	2536.000333
432.549802	2539.120807
432.926920	2537.585776
433.303977	2538.357073
433.680974	2537.011085
434.057910	2537.106867
434.434786	2536.080992
434.811601	2539.645088
435.188355	2535.100487
435.565050	2539.163657
435.941683	2538.435211
436.318257	2537.545447
436.694770	2533.434386
437.071222	2533.535209
437.447614	2535.702905
437.823946	2533.973789
438.200218	2537.260622
438.576429	2538.445293
438.952580	2536.015457
439.328670	2539.140972
439.704700	2538.072248
440.080670	2538.838503
440.456580	2539.687937
440.832429	2539.592155
441.208218	2540.880170
441.583947	2538.959491
441.959616	2542.417722
442.335224	2537.303472
442.710773	2539.619882
443.086261	2537.195087
443.461689	2540.257588
443.837057	2540.607948
444.212365	2543.282280
444.587612	2538.009233
444.962800	2538.510828
445.337927	2540.302958
445.712995	2540.986034
446.088002	2540.383617
446.462949	2541.084337
446.837837	2542.238761
447.212664	2539.244316
447.587431	2540.247505
447.962139	2539.425797
448.336786	2543.912424
448.711374	2541.565767
449.085901	2544.172044
449.460369	2540.030736
449.834776	2541.253216
450.209124	2538.677186
450.583412	2540.834800
450.957640	2540.912938
451.331808	2540.323123
451.705917	2544.053577
452.079965	2542.263967
452.453954	2542.125335
452.827883	2542.173226
453.201752	2543.524255
453.575562	2541.875798
453.949311	2541.943854
454.323001	2541.046528
454.696632	2542.818494
455.070202	2542.442928
455.443713	2540.413863
455.817164	2539.566950
456.190556	2537.429500
456.563888	2539.637526
456.937160	2536.993441
457.310373	2542.831097
457.683526	2545.404606
458.056619	2542.546272
458.429653	2541.522917
458.802628	2544.887887
459.175542	2544.923176
459.548398	2544.666077
459.921194	2545.603731
460.293930	2542.359749
460.666607	2542.911755
461.039224	2541.240613
461.411782	2543.665408
461.784280	2543.047866
462.156719	2541.817825
462.529099	2543.481406
462.901419	2547.491643
463.273680	2542.359749
463.645882	2545.689431
464.018024	2544.028371
464.390106	2544.923176
464.762130	2544.532486
465.134094	2545.150027
465.505999	2545.059287
465.877845	2547.481561
466.249631	2544.010727
466.621358	2545.265974
466.993026	2545.674308
467.364634	2547.867209
467.736184	2546.072559
468.107674	2544.875285
468.479105	2547.010213
468.850477	2542.818494
469.221790	2545.875954
469.593043	2544.971067
469.964238	2546.553989
470.335373	2545.810419
470.706449	2545.684390
471.077467	2545.023999
471.448425	2543.768751
471.819324	2547.078269
472.190164	2544.658515
472.560945	2546.506098
472.931667	2549.011551
473.302330	2546.672456
473.672934	2547.476520
474.043479	2547.239586
474.413965	2544.875285
474.784393	2541.109543
475.154761	2542.523586
475.525070	2540.867567
475.895321	2546.004503
476.265513	2540.774306
476.635645	2545.853268
477.005719	2548.295708
477.375734	2546.455686
477.745691	2546.622044
478.115588	2547.295038
478.485427	2547.219421
478.855207	2549.127498
479.224928	2547.252189
479.594591	2544.890408
479.964194	2547.499205
480.333739	2547.000131
480.703226	2548.409133
481.072653	2549.475338
481.442022	2547.600028
481.811333	2547.342929
482.180584	2549.056922
482.549777	2548.492312
482.918912	2548.197405
483.287988	2550.574309
483.657005	2544.734132
484.025964	2548.822508
484.394864	2547.673125
484.763706	2550.491130
485.132489	2549.974412
485.501213	2550.808723
485.869879	2548.920811
486.238487	2549.349309
486.607036	2547.479041
486.975527	2550.208825
487.343959	2548.729247
487.712333	2550.586912
488.080648	2551.327962
488.448905	2550.178578
488.817104	2549.513146
489.185244	2550.536500
489.553326	2549.548434
489.921350	2548.356201
490.289315	2552.189999
490.657222	2550.879299
491.025070	2549.339226
491.392861	2551.610266
491.760593	2549.021634
492.128267	2549.074566
492.495883	2551.511964
492.863440	2553.662016
493.230939	2550.634803
493.598380	2552.769732
493.965763	2543.546941
494.333088	2546.891746
494.700354	2544.000644
495.067563	2548.643547
495.434713	2546.160779
495.801805	2548.699000
496.168839	2548.348640
496.535815	2550.836449
496.902733	2553.364588
497.269593	2552.129505
497.636395	2551.695966
498.003139	2549.540873
498.369825	2549.871068
498.736453	2550.581871
499.103023	2546.745553
499.469535	2549.422405
499.835989	2553.498178
500.202385	2549.631613
500.568723	2549.792930
500.935003	2552.742005
501.301226	2552.162272
501.667390	2549.873589
502.033497	2552.444577
502.399546	2554.234187
502.765537	2551.002807
503.131470	2550.576830
503.497345	2551.680842
503.863163	2553.228477
504.228923	2551.345606
504.594625	2552.444577
504.960269	2552.711758
505.325856	2552.900802
505.691385	2551.592622
506.056856	2549.777807
506.422270	2549.684545
506.787625	2551.448949
507.152924	2551.275029
507.518164	2550.657488
507.883347	2552.631100
508.248472	2555.474311
508.613540	2552.232849
508.978550	2550.949875
509.343503	2554.972716
509.708398	2554.448436
510.073236	2552.905843
510.438016	2554.266954
510.802738	2555.300391
511.167403	2556.195196
511.532010	2554.269475
511.896561	2556.613611
512.261053	2556.890875
512.625488	2552.641182
512.989866	2552.434495
513.354186	2552.520194
513.718449	2551.872406
514.082655	2554.236707
514.446803	2554.740823
514.810894	2552.212684
515.174927	2555.018086
515.538904	2555.854918
515.902822	2555.146636
516.266684	2554.922304
516.630488	2556.951369
516.994235	2554.335010
517.357925	2555.398693
517.721558	2556.497665
518.085133	2554.070349
518.448651	2556.787531
518.812112	2556.328786
519.175516	2557.631924
519.538863	2557.883982
519.902152	2558.756102
520.265385	2557.049671
520.628560	2559.353478
520.991678	2560.865825
521.354739	2560.144940
521.717743	2561.644683
522.080690	2559.098900
522.443580	2560.066802
522.806413	2562.718449
523.169189	2561.359858
523.531908	2561.138047
523.894569	2560.679302
524.257174	2559.771894
524.619722	2558.166287
524.982213	2562.640311
525.344647	2562.904971
525.707025	2561.107800
526.069345	2563.328428
526.431608	2561.069991
526.793815	2560.520506
527.155964	2562.279868
527.518057	2564.654252
527.880093	2562.506720
528.242072	2565.566701
528.603995	2565.249108
528.965860	2566.579972
529.327669	2563.220043
529.689421	2565.082750
530.051117	2566.564849
530.412755	2567.315981
530.774337	2563.744323
531.135862	2565.854046
531.497331	2564.291289
531.858743	2560.873386
532.220098	2565.876732
532.581396	2561.977399
532.942638	2564.671896
533.303824	2565.123079
533.664953	2568.626681
534.026025	2566.217009
534.387040	2570.191959
534.747999	2568.414953
535.108902	2568.235992
535.469748	2568.094839
535.830537	2567.439489
536.191270	2570.897721
536.551947	2571.568194
536.912567	2568.750189
537.273131	2570.703636
537.633638	2569.581980
537.994089	2569.208934
538.354483	2571.147258
538.714821	2570.577607
539.075103	2575.117167
539.435328	2574.567681
539.795497	2572.392423
540.155609	2570.799418
540.515665	2572.954512
540.875665	2571.323698
541.235609	2568.455282
541.595496	2573.463668
541.955328	2571.076682
542.315102	2575.225551
542.674821	2570.292782
543.034483	2574.161868
543.394090	2573.004923
543.753640	2571.888307
544.113134	2570.474264
544.472571	2573.589697
544.831953	2573.226734
545.191278	2574.534913
545.550548	2575.989286
545.909761	2574.572722
546.268918	2576.059862
546.628019	2573.249419
546.987064	2574.028277
547.346053	2574.786971
547.704986	2575.974163
548.063863	2574.746642
548.422684	2575.696899
548.781449	2575.026426
549.140158	2574.184553
549.498811	2575.459965
549.857408	2571.053997
550.215949	2574.320664
550.574434	2569.087947
550.932864	2571.290931
551.291237	2573.884604
551.649555	2575.336457
552.007817	2577.060531
552.366022	2576.841241
552.724173	2578.093968
553.082267	2576.309399
553.440305	2578.908114
553.798288	2576.901735
554.156215	2575.906107
554.514086	2577.388206
554.871902	2575.868298
555.229661	2576.011971
555.587365	2576.556416
555.945014	2576.193453
556.302606	2576.647157
556.660143	2574.436611
557.017625	2577.221848
557.375050	2577.209245
557.732421	2577.310068
558.089735	2577.889801
558.446994	2580.052456
558.804197	2583.112437
559.161345	2581.335430
559.518437	2578.719071
559.875474	2576.712692
560.232455	2581.345512
560.589381	2578.575398
560.946251	2584.594536
561.303065	2578.585480
561.659825	2578.235120
562.016528	2581.700913
562.373177	2577.433577
562.729770	2576.563978
563.086307	2582.174782
563.442789	2580.778382
563.799216	2580.554051
564.155587	2581.756366
564.511904	2579.550861
564.868164	2580.067580
565.224370	2580.307034
565.580520	2581.025399
565.936615	2580.120512
566.292654	2582.341140
566.648638	2581.317786
567.004567	2584.032447
567.360441	2582.862899
567.716260	2580.765779
568.072023	2585.315421
568.427732	2579.939030
568.783385	2583.004052
569.138982	2582.439442
569.494525	2584.415575
569.850013	2578.590522
570.205445	2587.132757
570.560823	2586.416913
570.916145	2583.858527
571.271412	2588.912284
571.626625	2587.868765
571.981782	2586.646285
572.336884	2591.926894
572.691931	2589.527305
573.046923	2592.622573
573.401860	2592.330186
573.756743	2592.733479
574.111570	2594.094590
574.466342	2593.330855
574.821059	2594.817996
575.175722	2596.635332
575.530330	2593.131730
575.884882	2598.530806
576.239380	2593.678695
576.593823	2600.166660
576.948211	2601.197576
577.302544	2600.025508
577.656823	2600.663214
578.011047	2603.009871
578.365216	2605.999275
578.719330	2605.706888
579.073389	2602.525920
579.427394	2606.014398
579.781344	2608.610593
580.135239	2607.148658
580.489080	2609.966663
580.842866	2611.506736
581.196597	2612.961108
581.550273	2616.605863
581.903895	2616.994032
582.257463	2618.458487
582.610975	2622.294805
582.964434	2620.225411
583.317837	2625.556431
583.671186	2626.045423
584.024481	2627.487193
584.377721	2625.974847
584.730906	2627.807307
585.084037	2632.641773
585.437113	2631.232771
585.790135	2636.415077
586.143103	2637.108235
586.496016	2640.498411
586.848874	2637.924902
587.201679	2642.703916
587.554428	2642.356077
587.907124	2646.777168
588.259765	2645.431180
588.612352	2655.576502
588.964884	2658.588592
589.317362	2662.127482
589.669786	2664.867349
590.022155	2668.411280
590.374470	2671.209121
590.726731	2671.130983
591.078937	2671.942608
591.431090	2681.742612
591.783188	2678.705316
592.135232	2683.300328
592.487222	2684.240503
592.839157	2690.345341
593.191038	2694.935311
593.542866	2695.472194
593.894639	2696.765250
594.246358	2702.733976
594.598022	2706.497197
594.949633	2705.531817
595.301190	2712.123125
595.652692	2715.125132
596.004141	2724.269785
596.355535	2721.045967
596.706876	2728.171638
597.058162	2729.850343
597.409395	2734.094994
597.760573	2744.663773
598.111698	2744.683938
598.462768	2748.091758
598.813785	2750.516553
599.164748	2757.433016
599.515657	2760.296391
599.866511	2766.161774
600.217312	2772.964811
600.568060	2774.484719
600.918753	2784.325051
601.269392	2786.860752
601.619978	2794.883748
601.970510	2800.668472
602.320988	2806.314564
602.671412	2816.830411
603.021783	2819.963488
603.372100	2828.634273
603.722363	2836.218689
604.072572	2841.148937
604.422728	2848.398117
604.772830	2847.818384
605.122878	2855.765763
605.472872	2864.512165
605.822813	2874.392826
606.172701	2877.488095
606.522534	2893.254303
606.872314	2902.746796
607.222041	2907.913979
607.571714	2918.679363
607.921333	2927.398038
608.270899	2936.867846
608.620411	2953.198664
608.969870	2956.271247
609.319276	2967.381950
609.668627	2979.992397
610.017926	2993.452277
610.367171	3013.972294
610.716362	3019.880526
611.065500	3029.988040
611.414585	3041.403733
611.763616	3050.581153
612.112594	3058.641958
612.461518	3072.608475
612.810389	3088.460383
613.159207	3094.333328
613.507971	3101.169132
613.856682	3128.620735
614.205340	3136.719349
614.553945	3152.155362
614.902496	3157.362874
615.250994	3174.825431
615.599439	3187.698017
615.947830	3200.343752
616.296169	3217.130794
616.644454	3228.422979
616.992686	3243.412850
617.340864	3267.328083
617.688990	3269.160543
618.037063	3295.704738
618.385082	3306.646563
618.733048	3332.300995
619.080961	3337.211079
619.428821	3357.342927
619.776628	3375.486039
620.124382	3382.110115
620.472083	3394.294584
620.819731	3408.873601
621.167326	3408.114908
621.514868	3421.514294
621.862357	3413.773603
622.209793	3430.086777
622.557176	3435.614402
622.904506	3443.355093
623.251783	3437.726645
623.599007	3447.609827
623.946179	3458.523925
624.293297	3470.211841
624.640363	3469.793425
624.987376	3477.496308
625.334336	3478.875063
625.681243	3492.440808
626.028097	3500.988085
626.374899	3511.506452
626.721647	3526.506406
627.068343	3525.684697
627.414987	3538.196841
627.761577	3545.924930
628.108115	3559.094945
628.454600	3555.772824
628.801032	3587.252309
629.147412	3584.983790
629.493739	3603.315946
629.840014	3598.287395
630.186236	3630.618835
630.532405	3620.506281
630.878521	3645.679282
631.224585	3652.782268
631.570597	3645.737256
631.916556	3675.903520
632.262462	3687.304090
632.608316	3694.059236
632.954117	3704.121379
633.299866	3712.020867
633.645562	3726.839339
633.991206	3720.109398
634.336797	3713.991958
634.682336	3716.550344
635.027823	3725.148032
635.373257	3730.776480
635.718639	3724.553176
636.063968	3745.111001
636.409245	3726.234400
636.754470	3742.045979
637.099642	3741.241915
637.444762	3742.315681
637.789829	3755.142897
638.134845	3751.863627
638.479808	3762.061881
638.824719	3775.872122
639.169577	3763.115482
639.514383	3782.521404
639.859137	3772.108900
640.203839	3786.302269
640.548489	3798.380874
640.893086	3798.786687
641.237632	3805.589724
641.582125	3821.575223
641.926566	3825.595543
642.270955	3841.021473
642.615292	3855.850027
642.959576	3872.939539
643.303809	3880.793657
643.647990	3900.754105
643.992118	3901.051533
644.336195	3895.541552
