Dividing Wavelength (nm)	Counts (n)	Blue Motor Position (mm): 25.500000	Red Motor Position (mm): 0.000000	
326.493990	2154.296767
326.888308	2154.296767
327.282561	2154.296767
327.676750	2130.890690
328.070874	2132.808849
328.464933	2135.805815
328.858929	2149.769811
329.252859	2158.813641
329.646726	2174.620179
330.040528	2190.696418
330.434265	2206.157637
330.827938	2225.384598
331.221547	2244.107443
331.615091	2262.847933
332.008571	2285.044133
332.401986	2307.628502
332.795338	2326.522747
333.188625	2344.018071
333.581847	2365.016998
333.975006	2385.804196
334.368100	2403.629716
334.761129	2419.509350
335.154095	2435.204983
335.546996	2462.175156
335.939833	2492.061636
336.332606	2501.964983
336.725315	2517.625328
337.117960	2523.480628
337.510540	2533.497400
337.903056	2542.090047
338.295508	2546.743032
338.687896	2553.049516
339.080220	2564.543346
339.472480	2568.130127
339.864676	2572.919223
340.256807	2576.924420
340.648875	2575.049111
341.040879	2581.375759
341.432818	2580.672518
341.824694	2583.946747
342.216506	2582.084041
342.608253	2581.158989
342.999937	2577.839390
343.391557	2577.121025
343.783113	2577.635223
344.174605	2575.437280
344.566033	2575.429718
344.957397	2573.458627
345.348697	2568.697257
345.739934	2570.708677
346.131106	2568.568708
346.522215	2566.703481
346.913260	2564.840774
347.304241	2563.252811
347.695159	2561.551422
348.086012	2559.507234
348.476802	2560.142419
348.867528	2559.812223
349.258191	2558.176369
349.648789	2554.244269
350.039324	2553.977088
350.429796	2555.945658
350.820203	2554.304763
351.210548	2549.697148
351.600828	2550.070194
351.991045	2551.703527
352.381198	2552.351316
352.771288	2551.169165
353.161314	2548.542724
353.551276	2548.255378
353.941175	2547.048022
354.331010	2549.409802
354.720782	2547.864689
355.110490	2548.184802
355.500135	2548.883002
355.889717	2547.070707
356.279235	2549.276212
356.668689	2549.377035
357.058080	2546.957281
357.447408	2546.901828
357.836672	2548.635985
358.225873	2546.609442
358.615010	2548.204967
359.004084	2551.602704
359.393095	2553.873744
359.782043	2554.398024
360.170927	2554.854249
360.559748	2556.429609
360.948505	2558.609908
361.337199	2554.665205
361.725830	2556.651420
362.114398	2557.117727
362.502903	2561.180897
362.891344	2556.374157
363.279722	2558.473797
363.668037	2560.586041
364.056289	2557.611760
364.444478	2561.201061
364.832603	2558.493962
365.220665	2562.680640
365.608665	2558.604867
365.996601	2560.059240
366.384474	2561.017059
366.772284	2560.880948
367.160031	2559.295505
367.547715	2563.807338
367.935336	2563.648542
368.322893	2559.890361
368.710388	2561.148129
369.097820	2566.884962
369.485189	2558.907336
369.872495	2564.099725
370.259738	2562.766340
370.646918	2559.681153
371.034035	2563.721638
371.421090	2565.216340
371.808081	2565.176011
372.195010	2566.053172
372.581875	2563.600651
372.968678	2564.752554
373.355418	2565.523851
373.742096	2567.033676
374.128710	2567.152143
374.515262	2568.787998
374.901751	2565.942267
375.288177	2567.174829
375.674540	2566.378326
376.060841	2565.808676
376.447079	2570.257494
376.833254	2568.261197
377.219367	2563.802297
377.605417	2566.043090
377.991404	2566.965621
378.377329	2566.020404
378.763191	2565.085270
379.148991	2568.162895
379.534727	2570.388564
379.920402	2572.722618
380.306013	2568.417473
380.691563	2569.962587
381.077049	2570.209603
381.462474	2573.015005
381.847835	2572.823442
382.233134	2569.647515
382.618371	2572.450396
383.003545	2572.241188
383.388657	2572.881415
383.773706	2570.920406
384.158693	2574.431570
384.543618	2572.987279
384.928480	2574.056004
385.313280	2574.388720
385.698017	2571.180025
386.082692	2572.757907
386.467305	2572.475602
386.851856	2573.367886
387.236344	2574.360993
387.620770	2576.863926
388.005133	2575.482650
388.389435	2574.849985
388.773674	2575.754872
389.157851	2574.978535
389.541965	2577.615058
389.926018	2575.762434
390.310008	2573.869481
390.693936	2576.138000
391.077802	2577.420974
391.461606	2577.070614
391.845348	2575.916189
392.229027	2575.896025
392.612645	2577.846951
392.996200	2577.461303
393.379694	2579.548341
393.763125	2576.500963
394.146494	2578.572878
394.529801	2578.764441
394.913047	2578.693865
395.296230	2579.387024
395.679351	2580.763259
396.062410	2578.971129
396.445408	2580.735532
396.828343	2581.584967
397.211217	2578.807291
397.594028	2576.498443
397.976778	2576.521128
398.359466	2579.329051
398.742092	2576.906776
399.124656	2581.065728
399.507158	2582.991449
399.889598	2580.526325
400.271977	2582.447004
400.654294	2583.220821
401.036549	2582.588157
401.418742	2584.425657
401.800874	2582.111767
402.182944	2584.473548
402.564952	2583.276274
402.946898	2583.548496
403.328783	2583.122519
403.710606	2584.405492
404.092367	2584.299628
404.474067	2582.603280
404.855705	2583.951789
405.237282	2583.576223
405.618797	2585.580081
406.000250	2587.304156
406.381642	2586.094279
406.762972	2586.053950
407.144240	2589.005545
407.525447	2587.425144
407.906593	2588.393045
408.287677	2586.520257
408.668700	2586.474886
409.049661	2586.139649
409.430560	2585.980853
409.811399	2589.517222
410.192176	2585.380956
410.572891	2589.766760
410.953545	2586.237952
411.334138	2588.516553
411.714669	2586.227870
412.095139	2588.607294
412.475547	2585.859865
412.855894	2588.572006
413.236180	2589.973447
413.616405	2588.831626
413.996568	2592.007552
414.376670	2590.356575
414.756711	2590.318766
415.136691	2589.933118
415.516609	2592.264651
415.896466	2590.810278
416.276262	2590.986719
416.655997	2585.219639
417.035670	2587.374732
417.415283	2588.148549
417.794834	2586.510174
418.174324	2586.684094
418.553753	2590.429671
418.933121	2591.959662
419.312428	2590.858169
419.691674	2590.185175
420.070859	2593.890423
420.449983	2591.400093
420.829045	2592.085690
421.208047	2589.580237
421.586988	2590.951431
421.965867	2594.724734
422.344686	2590.404466
422.723444	2592.015114
423.102141	2591.541246
423.480777	2593.318252
423.859352	2594.412183
424.237866	2594.124837
424.616319	2591.359764
424.994712	2593.630804
425.373044	2593.711462
425.751314	2595.075095
426.129524	2595.191041
426.507673	2595.478387
426.885762	2593.509816
427.263789	2594.913778
427.641756	2597.651124
428.019662	2597.038624
428.397508	2594.964189
428.775292	2596.353027
429.153016	2596.809252
429.530679	2595.780856
429.908282	2597.706577
430.285824	2596.342945
430.663305	2597.578027
431.040726	2598.956783
431.418086	2598.762699
431.795385	2596.481577
432.172624	2599.236567
432.549802	2601.000971
432.926920	2598.858481
433.303977	2598.624067
433.680974	2598.205651
434.057910	2599.844026
434.434786	2599.997781
434.811601	2600.900148
435.188355	2600.809407
435.565050	2598.674478
435.941683	2601.779829
436.318257	2596.431165
436.694770	2596.915116
437.071222	2599.559201
437.447614	2598.021649
437.823946	2598.593820
438.200218	2603.415684
438.576429	2604.660849
438.952580	2603.299737
439.328670	2603.680344
439.704700	2601.210179
440.080670	2605.275869
440.456580	2601.767226
440.832429	2603.811414
441.208218	2602.563729
441.583947	2607.085644
441.959616	2605.200252
442.335224	2605.558174
442.710773	2605.810232
443.086261	2606.047166
443.461689	2604.257556
443.837057	2607.231837
444.212365	2609.218052
444.587612	2609.273504
444.962800	2611.741149
445.337927	2610.463217
445.712995	2608.860130
446.088002	2610.475820
446.462949	2610.717795
446.837837	2611.922631
447.212664	2610.861468
447.587431	2618.196347
447.962139	2616.144597
448.336786	2621.873868
448.711374	2620.974022
449.085901	2621.198354
449.460369	2619.933024
449.834776	2622.554424
450.209124	2627.083901
450.583412	2623.658437
450.957640	2628.997019
451.331808	2630.685805
451.705917	2632.359468
452.079965	2633.967597
452.453954	2633.105559
452.827883	2635.227885
453.201752	2639.560757
453.575562	2640.233751
453.949311	2646.036119
454.323001	2649.469145
454.696632	2651.745226
455.070202	2658.621359
455.443713	2662.755106
455.817164	2667.105621
456.190556	2674.455624
456.563888	2681.619103
456.937160	2683.713703
457.310373	2687.960875
457.683526	2695.303315
458.056619	2702.731456
458.429653	2707.535675
458.802628	2716.032540
459.175542	2724.375650
459.548398	2741.205542
459.921194	2757.904364
460.293930	2771.863319
460.666607	2800.053451
461.039224	2821.100268
461.411782	2843.198166
461.784280	2850.933817
462.156719	2861.142153
462.529099	2870.697661
462.901419	2871.191694
463.273680	2879.035729
463.645882	2891.164745
464.018024	2906.930954
464.390106	2929.686722
464.762130	2973.277580
465.134094	3038.709236
465.505999	3138.456027
465.877845	3242.104670
466.249631	3300.894606
466.621358	3311.690237
466.993026	3311.418015
467.364634	3308.753765
467.736184	3301.063485
468.107674	3307.763178
468.479105	3330.261848
468.850477	3346.602748
469.221790	3350.789427
469.593043	3345.050073
469.964238	3360.438195
470.335373	3380.391082
470.706449	3442.538427
471.077467	3519.605066
471.448425	3679.802853
471.819324	3829.129392
472.190164	3875.283676
472.560945	3812.617092
472.931667	3750.908328
473.302330	3749.239706
473.672934	3763.911984
474.043479	3822.175120
474.413965	3838.047193
474.784393	3860.319010
475.154761	3941.993264
475.525070	3986.418433
475.895321	4015.989841
476.265513	4092.398610
476.635645	4179.638298
477.005719	4225.437181
477.375734	4300.885610
477.745691	4386.935585
478.115588	4502.403214
478.485427	4636.747443
478.855207	4863.264130
479.224928	5080.684054
479.594591	5281.886586
479.964194	5347.590465
480.333739	5438.225370
480.703226	5504.526625
481.072653	5618.267659
481.442022	5739.651082
481.811333	5868.591194
482.180584	5871.210074
482.549777	5917.535757
482.918912	5957.706192
483.287988	6024.662797
483.657005	6053.231016
484.025964	6086.527837
484.394864	6182.342527
484.763706	6235.844293
485.132489	6256.931440
485.501213	6322.000133
485.869879	6421.018477
486.238487	6460.994827
486.607036	6566.148255
486.975527	6607.450428
487.343959	6709.019596
487.712333	6796.163502
488.080648	6889.692029
488.448905	7021.165322
488.817104	7092.285920
489.185244	7268.570029
489.553326	7471.156358
489.921350	7840.756114
490.289315	8312.905542
490.657222	8583.988549
491.025070	8774.534082
491.392861	8793.395559
491.760593	8765.843133
492.128267	8675.644288
492.495883	8589.191020
492.863440	8496.645518
493.230939	8410.139318
493.598380	8342.834873
493.965763	8398.131289
494.333088	8354.338786
494.700354	8365.452009
495.067563	8398.532061
495.434713	8464.359448
495.801805	8555.208602
496.168839	8585.087521
496.535815	8610.822611
496.902733	8702.700160
497.269593	8718.347902
497.636395	8775.002909
498.003139	8904.628619
498.369825	8903.201972
498.736453	9030.720479
499.103023	9025.364253
499.469535	9076.438704
499.835989	9167.509668
500.202385	9189.194192
500.568723	9249.612421
500.935003	9342.972069
501.301226	9357.931693
501.667390	9538.140340
502.033497	9665.323611
502.399546	9635.616091
502.765537	9597.492365
503.131470	9728.456501
503.497345	9838.696453
503.863163	9680.575622
504.228923	9827.908384
504.594625	9968.047420
504.960269	9916.395757
505.325856	10082.264843
505.691385	10003.383388
506.056856	10096.579199
506.422270	10215.615965
506.787625	10191.897336
507.152924	10258.743036
507.518164	10343.270583
507.883347	10242.770140
508.248472	10330.390435
508.613540	10457.203180
508.978550	10549.874712
509.343503	10552.032325
509.708398	10629.411516
510.073236	10765.026117
510.438016	10791.656012
510.802738	10730.189223
511.167403	10869.783814
511.532010	10948.193921
511.896561	11056.626620
512.261053	11261.801581
512.625488	11189.395488
512.989866	11195.520490
513.354186	11185.629747
513.718449	11212.990609
514.082655	11367.804444
514.446803	11331.921511
514.810894	11451.515324
515.174927	11458.729215
515.538904	11451.346445
515.902822	11623.048145
516.266684	11503.688746
516.630488	11616.802156
516.994235	11608.776639
517.357925	11728.050339
517.721558	11793.045935
518.085133	11864.693334
518.448651	11896.051832
518.812112	11875.753626
519.175516	11888.953887
519.538863	11979.621560
519.902152	11992.912562
520.265385	12100.742842
520.628560	12139.428657
520.991678	12087.497211
521.354739	12140.081487
521.717743	12221.024773
522.080690	12193.812625
522.443580	12333.770179
522.806413	12354.166687
523.169189	12340.777383
523.531908	12408.094431
523.894569	12382.790359
524.257174	12404.210222
524.619722	12504.909790
524.982213	12475.424082
525.344647	12472.343937
525.707025	12487.346410
526.069345	12592.870363
526.431608	12578.611460
526.793815	12652.476966
527.155964	12557.824262
527.518057	12584.355854
527.880093	12546.935369
528.242072	12664.961384
528.603995	12579.314701
528.965860	12600.749687
529.327669	12628.274387
529.689421	12579.347468
530.051117	12602.256992
530.412755	12640.579843
530.774337	12644.085966
531.135862	12607.724123
531.497331	12660.189932
531.858743	12623.104683
532.220098	12713.225391
532.581396	12644.030513
532.942638	12566.565623
533.303824	12630.225313
533.664953	12603.035850
534.026025	12562.885580
534.387040	12674.650482
534.747999	12651.912357
535.108902	12692.183615
535.469748	12568.183833
535.830537	12608.490378
536.191270	12643.513795
536.551947	12561.199314
536.912567	12630.555509
537.273131	12667.444152
537.633638	12540.079400
537.994089	12610.859721
538.354483	12517.759692
538.714821	12649.348930
539.075103	12729.808266
539.435328	12651.133499
539.795497	12642.503043
540.155609	12638.737302
540.515665	12731.048390
540.875665	12587.541864
541.235609	12686.414014
541.595496	12657.863439
541.955328	12832.972959
542.315102	12687.875949
542.674821	12618.595371
543.034483	12635.674801
543.394090	12638.674287
543.753640	12604.076848
544.113134	12848.940814
544.472571	12616.614198
544.831953	12898.855799
545.191278	12704.448742
545.550548	12637.923155
545.909761	12758.499993
546.268918	12804.467755
546.628019	12874.307900
546.987064	12765.328236
547.346053	12602.481323
547.704986	12804.561016
548.063863	12686.842512
548.422684	12743.837798
548.781449	12701.502188
549.140158	12796.154892
549.498811	12745.244279
549.857408	12616.659568
550.215949	12821.090960
550.574434	12793.750262
550.932864	12736.341602
551.291237	12923.764140
551.649555	12819.729848
552.007817	12875.706820
552.366022	12790.743213
552.724173	12827.843585
553.082267	12920.394129
553.440305	13006.973425
553.798288	12834.903721
554.156215	12906.299062
554.514086	12948.339765
554.871902	12892.138461
555.229661	12907.730750
555.587365	12876.112633
555.945014	12888.435734
556.302606	12871.505019
556.660143	12935.769648
557.017625	12964.995737
557.375050	12928.800253
557.732421	13028.499152
558.089735	13030.084595
558.446994	13006.610462
558.804197	13110.649795
559.161345	13107.070576
559.518437	12920.142071
559.875474	13024.972865
560.232455	13049.278788
560.589381	13094.293772
560.946251	13029.918237
561.303065	13207.253427
561.659825	13164.088547
562.016528	13071.570771
562.373177	13016.849046
562.729770	13148.294612
563.086307	13031.125593
563.442789	13137.148621
563.799216	13170.798322
564.155587	13113.639200
564.511904	13138.265236
564.868164	13147.823264
565.224370	13205.531873
565.580520	13151.152946
565.936615	13214.626114
566.292654	13148.191268
566.648638	13222.402094
567.004567	13218.023852
567.360441	13218.664078
567.716260	13193.917054
568.072023	13287.185962
568.427732	13269.632664
568.783385	13165.356397
569.138982	13277.834622
569.494525	13274.734312
569.850013	13216.188872
570.205445	13200.382334
570.560823	13215.173079
570.916145	13167.146007
571.271412	13185.120241
571.626625	13138.295483
571.981782	13139.777582
572.336884	13087.962082
572.691931	13174.700176
573.046923	13063.714132
573.401860	13036.844782
573.756743	13039.173796
574.111570	13065.786047
574.466342	13040.479454
574.821059	13092.809152
575.175722	12956.120786
575.530330	12981.916370
575.884882	12924.432093
576.239380	12925.047114
576.593823	12897.482084
576.948211	12889.660734
577.302544	12775.004731
577.656823	12798.751086
578.011047	12850.203623
578.365216	12791.776650
578.719330	12728.845406
579.073389	12698.159903
579.427394	12709.358826
579.781344	12711.289588
580.135239	12631.145324
580.489080	12651.362871
580.842866	12532.532793
581.196597	12628.236578
581.550273	12618.149229
581.903895	12573.943351
582.257463	12690.862832
582.610975	12535.849872
582.964434	12606.826798
583.317837	12521.505269
583.671186	12478.678146
584.024481	12530.443235
584.377721	12415.489803
584.730906	12491.638953
585.084037	12500.743277
585.437113	12419.028693
585.790135	12439.067280
586.143103	12355.757172
586.496016	12361.413346
586.848874	12382.034186
587.201679	12376.834236
587.554428	12255.264290
587.907124	12304.526446
588.259765	12241.567475
588.612352	12308.902167
588.964884	12175.253617
589.317362	12220.828168
589.669786	12212.167466
590.022155	12174.704131
590.374470	12272.469748
590.726731	12155.341059
591.078937	12048.312322
591.431090	12068.749160
591.783188	11993.217552
592.135232	11918.522775
592.487222	11986.916109
592.839157	12004.597956
593.191038	11935.924838
593.542866	11874.233718
593.894639	11727.067314
594.246358	11796.012654
594.598022	11794.669187
594.949633	11696.016327
595.301190	11688.709174
595.652692	11643.719397
596.004141	11736.544683
596.355535	11507.310815
596.706876	11484.613019
597.058162	11458.920779
597.409395	11547.745910
597.760573	11579.535426
598.111698	11477.149591
598.462768	11467.064763
598.813785	11485.739717
599.164748	11353.487567
599.515657	11431.673342
599.866511	11311.058695
600.217312	11441.029724
600.568060	11207.389887
600.918753	11364.157169
601.269392	11368.626152
601.619978	11275.538725
601.970510	11317.602113
602.320988	11362.206242
602.671412	11430.828949
603.021783	11352.680982
603.372100	11279.518716
603.722363	11296.648557
604.072572	11297.288784
604.422728	11303.252469
604.772830	11244.533109
605.122878	11253.292113
605.472872	11223.249357
605.822813	11285.071547
606.172701	11247.310784
606.522534	11299.257354
606.872314	11340.471308
607.222041	11268.009762
607.571714	11348.937925
607.921333	11215.178470
608.270899	11275.263982
608.620411	11334.802530
608.969870	11280.768922
609.319276	11253.254305
609.668627	11267.760225
610.017926	11354.667197
610.367171	11389.859492
610.716362	11368.928621
611.065500	11353.784995
611.414585	11362.377642
611.763616	11424.635892
612.112594	11397.685883
612.461518	11422.427866
612.810389	11472.206740
613.159207	11417.341342
613.507971	11415.604664
613.856682	11520.989986
614.205340	11465.053342
614.553945	11602.838159
614.902496	11480.481794
615.250994	11544.645600
615.599439	11533.696214
615.947830	11571.923283
616.296169	11529.038188
616.644454	11541.106710
616.992686	11551.521734
617.340864	11646.204685
617.688990	11540.365660
618.037063	11673.905826
618.385082	11632.611214
618.733048	11680.454285
619.080961	11667.571616
619.428821	11651.071919
619.776628	11664.647747
620.124382	11604.655495
620.472083	11622.876746
620.819731	11642.333079
621.167326	11564.747201
621.514868	11547.624922
621.862357	11462.366407
622.209793	11453.501538
622.557176	11368.893333
622.904506	11309.120372
623.251783	11228.013247
623.599007	11172.311018
623.946179	11126.970880
624.293297	11100.635893
624.640363	10967.599843
624.987376	10951.725249
625.334336	10878.431913
625.681243	10795.540221
626.028097	10783.257449
626.374899	10743.187838
626.721647	10709.182735
627.068343	10665.755715
627.414987	10601.165931
627.761577	10537.521364
628.108115	10585.137583
628.454600	10459.842224
628.801032	10471.779677
629.147412	10457.755187
629.493739	10428.440877
629.840014	10352.042191
630.186236	10395.103727
630.532405	10298.265682
630.878521	10336.187762
631.224585	10290.822418
631.570597	10210.355521
631.916556	10218.582684
632.262462	10197.760198
632.608316	10185.827787
632.954117	10154.466768
633.299866	10140.028904
633.645562	10117.275656
633.991206	10011.877732
634.336797	9913.119007
634.682336	9909.151619
635.027823	9851.924441
635.373257	9813.029418
635.718639	9755.756870
636.063968	9719.480727
636.409245	9599.092932
636.754470	9584.062731
637.099642	9535.458447
637.444762	9429.846273
637.789829	9434.403477
638.134845	9365.231284
638.479808	9350.100261
638.824719	9317.307555
639.169577	9227.688443
