Dividing Wavelength (nm)	Counts (n)	Blue Motor Position (mm): 18.200000	Red Motor Position (mm): 0.000000	
326.493990	2179.000941
326.888308	2179.000941
327.282561	2179.000941
327.676750	2139.105250
328.070874	2138.633902
328.464933	2136.836731
328.858929	2137.736577
329.252859	2146.331744
329.646726	2152.083700
330.040528	2165.475526
330.434265	2179.386590
330.827938	2197.965762
331.221547	2213.847917
331.615091	2232.621174
332.008571	2250.913001
332.401986	2269.935795
332.795338	2288.963630
333.188625	2306.463996
333.581847	2323.490493
333.975006	2343.556806
334.368100	2361.646986
334.761129	2378.786909
335.154095	2398.011350
335.546996	2420.910791
335.939833	2450.220059
336.332606	2461.025773
336.725315	2478.563947
337.117960	2489.631800
337.510540	2500.142606
337.903056	2513.040398
338.295508	2522.837881
338.687896	2530.949097
339.080220	2538.115097
339.472480	2541.742208
339.864676	2549.177909
340.256807	2554.871893
340.648875	2559.323232
341.040879	2560.497820
341.432818	2565.370096
341.824694	2571.273287
342.216506	2569.110632
342.608253	2566.590055
342.999937	2568.687175
343.391557	2567.010991
343.783113	2569.511403
344.174605	2564.974365
344.566033	2566.895045
344.957397	2564.828172
345.348697	2565.813717
345.739934	2562.665517
346.131106	2561.906823
346.522215	2558.950186
346.913260	2557.715103
347.304241	2553.465411
347.695159	2551.821995
348.086012	2553.077242
348.476802	2547.486602
348.867528	2545.258412
349.258191	2541.732125
349.648789	2540.073586
350.039324	2536.443955
350.429796	2541.868236
350.820203	2542.579039
351.210548	2541.255736
351.600828	2539.012423
351.991045	2537.003523
352.381198	2538.858668
352.771288	2539.151054
353.161314	2533.749458
353.551276	2533.562935
353.941175	2531.680064
354.331010	2534.646783
354.720782	2533.802390
355.110490	2535.198790
355.500135	2532.963038
355.889717	2532.925229
356.279235	2532.448840
356.668689	2533.482277
357.058080	2532.272400
357.447408	2531.707791
357.836672	2533.751979
358.225873	2536.207021
358.615010	2532.663089
359.004084	2534.818183
359.393095	2536.441434
359.782043	2533.716691
360.170927	2538.011754
360.559748	2537.661393
360.948505	2537.311033
361.337199	2538.712474
361.725830	2538.016795
362.114398	2539.786240
362.502903	2540.232382
362.891344	2541.709440
363.279722	2540.754141
363.668037	2541.734646
364.056289	2541.628782
364.444478	2542.289173
364.832603	2544.973587
365.220665	2544.245140
365.608665	2545.412168
365.996601	2542.974770
366.384474	2542.579039
366.772284	2545.633978
367.160031	2545.366797
367.547715	2547.826880
367.935336	2545.563402
368.322893	2543.327650
368.710388	2539.902186
369.097820	2542.934440
369.485189	2543.181457
369.872495	2549.276212
370.259738	2547.121119
370.646918	2549.508105
371.034035	2548.401572
371.421090	2553.377191
371.808081	2549.235883
372.195010	2549.850903
372.581875	2550.188661
372.968678	2552.550441
373.355418	2549.404761
373.742096	2548.711603
374.128710	2550.715461
374.515262	2552.580688
374.901751	2550.750749
375.288177	2551.857283
375.674540	2550.604556
376.060841	2550.128167
376.447079	2551.212015
376.833254	2552.918446
377.219367	2553.490617
377.605417	2552.968857
377.991404	2552.628579
378.377329	2550.337375
378.763191	2555.101265
379.148991	2553.147818
379.534727	2555.197047
379.920402	2554.292160
380.306013	2552.910884
380.691563	2555.499516
381.077049	2553.125133
381.462474	2553.160421
381.847835	2553.714948
382.233134	2553.299053
382.618371	2553.152859
383.003545	2555.945658
383.388657	2556.623694
383.773706	2557.500854
384.158693	2554.776111
384.543618	2557.228632
384.928480	2559.398849
385.313280	2559.141750
385.698017	2558.975392
386.082692	2559.285423
386.467305	2558.443550
386.851856	2561.165773
387.236344	2557.523540
387.620770	2556.046482
388.005133	2556.883313
388.389435	2558.952707
388.773674	2554.181255
389.157851	2559.262738
389.541965	2560.762481
389.926018	2559.920608
390.310008	2560.316339
390.693936	2560.989333
391.077802	2560.580999
391.461606	2558.675443
391.845348	2562.325239
392.229027	2562.128634
392.612645	2559.731565
392.996200	2563.835064
393.379694	2560.979251
393.763125	2564.535785
394.146494	2561.599313
394.529801	2563.731721
394.913047	2563.630898
395.296230	2561.553942
395.679351	2562.058057
396.062410	2563.867832
396.445408	2562.965465
396.828343	2563.036041
397.211217	2562.655434
397.594028	2563.240208
397.976778	2565.700291
398.359466	2565.959911
398.742092	2562.917574
399.124656	2562.630228
399.507158	2564.540826
399.889598	2567.260528
400.271977	2565.962431
400.654294	2565.216340
401.036549	2566.201886
401.418742	2567.593244
401.800874	2566.642987
402.182944	2566.637946
402.564952	2566.085939
402.946898	2569.052658
403.328783	2566.151474
403.710606	2569.219017
404.092367	2567.197514
404.474067	2568.084757
404.855705	2568.281362
405.237282	2568.619119
405.618797	2568.102401
406.000250	2567.880590
406.381642	2567.653738
406.762972	2567.038717
407.144240	2565.917061
407.525447	2567.177349
407.906593	2563.025959
408.287677	2567.482339
408.668700	2569.183728
409.049661	2569.496280
409.430560	2571.457289
409.811399	2570.355797
410.192176	2570.353276
410.572891	2569.841599
410.953545	2571.568194
411.334138	2572.021898
411.714669	2571.540468
412.095139	2573.224213
412.475547	2569.768502
412.855894	2571.258163
413.236180	2569.435786
413.616405	2574.255129
413.996568	2571.656414
414.376670	2572.261353
414.756711	2572.599110
415.136691	2572.062227
415.516609	2571.858061
415.896466	2571.847978
416.276262	2571.658935
416.655997	2573.269584
417.035670	2572.793195
417.415283	2575.301169
417.794834	2569.307237
418.174324	2573.894687
418.553753	2573.791343
418.933121	2576.400140
419.312428	2575.023905
419.691674	2572.354614
420.070859	2576.422825
420.449983	2578.381314
420.829045	2573.690520
421.208047	2574.330747
421.586988	2572.427711
421.965867	2576.528690
422.344686	2576.992476
422.723444	2574.595407
423.102141	2575.437280
423.480777	2574.550037
423.859352	2575.666652
424.237866	2576.311920
424.616319	2576.533731
424.994712	2577.632702
425.373044	2577.988104
425.751314	2575.477609
426.129524	2573.645150
426.507673	2574.958370
426.885762	2572.190777
427.263789	2576.291755
427.641756	2577.451221
428.019662	2577.108422
428.397508	2577.342836
428.775292	2576.231262
429.153016	2577.274780
429.530679	2577.496591
429.908282	2578.091447
430.285824	2579.432394
430.663305	2577.476427
431.040726	2578.262847
431.418086	2579.117322
431.795385	2579.329051
432.172624	2578.093968
432.549802	2579.676890
432.926920	2580.412899
433.303977	2578.993814
433.680974	2580.075141
434.057910	2579.439956
434.434786	2580.097827
434.811601	2579.487847
435.188355	2581.131263
435.565050	2580.465831
435.941683	2581.859710
436.318257	2578.799729
436.694770	2579.389544
437.071222	2580.980028
437.447614	2583.127560
437.823946	2580.886767
438.200218	2581.025399
438.576429	2581.348033
438.952580	2579.402147
439.328670	2584.972622
439.704700	2582.222673
440.080670	2578.789647
440.456580	2582.237796
440.832429	2582.396593
441.208218	2583.631675
441.583947	2581.390883
441.959616	2582.184864
442.335224	2582.008424
442.710773	2582.895667
443.086261	2580.140676
443.461689	2582.736871
443.837057	2583.969433
444.212365	2583.472879
444.587612	2583.296439
444.962800	2581.728640
445.337927	2585.333065
445.712995	2581.118660
446.088002	2582.749473
446.462949	2584.982705
446.837837	2582.774679
447.212664	2582.499936
447.587431	2585.411203
447.962139	2586.210226
448.336786	2586.880699
448.711374	2589.779363
449.085901	2586.769794
449.460369	2586.245514
449.834776	2586.802561
450.209124	2587.583940
450.583412	2588.859352
450.957640	2585.912798
451.331808	2589.073601
451.705917	2586.169896
452.079965	2585.280133
452.453954	2587.725092
452.827883	2587.931780
453.201752	2587.455391
453.575562	2589.484455
453.949311	2589.025710
454.323001	2588.907243
454.696632	2591.543766
455.070202	2590.303642
455.443713	2589.557552
455.817164	2590.038982
456.190556	2590.197778
456.563888	2594.439909
456.937160	2595.112903
457.310373	2588.813982
457.683526	2590.976637
458.056619	2592.088211
458.429653	2590.878334
458.802628	2591.175762
459.175542	2590.646441
459.548398	2593.328335
459.921194	2591.659713
460.293930	2593.242635
460.666607	2593.595516
461.039224	2594.386977
461.411782	2596.811772
461.784280	2593.124168
462.156719	2595.352358
462.529099	2595.674992
462.901419	2594.795311
463.273680	2591.992429
463.645882	2591.279106
464.018024	2591.004363
464.390106	2591.773139
464.762130	2596.161463
465.134094	2598.233378
465.505999	2599.665065
465.877845	2597.837647
466.249631	2605.374172
466.621358	2602.079778
466.993026	2603.667741
467.364634	2604.673452
467.736184	2601.058944
468.107674	2598.442585
468.479105	2598.936618
468.850477	2601.623553
469.221790	2599.138265
469.593043	2600.010384
469.964238	2600.335539
470.335373	2601.253029
470.706449	2600.501897
471.077467	2602.916609
471.448425	2604.600355
471.819324	2605.444748
472.190164	2610.516149
472.560945	2607.443566
472.931667	2603.249326
473.302330	2603.554315
473.672934	2604.529779
474.043479	2604.464244
474.413965	2602.442741
474.784393	2604.915427
475.154761	2604.912906
475.525070	2605.666559
475.895321	2604.857454
476.265513	2604.817124
476.635645	2606.110180
477.005719	2608.661004
477.375734	2604.280242
477.745691	2606.770572
478.115588	2606.405088
478.485427	2612.000769
478.855207	2611.673094
479.224928	2612.734257
479.594591	2615.658126
479.964194	2617.334309
480.333739	2616.784824
480.703226	2615.703496
481.072653	2618.463528
481.442022	2616.016048
481.811333	2615.476644
482.180584	2613.732405
482.549777	2619.002931
482.918912	2614.213835
483.287988	2618.264402
483.657005	2619.013014
484.025964	2619.864969
484.394864	2618.259361
484.763706	2617.074690
485.132489	2618.750874
485.501213	2619.980915
485.869879	2620.603498
486.238487	2619.990997
486.607036	2619.053343
486.975527	2620.288426
487.343959	2621.503344
487.712333	2624.417131
488.080648	2621.904115
488.448905	2624.462501
488.817104	2624.495268
489.185244	2625.488376
489.553326	2627.230094
489.921350	2628.659262
490.289315	2631.731845
490.657222	2636.682258
491.025070	2639.308699
491.392861	2641.151241
491.760593	2639.936323
492.128267	2639.719553
492.495883	2638.161837
492.863440	2636.228554
493.230939	2636.790643
493.598380	2638.003040
493.965763	2638.388688
494.333088	2640.440438
494.700354	2642.885398
495.067563	2640.901704
495.434713	2641.272228
495.801805	2645.148876
496.168839	2646.048722
496.535815	2646.484782
496.902733	2647.419916
497.269593	2650.598363
497.636395	2653.466780
498.003139	2658.830567
498.369825	2659.236380
498.736453	2661.497338
499.103023	2662.800476
499.469535	2668.491939
499.835989	2668.890190
500.202385	2670.699964
500.568723	2670.405057
500.935003	2681.140194
501.301226	2681.293949
501.667390	2690.476411
502.033497	2697.579396
502.399546	2701.882021
502.765537	2705.272197
503.131470	2709.985676
503.497345	2715.457848
503.863163	2719.954558
504.228923	2727.027297
504.594625	2736.555077
504.960269	2741.729822
505.325856	2747.824577
505.691385	2756.150042
506.056856	2767.822834
506.422270	2779.997221
506.787625	2788.670526
507.152924	2802.082516
507.518164	2812.006027
507.883347	2818.874599
508.248472	2832.820951
508.613540	2851.894157
508.978550	2864.948225
509.343503	2880.134701
509.708398	2901.559604
510.073236	2921.797317
510.438016	2942.622323
510.802738	2959.605970
511.167403	2985.114209
511.532010	2998.730365
511.896561	3038.573125
512.261053	3061.449881
512.625488	3084.021647
512.989866	3106.522837
513.354186	3130.327166
513.718449	3163.016528
514.082655	3200.820141
514.446803	3231.848443
514.810894	3275.126748
515.174927	3296.138278
515.538904	3332.149760
515.902822	3387.063049
516.266684	3424.055036
516.630488	3454.110395
516.994235	3493.970799
517.357925	3550.971125
517.721558	3610.832307
518.085133	3657.987260
518.448651	3702.568704
518.812112	3746.885487
519.175516	3803.842964
519.538863	3871.364178
519.902152	3915.275149
520.265385	3991.270543
520.628560	4036.845095
520.991678	4104.648614
521.354739	4173.349458
521.717743	4241.747834
522.080690	4291.430926
522.443580	4397.184251
522.806413	4453.743477
523.169189	4546.959452
523.531908	4602.369295
523.894569	4668.272299
524.257174	4746.631994
524.619722	4843.969113
524.982213	4887.711205
525.344647	4990.661649
525.707025	5079.645576
526.069345	5169.302498
526.431608	5257.293317
526.793815	5375.349579
527.155964	5380.297471
527.518057	5495.021530
527.880093	5582.725004
528.242072	5674.537018
528.603995	5744.097380
528.965860	5817.020191
529.327669	5946.114058
529.689421	6019.062075
530.051117	6092.574701
530.412755	6249.490697
530.774337	6295.927285
531.135862	6378.705552
531.497331	6519.583117
531.858743	6546.802827
532.220098	6759.468943
532.581396	6771.839935
532.942638	6925.580004
533.303824	7022.823861
533.664953	7144.487068
534.026025	7220.144705
534.387040	7348.051381
534.747999	7516.204109
535.108902	7641.383521
535.469748	7667.854619
535.830537	7831.142634
536.191270	7954.655944
536.551947	8096.781194
536.912567	8098.444775
537.273131	8297.935836
537.633638	8338.204573
537.994089	8556.148777
538.354483	8537.567084
538.714821	8802.646077
539.075103	8974.171336
539.435328	9031.617805
539.795497	9035.887662
540.155609	9284.182133
540.515665	9496.719700
540.875665	9397.719000
541.235609	9595.488507
541.595496	9752.283515
541.955328	9980.899842
542.315102	10091.419578
542.674821	10105.186969
543.034483	10180.035501
543.394090	10342.353093
543.753640	10414.950749
544.113134	10750.749569
544.472571	10790.322627
544.831953	11050.501618
545.191278	11005.905050
545.550548	11155.924747
545.909761	11305.919239
546.268918	11573.450753
546.628019	11675.902123
546.987064	11762.645257
547.346053	11793.595421
547.704986	11942.279213
548.063863	12162.968325
548.422684	12236.342319
548.781449	12241.365829
549.140158	12548.404866
549.498811	12538.955223
549.857408	12502.802588
550.215949	12868.974359
550.574434	12850.155732
550.932864	13094.739914
551.291237	13273.544600
551.649555	13394.411304
552.007817	13549.446950
552.366022	13634.473571
552.724173	13754.891613
553.082267	13862.616029
553.440305	14240.964708
553.798288	14013.769986
554.156215	14415.807047
554.514086	14600.197331
554.871902	14398.818358
555.229661	14671.575028
555.587365	14761.751188
555.945014	14771.533547
556.302606	15091.351909
556.660143	15139.487367
557.017625	15446.710405
557.375050	15312.955991
557.732421	15644.890766
558.089735	15700.187183
558.446994	15824.560010
558.804197	15992.400186
559.161345	16109.740603
559.518437	16024.373704
559.875474	16343.244329
560.232455	16525.368614
560.589381	16583.281390
560.946251	16642.575441
561.303065	17009.468098
561.659825	17186.457968
562.016528	17037.779218
562.373177	17003.660688
562.729770	17329.999783
563.086307	17407.406700
563.442789	17623.576418
563.799216	17624.118342
564.155587	17720.139720
564.511904	17850.551849
564.868164	17878.225263
565.224370	18036.310807
565.580520	18025.177419
565.936615	18267.626672
566.292654	18101.762628
566.648638	18491.176639
567.004567	18435.625644
567.360441	18506.002672
567.716260	18390.023367
568.072023	18776.826060
568.427732	18674.052057
568.783385	18599.037167
569.138982	18851.694756
569.494525	19000.509618
569.850013	18910.237676
570.205445	19068.008147
570.560823	18970.860072
570.916145	18911.954189
571.271412	19098.154247
571.626625	19022.095839
571.981782	19162.015584
572.336884	19077.876206
572.691931	19276.674108
573.046923	19115.314335
573.401860	19136.467017
573.756743	19204.792295
574.111570	19198.904228
574.466342	19218.416013
574.821059	19376.690600
575.175722	19178.111988
575.530330	19276.986659
575.884882	19354.426344
576.239380	19345.697586
576.593823	19298.129259
576.948211	19338.655094
577.302544	19261.727087
577.656823	19215.033399
578.011047	19362.308188
578.365216	19305.207039
578.719330	19256.917826
579.073389	19220.145129
579.427394	19411.535056
579.781344	19248.783924
580.135239	19221.150839
580.489080	19235.616430
580.842866	19051.780673
581.196597	19277.803326
581.550273	19287.968813
581.903895	19266.254043
582.257463	19578.298945
582.610975	19189.600778
582.964434	19504.977883
583.317837	19283.540159
583.671186	19409.311907
584.024481	19416.692156
584.377721	19240.279498
584.730906	19314.205498
585.084037	19389.951355
585.437113	19334.183591
585.790135	19556.269103
586.143103	19104.722871
586.496016	19115.347102
586.848874	19409.921886
587.201679	19370.391678
587.554428	19062.919102
587.907124	19414.544624
588.259765	19232.150637
588.612352	19337.029322
588.964884	18958.105952
589.317362	19144.058994
589.669786	19205.669456
590.022155	19293.204051
590.374470	19470.761052
590.726731	19326.699998
591.078937	19092.566128
591.431090	19225.435820
591.783188	18995.561725
592.135232	18983.183172
592.487222	19103.936451
592.839157	19146.345158
593.191038	19060.665707
593.542866	18956.011353
593.894639	18718.000836
594.246358	18938.354712
594.598022	18868.774186
594.949633	18642.776738
595.301190	18603.642261
595.652692	18780.808572
596.004141	19038.615700
596.355535	18389.577224
596.706876	18410.009021
597.058162	18326.088933
597.409395	18541.452066
597.760573	18651.263521
598.111698	18448.672150
598.462768	18395.223317
598.813785	18359.594962
599.164748	18204.309779
599.515657	18228.590497
599.866511	18036.719140
600.217312	18402.860665
600.568060	17941.968133
600.918753	18266.348739
601.269392	18170.609666
601.619978	17939.835725
601.970510	18182.632818
602.320988	18124.959497
602.671412	18344.002673
603.021783	18241.027023
603.372100	17995.636257
603.722363	18123.716853
604.072572	18061.211586
604.422728	18204.546714
604.772830	17973.911405
605.122878	17913.624246
605.472872	17919.784536
605.822813	17914.589627
606.172701	17874.504892
606.522534	18081.547601
606.872314	18110.020038
607.222041	17953.577911
607.571714	18166.861568
607.921333	17993.889497
608.270899	18067.548317
608.620411	18275.745450
608.969870	18028.794447
609.319276	18038.569244
609.668627	18065.965394
610.017926	18206.386735
610.367171	18328.060024
610.716362	18362.047483
611.065500	18195.870888
611.414585	18312.553435
611.763616	18298.362587
612.112594	18255.167460
612.461518	18226.853819
612.810389	18424.003264
613.159207	18275.284184
613.507971	18182.027879
613.856682	18481.671543
614.205340	18412.131347
614.553945	18543.244197
614.902496	18285.583262
615.250994	18549.033962
615.599439	18476.174165
615.947830	18465.771744
616.296169	18505.874123
616.644454	18476.645513
616.992686	18453.307491
617.340864	18658.008584
617.688990	18425.626516
618.037063	18598.280994
618.385082	18445.919680
618.733048	18736.421212
619.080961	18585.826823
619.428821	18631.862640
619.776628	18528.244243
620.124382	18436.593546
620.472083	18477.542838
620.819731	18506.002672
621.167326	18205.083597
621.514868	18247.270492
621.862357	17997.009972
622.209793	18019.833796
622.557176	17862.761524
622.904506	17684.695367
623.251783	17590.387982
623.599007	17361.625461
623.946179	17312.081001
624.293297	17254.011950
624.640363	17012.389446
624.987376	17043.271555
625.334336	16817.352245
625.681243	16676.026018
626.028097	16670.180800
626.374899	16615.963190
626.721647	16480.865308
627.068343	16319.092161
627.414987	16240.493011
627.761577	16215.758589
628.108115	16271.468380
628.454600	15977.745552
628.801032	16075.327167
629.147412	16012.476581
629.493739	16029.525763
629.840014	15847.640933
630.186236	15951.576922
630.532405	15711.930550
630.878521	15898.221350
631.224585	15789.886953
631.570597	15622.629031
631.916556	15656.175389
632.262462	15635.688140
632.608316	15550.210335
632.954117	15496.819475
633.299866	15495.823847
633.645562	15417.723771
633.991206	15174.367110
634.336797	15044.983376
634.682336	15009.765875
635.027823	14907.806018
635.373257	14794.674964
635.718639	14676.981666
636.063968	14632.627074
636.409245	14383.112643
636.754470	14411.638012
637.099642	14259.354837
637.444762	14039.651270
637.789829	14083.584926
638.134845	13925.690946
638.479808	13950.523670
638.824719	13904.339139
639.169577	13748.252413
639.514383	13813.260613
639.859137	13612.128657
640.203839	13698.586966
