Dividing Wavelength (nm)	Counts (n)	Blue Motor Position (mm): 42.700000	Red Motor Position (mm): 0.000000	
326.493990	2131.926647
326.888308	2131.926647
327.282561	2131.926647
327.676750	2097.361975
328.070874	2094.806110
328.464933	2099.131420
328.858929	2104.588469
329.252859	2111.265478
329.646726	2127.009001
330.040528	2138.976700
330.434265	2156.865235
330.827938	2171.771927
331.221547	2191.790349
331.615091	2210.603935
332.008571	2231.229816
332.401986	2249.476272
332.795338	2268.783891
333.188625	2288.575461
333.581847	2306.027936
333.975006	2327.094918
334.368100	2344.010510
334.761129	2361.876359
335.154095	2378.106354
335.546996	2399.629560
335.939833	2423.285174
336.332606	2441.307299
336.725315	2451.389607
337.117960	2461.620629
337.510540	2470.636733
337.903056	2481.815491
338.295508	2486.902015
338.687896	2498.085815
339.080220	2506.998575
339.472480	2512.155676
339.864676	2516.924607
340.256807	2518.620955
340.648875	2525.550021
341.040879	2528.330218
341.432818	2524.771163
341.824694	2528.998171
342.216506	2530.079498
342.608253	2531.027235
342.999937	2528.362985
343.391557	2529.492204
343.783113	2529.015815
344.174605	2527.221164
344.566033	2526.684281
344.957397	2520.955010
345.348697	2523.715041
345.739934	2522.772346
346.131106	2518.615914
346.522215	2515.286232
346.913260	2513.368073
347.304241	2513.428567
347.695159	2510.723988
348.086012	2511.848165
348.476802	2509.123422
348.867528	2506.353308
349.258191	2506.920437
349.648789	2506.358349
350.039324	2503.169819
350.429796	2502.237205
350.820203	2501.249139
351.210548	2500.422390
351.600828	2498.098418
351.991045	2500.087153
352.381198	2498.547081
352.771288	2497.470794
353.161314	2495.603047
353.551276	2498.269817
353.941175	2497.012049
354.331010	2498.748727
354.720782	2492.558190
355.110490	2496.969200
355.500135	2493.579024
355.889717	2497.276710
356.279235	2497.332163
356.668689	2498.579848
357.058080	2497.921978
357.447408	2497.861484
357.836672	2494.239415
358.225873	2497.042296
358.615010	2494.536843
359.004084	2500.467760
359.393095	2499.910713
359.782043	2501.113028
360.170927	2500.245950
360.559748	2503.646208
360.948505	2503.169819
361.337199	2507.311127
361.725830	2505.269459
362.114398	2502.690909
362.502903	2504.420025
362.891344	2505.781137
363.279722	2506.441528
363.668037	2507.936230
364.056289	2507.936230
364.444478	2507.651405
364.832603	2508.054697
365.220665	2509.617455
365.608665	2507.071672
365.996601	2509.597290
366.384474	2509.027640
366.772284	2513.415964
367.160031	2511.434791
367.547715	2511.258350
367.935336	2512.001920
368.322893	2513.446211
368.710388	2513.766324
369.097820	2513.584843
369.485189	2509.849348
369.872495	2515.160203
370.259738	2513.937723
370.646918	2515.278670
371.034035	2513.864627
371.421090	2516.687673
371.808081	2512.556447
372.195010	2516.596932
372.581875	2515.513084
372.968678	2518.247910
373.355418	2514.227590
373.742096	2520.287057
374.128710	2518.409227
374.515262	2518.691532
374.901751	2519.145235
375.288177	2519.697242
375.674540	2520.282016
376.060841	2521.295287
376.447079	2520.695390
376.833254	2522.311080
377.219367	2518.220184
377.605417	2522.694208
377.991404	2517.922756
378.377329	2521.779238
378.763191	2519.427540
379.148991	2528.804086
379.534727	2527.372398
379.920402	2529.487162
380.306013	2532.136289
380.691563	2537.757175
381.077049	2540.590304
381.462474	2546.574153
381.847835	2551.756460
382.233134	2562.756257
382.618371	2568.780436
383.003545	2582.757035
383.388657	2591.629466
383.773706	2602.840992
384.158693	2617.858589
384.543618	2633.466002
384.928480	2648.778507
385.313280	2668.849861
385.698017	2681.661953
386.082692	2707.747404
386.467305	2723.314487
386.851856	2748.502612
387.236344	2771.454985
387.620770	2797.177473
388.005133	2826.703511
388.389435	2856.219467
388.773674	2881.367263
389.157851	2916.912438
389.541965	2945.185750
389.926018	2957.529015
390.310008	3011.403826
390.693936	3042.326264
391.077802	3086.779158
391.461606	3109.209772
391.845348	3166.971313
392.229027	3197.480376
392.612645	3232.730645
392.996200	3300.766057
393.379694	3354.663553
393.763125	3423.679470
394.146494	3434.328908
394.529801	3505.021008
394.913047	3568.889907
395.296230	3572.917788
395.679351	3637.280720
396.062410	3685.537165
396.445408	3702.644321
396.828343	3756.075511
397.211217	3802.272644
397.594028	3761.479628
397.976778	3842.120445
398.359466	3887.894122
398.742092	3935.800207
399.124656	3885.562588
399.507158	3977.646825
399.889598	4021.028474
400.271977	4092.310390
400.654294	4084.249585
401.036549	4107.887555
401.418742	4091.529011
401.800874	4201.781566
402.182944	4234.861618
402.564952	4307.028256
402.946898	4305.704953
403.328783	4314.713495
403.710606	4240.187597
404.092367	4434.808903
404.474067	4407.178338
404.855705	4421.159979
405.237282	4357.659084
405.618797	4469.343327
406.000250	4507.356148
406.381642	4591.994600
406.762972	4558.385228
407.144240	4575.878031
407.525447	4572.077001
407.906593	4634.776352
408.287677	4677.598434
408.668700	4611.274493
409.049661	4661.597811
409.430560	4703.940983
409.811399	4630.738388
410.192176	4794.331392
410.572891	4737.265531
410.953545	4841.645142
411.334138	4719.205597
411.714669	4786.449548
412.095139	4682.803425
412.475547	4825.311803
412.855894	4807.430830
413.236180	4812.003157
413.616405	4768.603863
413.996568	4858.313717
414.376670	4799.281805
414.756711	4753.422429
415.136691	4788.476092
415.516609	4863.102813
415.896466	4902.426333
416.276262	4936.164256
416.655997	4911.762550
417.035670	5096.921611
417.415283	5189.875446
417.794834	5133.459894
418.174324	5085.919292
418.553753	4995.848997
418.933121	5178.532850
419.312428	5242.653807
419.691674	5184.108366
420.070859	5310.590916
420.449983	5222.882401
420.829045	5341.964537
421.208047	5246.106997
421.586988	5319.904448
421.965867	5330.390048
422.344686	5466.342406
422.723444	5314.754909
423.102141	5134.332013
423.480777	5437.486841
423.859352	5199.652764
424.237866	5460.217404
424.616319	5452.433862
424.994712	5562.446963
425.373044	5442.704435
425.751314	5584.459161
426.129524	5387.649994
426.507673	5581.240384
426.885762	5663.144011
427.263789	5591.642805
427.641756	5475.837419
428.019662	5595.043063
428.397508	5604.079332
428.775292	5554.212238
429.153016	5654.921889
429.530679	5575.392646
429.908282	5662.244165
430.285824	5534.148445
430.663305	5808.011649
431.040726	5542.907450
431.418086	5544.913829
431.795385	5645.295805
432.172624	5660.441952
432.549802	5656.809801
432.926920	5668.187685
433.303977	5678.010373
433.680974	5713.996650
434.057910	5730.609772
434.434786	5734.882150
434.811601	5707.039858
435.188355	5940.392349
435.565050	5812.972144
435.941683	5794.854237
436.318257	6010.527402
436.694770	5992.313713
437.071222	6028.811667
437.447614	5962.339012
437.823946	5877.196444
438.200218	6023.190780
438.576429	5892.970214
438.952580	5990.146017
439.328670	6037.747112
439.704700	5944.677329
440.080670	5929.286687
440.456580	6201.803902
440.832429	6085.375933
441.208218	5930.211738
441.583947	6086.149750
441.959616	6091.921872
442.335224	6015.828175
442.710773	6153.723897
443.086261	6179.779101
443.461689	5969.689014
443.837057	6122.796418
444.212365	6280.564369
444.587612	6172.865158
444.962800	6324.261091
445.337927	6303.143697
445.712995	5913.248256
446.088002	6495.418346
446.462949	6324.208158
446.837837	6258.847078
447.212664	6429.399395
447.587431	6572.522794
447.962139	7111.606142
448.336786	8041.192391
448.711374	7779.228831
449.085901	6849.940011
449.460369	6768.381703
449.834776	6706.201591
450.209124	7103.759586
450.583412	7248.954899
450.957640	7392.103504
451.331808	7153.730024
451.705917	6711.588064
452.079965	6640.313710
452.453954	6849.816503
452.827883	6724.957204
453.201752	6821.008829
453.575562	6618.213292
453.949311	6820.587893
454.323001	6708.197888
454.696632	6782.219671
455.070202	6927.379696
455.443713	7076.741522
455.817164	7181.524426
456.190556	7263.165912
456.563888	7339.743560
456.937160	7375.278653
457.310373	7034.904987
457.683526	7062.601086
458.056619	6949.691843
458.429653	6934.613751
458.802628	6869.030860
459.175542	6984.284240
459.548398	7340.164496
459.921194	7501.902355
460.293930	7500.120308
460.666607	8033.514714
461.039224	8337.866815
461.411782	8462.584962
461.784280	8481.940472
462.156719	8373.689255
462.529099	8253.477900
462.901419	7841.159406
463.273680	7735.020433
463.645882	7745.092658
464.018024	7610.876978
464.390106	7781.141949
464.762130	8166.240733
465.134094	8636.905541
465.505999	9659.407817
465.877845	10881.471729
466.249631	11520.440500
466.621358	11147.334621
466.993026	10514.843733
467.364634	10259.332851
467.736184	9896.137881
468.107674	9561.163290
468.479105	9596.945400
468.850477	9357.571251
469.221790	9132.004822
469.593043	8800.743041
469.964238	8665.098194
470.335373	8681.391203
470.706449	8737.559739
471.077467	8718.967964
471.448425	10025.932469
471.819324	11096.673546
472.190164	11127.800150
472.560945	9879.219768
472.931667	9090.188451
473.302330	8954.462945
473.672934	8598.481866
474.043479	8950.508160
474.413965	8896.754337
474.784393	8785.717882
475.154761	8929.804141
475.525070	9022.573975
475.895321	8848.402109
476.265513	9033.672075
476.635645	9200.619967
477.005719	9204.617602
477.375734	9312.326895
477.745691	9546.843893
478.115588	9676.938429
478.485427	9922.750132
478.855207	10464.046547
479.224928	11282.137596
479.594591	11908.324521
479.964194	11709.314890
480.333739	11653.960501
480.703226	11571.923283
481.072653	11661.958291
481.442022	11905.965261
481.811333	12089.803539
482.180584	11891.476985
482.549777	11597.176944
482.918912	11431.403641
483.287988	11454.156888
483.657005	11460.551592
484.025964	11146.528037
484.394864	11278.089549
484.763706	11237.001625
485.132489	10997.632517
485.501213	10965.764863
485.869879	11040.275637
486.238487	10880.292099
486.607036	10986.635240
486.975527	10770.460480
487.343959	10961.656322
487.712333	11013.928047
488.080648	10944.801224
488.448905	10989.642288
488.817104	10923.842627
489.185244	11188.654439
489.553326	11347.841474
489.921350	11878.987526
490.289315	12947.548304
490.657222	13288.791569
491.025070	13202.398795
491.392861	13071.122108
491.760593	12689.637832
492.128267	12338.571878
492.495883	12012.016014
492.863440	11674.606546
493.230939	11338.532984
493.598380	11268.743250
493.965763	11132.143104
494.333088	11039.953003
494.700354	10962.609100
495.067563	11018.770075
495.434713	10847.055772
495.801805	10982.027625
496.168839	10905.127344
496.535815	10844.421769
496.902733	10840.542601
497.269593	10770.513413
497.636395	10870.335820
498.003139	10864.823319
498.369825	10729.274253
498.736453	10885.615558
499.103023	10810.121758
499.469535	10843.521923
499.835989	10832.640593
500.202385	10795.883019
500.568723	10639.456015
500.935003	10861.735612
501.301226	10675.964052
501.667390	10933.204050
502.033497	11025.462207
502.399546	10885.234951
502.765537	10790.393203
503.131470	10863.124450
503.497345	11038.722962
503.863163	10649.760134
504.228923	10963.733278
504.594625	11022.223265
504.960269	10775.617581
505.325856	10994.998514
505.691385	10787.113932
506.056856	10942.643611
506.422270	10971.418517
506.787625	10851.219765
507.152924	10969.142436
507.518164	10959.665067
507.883347	10879.901410
508.248472	10791.025867
508.613540	11030.589060
508.978550	10911.746379
509.343503	10888.060517
509.708398	11010.706749
510.073236	11120.351845
510.438016	11125.602207
510.802738	11078.187635
511.167403	11129.730912
511.532010	11023.440704
511.896561	11252.591393
512.261053	11329.466469
512.625488	11197.476458
512.989866	11181.596823
513.354186	11169.145173
513.718449	11069.199257
514.082655	11256.253791
514.446803	11155.279480
514.810894	11276.100814
515.174927	11144.798921
515.538904	11166.924545
515.902822	11324.969759
516.266684	11201.219515
516.630488	11151.027267
516.994235	11205.748992
517.357925	11269.819536
517.721558	11351.362720
518.085133	11376.475228
518.448651	11379.540250
518.812112	11261.161355
519.175516	11274.401945
519.538863	11393.342929
519.902152	11311.739251
520.265385	11476.418624
520.628560	11386.746579
520.991678	11358.611900
521.354739	11429.195615
521.717743	11357.034018
522.080690	11345.351144
522.443580	11473.083901
522.806413	11429.533372
523.169189	11457.040428
523.531908	11521.022753
523.894569	11336.849238
524.257174	11345.948521
524.619722	11465.527211
524.982213	11416.713718
525.344647	11464.526542
525.707025	11409.421689
526.069345	11502.201605
526.431608	11428.235275
526.793815	11531.089937
527.155964	11320.011785
527.518057	11377.370033
527.880093	11324.271560
528.242072	11392.390151
528.603995	11295.015223
528.965860	11220.801877
529.327669	11269.663261
529.689421	11211.168232
530.051117	11193.698113
530.412755	11292.371138
530.774337	11183.847699
531.135862	11156.015488
531.497331	11182.935250
531.858743	11042.569362
532.220098	11204.080370
532.581396	11071.762684
532.942638	11061.206508
533.303824	11019.947184
533.664953	11034.942096
534.026025	10948.992944
534.387040	11054.867257
534.747999	11051.797194
535.108902	11106.788621
535.469748	10867.018741
535.830537	10968.688732
536.191270	10952.015116
536.551947	10968.166973
536.912567	10969.107148
537.273131	10896.842207
537.633638	10877.748837
537.994089	10864.470438
538.354483	10812.768364
538.714821	10963.640016
539.075103	10961.081631
539.435328	10928.694738
539.795497	10759.309448
540.155609	10920.356669
540.515665	11010.570638
540.875665	10741.035265
541.235609	10804.765532
541.595496	10800.682198
541.955328	10964.189502
542.315102	10844.998981
542.674821	10798.804368
543.034483	10789.881526
543.394090	10796.210694
543.753640	10728.765097
544.113134	10943.931625
544.472571	10797.760849
544.831953	10941.758888
545.191278	10752.244271
545.550548	10780.759558
545.909761	10913.475494
546.268918	10882.487522
546.628019	10973.296347
546.987064	10836.441622
547.346053	10757.933213
547.704986	10863.452125
548.063863	10845.792963
548.422684	10841.437406
548.781449	10758.664180
549.140158	10857.831238
549.498811	10737.506458
549.857408	10586.269322
550.215949	10819.057203
550.574434	10673.330049
550.932864	10766.951837
551.291237	10830.545993
551.649555	10780.681420
552.007817	10793.969901
552.366022	10751.316699
552.724173	10750.149672
553.082267	10740.931922
553.440305	10861.203770
553.798288	10672.140336
554.156215	10817.287758
554.514086	10796.245982
554.871902	10646.533795
555.229661	10687.425115
555.587365	10652.868005
555.945014	10555.435104
556.302606	10682.404126
556.660143	10571.221477
557.017625	10731.109233
557.375050	10627.153079
557.732421	10757.875240
558.089735	10668.026755
558.446994	10672.936839
558.804197	10708.804648
559.161345	10713.172808
559.518437	10557.869982
559.875474	10647.312654
560.232455	10678.235091
560.589381	10625.539910
560.946251	10620.667635
561.303065	10730.000180
561.659825	10664.356795
562.016528	10597.990004
562.373177	10471.981323
562.729770	10588.442059
563.086307	10505.857877
563.442789	10602.622825
563.799216	10479.505245
564.155587	10529.972236
564.511904	10487.530762
564.868164	10473.642383
565.224370	10495.883954
565.580520	10417.428477
565.936615	10415.938816
566.292654	10294.832656
566.648638	10420.896790
567.004567	10375.513803
567.360441	10358.595691
567.716260	10271.421538
568.072023	10368.148677
568.427732	10320.560185
568.783385	10225.821781
569.138982	10293.025403
569.494525	10309.512496
569.850013	10190.876502
570.205445	10262.375187
570.560823	10165.229632
570.916145	10081.969935
571.271412	10153.932406
571.626625	10092.841183
571.981782	10069.167925
572.336884	10044.693123
572.691931	10051.864164
573.046923	9995.499023
573.401860	9951.837590
573.756743	9888.336695
574.111570	9930.135422
574.466342	9922.538403
574.821059	9954.847158
575.175722	9837.985651
575.530330	9852.355460
575.884882	9837.453809
576.239380	9764.372202
576.593823	9745.319161
576.948211	9761.261810
577.302544	9638.129106
577.656823	9652.418257
578.011047	9653.451693
578.365216	9631.875555
578.719330	9554.037619
579.073389	9566.322911
579.427394	9514.867854
579.781344	9491.668464
580.135239	9442.093757
580.489080	9452.065159
580.842866	9351.695786
581.196597	9361.016879
581.550273	9398.160101
581.903895	9364.361685
582.257463	9432.427344
582.610975	9317.229417
582.964434	9341.744548
583.317837	9256.491075
583.671186	9236.729752
584.024481	9232.729596
584.377721	9157.177824
584.730906	9132.045151
585.084037	9153.603646
585.437113	9101.609185
585.790135	9117.440928
586.143103	9018.041977
586.496016	8993.637752
586.848874	9045.697748
587.201679	9031.602681
587.554428	8925.917412
587.907124	8964.683885
588.259765	8936.715563
588.612352	8938.001057
588.964884	8813.681162
589.317362	8835.705963
589.669786	8830.657248
590.022155	8879.677428
590.374470	8894.420282
590.726731	8833.485335
591.078937	8682.308693
591.431090	8801.660531
591.783188	8669.252105
592.135232	8666.471908
592.487222	8661.670209
592.839157	8713.362201
593.191038	8649.213518
593.542866	8595.676464
593.894639	8491.788366
594.246358	8543.898773
594.598022	8559.967451
594.949633	8458.602450
595.301190	8434.447761
595.652692	8462.481618
596.004141	8572.146879
596.355535	8351.447684
596.706876	8329.710228
597.058162	8265.496011
597.409395	8340.894028
597.760573	8404.790653
598.111698	8309.868247
598.462768	8297.628325
598.813785	8263.522399
599.164748	8230.578459
599.515657	8224.740802
599.866511	8137.024726
600.217312	8256.459742
600.568060	8115.607383
600.918753	8223.248621
601.269392	8190.750823
601.619978	8103.432997
601.970510	8168.136207
602.320988	8166.555805
602.671412	8220.992705
603.021783	8156.221439
603.372100	8131.154302
603.722363	8132.165053
604.072572	8103.133048
604.422728	8117.626366
604.772830	8047.796302
605.122878	8057.218219
605.472872	8046.702372
605.822813	8073.564160
606.172701	8025.131275
606.522534	8096.975279
606.872314	8096.660207
607.222041	8070.395795
607.571714	8119.927652
607.921333	8079.653874
608.270899	8084.707631
608.620411	8172.774068
608.969870	8084.253927
609.319276	8075.792350
609.668627	8086.925739
610.017926	8127.486863
610.367171	8170.339191
610.716362	8147.253227
611.065500	8141.566805
611.414585	8169.605703
611.763616	8157.580030
612.112594	8140.583780
612.461518	8155.059453
612.810389	8213.047846
613.159207	8149.458732
613.507971	8101.792101
613.856682	8219.359371
614.205340	8175.730705
614.553945	8252.063856
614.902496	8149.993094
615.250994	8205.718008
615.599439	8189.548507
615.947830	8204.160292
616.296169	8173.988986
616.644454	8188.202519
616.992686	8185.908794
617.340864	8247.002538
617.688990	8148.102661
618.037063	8236.025425
618.385082	8185.326541
618.733048	8268.999613
619.080961	8211.422074
619.428821	8226.641318
619.776628	8231.281700
620.124382	8184.961058
620.472083	8167.808532
620.819731	8197.518572
621.167326	8088.246521
621.514868	8096.929908
621.862357	7979.221487
622.209793	8000.926175
622.557176	7933.016791
622.904506	7902.963952
623.251783	7837.063469
623.599007	7794.460678
623.946179	7798.831358
624.293297	7760.397601
624.640363	7670.385279
624.987376	7649.449367
625.334336	7606.019826
625.681243	7551.857669
626.028097	7537.132459
626.374899	7515.679829
626.721647	7509.895105
627.068343	7440.458252
627.414987	7415.577637
627.761577	7364.208279
628.108115	7403.279742
628.454600	7302.335677
628.801032	7350.234201
629.147412	7309.834394
629.493739	7293.405273
629.840014	7231.119297
630.186236	7295.038607
630.532405	7174.721388
630.878521	7224.280972
631.224585	7182.857811
631.570597	7100.281190
631.916556	7135.934751
632.262462	7130.331508
632.608316	7094.705674
632.954117	7075.952582
633.299866	7060.766106
633.645562	7053.058182
633.991206	6973.072714
634.336797	6914.098776
634.682336	6876.365739
635.027823	6840.442477
635.373257	6836.538103
635.718639	6761.608913
636.063968	6775.469566
636.409245	6668.534090
636.754470	6668.334964
637.099642	6632.063862
637.444762	6569.301497
637.789829	6583.852787
638.134845	6524.266349
638.479808	6511.277816
638.824719	6512.802765
639.169577	6438.750736
639.514383	6456.714887
639.859137	6384.311315
640.203839	6396.896556
640.548489	6384.195369
