Dividing Wavelength (nm)	Counts (n)	Blue Motor Position (mm): 7.800000	Red Motor Position (mm): 0.000000	
326.493990	2160.154588
326.888308	2160.154588
327.282561	2160.154588
327.676750	2118.146653
328.070874	2111.527618
328.464933	2112.364449
328.858929	2115.994080
329.252859	2123.134874
329.646726	2130.797428
330.040528	2143.601959
330.434265	2158.238949
330.827938	2174.819304
331.221547	2191.765143
331.615091	2207.662422
332.008571	2226.649928
332.401986	2244.838411
332.795338	2263.725093
333.188625	2284.134205
333.581847	2301.813531
333.975006	2319.112251
334.368100	2337.678820
334.761129	2353.210615
335.154095	2374.852289
335.546996	2390.396687
335.939833	2409.164903
336.332606	2422.375246
336.725315	2436.520724
337.117960	2451.250975
337.510540	2461.056020
337.903056	2470.072123
338.295508	2483.209370
338.687896	2490.025010
339.080220	2497.828716
339.472480	2505.667711
339.864676	2509.788854
340.256807	2515.752539
340.648875	2517.842097
341.040879	2522.638755
341.432818	2522.411903
341.824694	2529.353572
342.216506	2527.821061
342.608253	2530.467667
342.999937	2528.287368
343.391557	2529.527492
343.783113	2528.612522
344.174605	2530.318953
344.566033	2526.255783
344.957397	2524.735875
345.348697	2524.294774
345.739934	2523.679753
346.131106	2520.440812
346.522215	2518.830163
346.913260	2516.823784
347.304241	2515.568537
347.695159	2516.730523
348.086012	2513.826818
348.476802	2511.409585
348.867528	2506.096209
349.258191	2501.753255
349.648789	2503.063955
350.039324	2501.420538
350.429796	2506.121414
350.820203	2499.847698
351.210548	2502.776609
351.600828	2497.944663
351.991045	2498.857112
352.381198	2497.377533
352.771288	2496.298726
353.161314	2496.646566
353.551276	2497.322080
353.941175	2496.026504
354.331010	2493.959631
354.720782	2493.374857
355.110490	2493.016935
355.500135	2494.398211
355.889717	2494.183962
356.279235	2492.923674
356.668689	2494.592296
357.058080	2493.778149
357.447408	2496.286123
357.836672	2493.127840
358.225873	2495.575321
358.615010	2494.713283
359.004084	2497.889210
359.393095	2495.910557
359.782043	2497.861484
360.170927	2498.627739
360.559748	2500.112359
360.948505	2497.866525
361.337199	2502.527072
361.725830	2499.951042
362.114398	2500.417349
362.502903	2499.086484
362.891344	2503.936074
363.279722	2502.050683
363.668037	2501.803666
364.056289	2500.714777
364.444478	2504.372134
364.832603	2501.473471
365.220665	2505.052690
365.608665	2504.941784
365.996601	2507.323730
366.384474	2504.866167
366.772284	2504.493122
367.160031	2507.651405
367.547715	2506.862464
367.935336	2505.264418
368.322893	2503.736949
368.710388	2502.733759
369.097820	2504.820797
369.485189	2503.860457
369.872495	2506.363390
370.259738	2509.254492
370.646918	2507.737104
371.034035	2505.440859
371.421090	2506.035715
371.808081	2511.119718
372.195010	2507.051507
372.581875	2511.039060
372.968678	2508.384893
373.355418	2508.939419
373.742096	2510.718947
374.128710	2510.434122
374.515262	2508.541168
374.901751	2514.764473
375.288177	2510.686179
375.674540	2511.845645
376.060841	2510.091323
376.447079	2512.279184
376.833254	2514.177178
377.219367	2512.687517
377.605417	2515.334123
377.991404	2512.407733
378.377329	2515.535769
378.763191	2510.023268
379.148991	2515.142559
379.534727	2515.898732
379.920402	2513.773886
380.306013	2510.666015
380.691563	2516.213804
381.077049	2512.291787
381.462474	2514.015861
381.847835	2513.824298
382.233134	2517.292611
382.618371	2515.976870
383.003545	2512.006962
383.388657	2516.884278
383.773706	2515.752539
384.158693	2516.440656
384.543618	2517.053157
384.928480	2515.470234
385.313280	2518.507529
385.698017	2517.118692
386.082692	2518.535256
386.467305	2517.143897
386.851856	2519.114988
387.236344	2517.751356
387.620770	2517.262364
388.005133	2513.080727
388.389435	2517.970647
388.773674	2514.154493
389.157851	2519.490554
389.541965	2518.293280
389.926018	2520.841584
390.310008	2520.617252
390.693936	2518.575585
391.077802	2517.905112
391.461606	2518.870493
391.845348	2518.378980
392.229027	2518.694052
392.612645	2519.394773
392.996200	2520.992818
393.379694	2521.449043
393.763125	2523.052130
394.146494	2520.420647
394.529801	2522.497603
394.913047	2521.522139
395.296230	2521.665812
395.679351	2520.171110
396.062410	2523.205885
396.445408	2520.501306
396.828343	2518.936028
397.211217	2521.955679
397.594028	2521.764115
397.976778	2522.225380
398.359466	2525.277799
398.742092	2524.849301
399.124656	2525.108920
399.507158	2525.640762
399.889598	2525.776873
400.271977	2524.887110
400.654294	2524.909795
401.036549	2523.304187
401.418742	2524.773684
401.800874	2523.866276
402.182944	2526.754857
402.564952	2525.176976
402.946898	2524.856863
403.328783	2524.753519
403.710606	2525.749147
404.092367	2525.827285
404.474067	2525.532377
404.855705	2526.686802
405.237282	2526.369209
405.618797	2523.652027
406.000250	2527.551359
406.381642	2528.403314
406.762972	2525.270237
407.144240	2521.691018
407.525447	2524.902233
407.906593	2523.899043
408.287677	2524.181348
408.668700	2526.545649
409.049661	2527.397604
409.430560	2527.566483
409.811399	2528.136133
410.192176	2528.889786
410.572891	2527.712676
410.953545	2527.412728
411.334138	2529.517409
411.714669	2527.226205
412.095139	2528.030269
412.475547	2528.100845
412.855894	2527.294261
413.236180	2527.044723
413.616405	2527.405166
413.996568	2528.557070
414.376670	2529.240146
414.756711	2529.900537
415.136691	2530.805424
415.516609	2531.125537
415.896466	2531.891793
416.276262	2530.170239
416.655997	2532.201824
417.035670	2531.627132
417.415283	2530.815507
417.794834	2530.949097
418.174324	2533.525127
418.553753	2532.161495
418.933121	2532.494211
419.312428	2530.651669
419.691674	2533.288193
420.070859	2533.303316
420.449983	2531.110414
420.829045	2530.931453
421.208047	2530.187883
421.586988	2533.021011
421.965867	2532.438758
422.344686	2533.399098
422.723444	2533.908254
423.102141	2531.808614
423.480777	2533.794828
423.859352	2531.722914
424.237866	2531.833820
424.616319	2531.622091
424.994712	2533.711649
425.373044	2533.111752
425.751314	2528.834333
426.129524	2528.620084
426.507673	2531.564118
426.885762	2525.663447
427.263789	2533.126876
427.641756	2532.902544
428.019662	2534.014119
428.397508	2535.203831
428.775292	2534.792977
429.153016	2535.284489
429.530679	2533.326001
429.908282	2534.838347
430.285824	2535.967566
430.663305	2534.606454
431.040726	2534.303985
431.418086	2533.971269
431.795385	2535.264325
432.172624	2535.980169
432.549802	2534.263656
432.926920	2536.759027
433.303977	2534.558563
433.680974	2538.268852
434.057910	2534.707277
434.434786	2533.714170
434.811601	2536.149047
435.188355	2537.621064
435.565050	2537.681558
435.941683	2536.383461
436.318257	2537.174922
436.694770	2537.132072
437.071222	2533.527647
437.447614	2539.400592
437.823946	2539.211548
438.200218	2537.147196
438.576429	2538.752803
438.952580	2535.740714
439.328670	2536.592669
439.704700	2536.728780
440.080670	2540.068544
440.456580	2539.665252
440.832429	2534.419932
441.208218	2539.887063
441.583947	2537.545447
441.959616	2539.030067
442.335224	2537.928575
442.710773	2537.820190
443.086261	2538.672145
443.461689	2536.648122
443.837057	2539.365303
444.212365	2538.107536
444.587612	2535.012267
444.962800	2535.584438
445.337927	2536.096115
445.712995	2534.699716
446.088002	2539.705581
446.462949	2538.896476
446.837837	2538.823379
447.212664	2539.251877
447.587431	2542.188350
447.962139	2538.667104
448.336786	2540.764224
448.711374	2540.391178
449.085901	2538.402443
449.460369	2540.822197
449.834776	2537.578214
450.209124	2539.650129
450.583412	2542.029553
450.957640	2540.537372
451.331808	2539.587114
451.705917	2537.857998
452.079965	2540.199614
452.453954	2541.059131
452.827883	2539.503935
453.201752	2541.109543
453.575562	2541.472506
453.949311	2539.123328
454.323001	2540.169367
454.696632	2538.430169
455.070202	2542.319420
455.443713	2542.253885
455.817164	2543.156251
456.190556	2540.721374
456.563888	2542.203473
456.937160	2541.999306
457.310373	2540.920499
457.683526	2542.740356
458.056619	2540.630633
458.429653	2544.015768
458.802628	2542.483257
459.175542	2541.427135
459.548398	2539.912269
459.921194	2543.642722
460.293930	2541.482588
460.666607	2544.320758
461.039224	2540.123997
461.411782	2540.401261
461.784280	2542.919317
462.156719	2542.160623
462.529099	2544.645912
462.901419	2545.699513
463.273680	2540.973432
463.645882	2537.416898
464.018024	2542.095088
464.390106	2538.599048
464.762130	2541.870757
465.134094	2541.434697
465.505999	2545.255892
465.877845	2545.412168
466.249631	2544.963505
466.621358	2543.836807
466.993026	2544.577857
467.364634	2548.404092
467.736184	2544.018288
468.107674	2545.712116
468.479105	2542.551313
468.850477	2544.056097
469.221790	2541.306148
469.593043	2544.373690
469.964238	2543.065510
470.335373	2544.729091
470.706449	2543.685572
471.077467	2542.619368
471.448425	2545.170192
471.819324	2543.594832
472.190164	2545.631458
472.560945	2543.126004
472.931667	2542.871426
473.302330	2542.712630
473.672934	2542.720191
474.043479	2546.606921
474.413965	2545.328988
474.784393	2546.122970
475.154761	2544.741694
475.525070	2545.265974
475.895321	2544.134235
476.265513	2542.863864
476.635645	2545.258412
477.005719	2544.756817
477.375734	2544.829914
477.745691	2544.852599
478.115588	2545.235727
478.485427	2543.519214
478.855207	2545.472661
479.224928	2543.869574
479.594591	2547.418547
479.964194	2546.256561
480.333739	2545.709596
480.703226	2546.662374
481.072653	2544.414019
481.442022	2545.601211
481.811333	2543.189019
482.180584	2543.151210
482.549777	2544.890408
482.918912	2541.492670
483.287988	2545.404606
483.657005	2547.479041
484.025964	2547.569781
484.394864	2545.139945
484.763706	2547.721016
485.132489	2545.356715
485.501213	2547.592467
485.869879	2546.339740
486.238487	2546.856458
486.607036	2546.503577
486.975527	2544.134235
487.343959	2548.383928
487.712333	2546.506098
488.080648	2546.858979
488.448905	2548.983825
488.817104	2545.933927
489.185244	2549.571119
489.553326	2550.286963
489.921350	2547.174051
490.289315	2548.789741
490.657222	2549.215718
491.025070	2547.726057
491.392861	2549.130018
491.760593	2550.367622
492.128267	2547.121119
492.495883	2548.643547
492.863440	2549.669422
493.230939	2551.217056
493.598380	2548.547765
493.965763	2549.568599
494.333088	2548.189843
494.700354	2548.348640
495.067563	2548.290666
495.434713	2547.012734
495.801805	2550.569268
496.168839	2548.562889
496.535815	2550.259237
496.902733	2547.690769
497.269593	2549.346788
497.636395	2548.709082
498.003139	2547.693290
498.369825	2547.637837
498.736453	2549.041798
499.103023	2549.369473
499.469535	2549.424926
499.835989	2551.315359
500.202385	2547.284956
500.568723	2544.040974
500.935003	2543.551982
501.301226	2544.434184
501.667390	2550.138249
502.033497	2548.963660
502.399546	2549.077086
502.765537	2549.561037
503.131470	2549.828218
503.497345	2549.384597
503.863163	2551.189330
504.228923	2548.303269
504.594625	2551.272509
504.960269	2550.264278
505.325856	2549.495502
505.691385	2552.086655
506.056856	2549.767724
506.422270	2549.361912
506.787625	2550.249155
507.152924	2545.739842
507.518164	2550.539021
507.883347	2549.311500
508.248472	2549.006510
508.613540	2548.726726
508.978550	2548.363763
509.343503	2548.159596
509.708398	2548.371325
510.073236	2552.429454
510.438016	2553.662016
510.802738	2549.419885
511.167403	2549.893753
511.532010	2547.920142
511.896561	2548.812426
512.261053	2548.930893
512.625488	2549.767724
512.989866	2549.777807
513.354186	2549.278733
513.718449	2551.335523
514.082655	2550.473486
514.446803	2552.116902
514.810894	2553.760318
515.174927	2552.895760
515.538904	2549.324103
515.902822	2549.921480
516.266684	2551.917777
516.630488	2553.225956
516.994235	2549.387117
517.357925	2548.570450
517.721558	2551.113713
518.085133	2551.149001
518.448651	2549.409802
518.812112	2547.668084
519.175516	2550.712941
519.538863	2549.195553
519.902152	2549.747560
520.265385	2553.546069
520.628560	2550.090358
520.991678	2552.313507
521.354739	2553.309135
521.717743	2551.635472
522.080690	2552.008517
522.443580	2549.840821
522.806413	2551.685883
523.169189	2550.407951
523.531908	2553.077242
523.894569	2551.194371
524.257174	2551.247303
524.619722	2553.425082
524.982213	2554.554300
525.344647	2550.178578
525.707025	2555.174362
526.069345	2553.528425
526.431608	2554.193857
526.793815	2554.153528
527.155964	2550.811243
527.518057	2552.429454
527.880093	2551.577499
528.242072	2551.892571
528.603995	2553.084804
528.965860	2552.023641
529.327669	2553.712427
529.689421	2549.550955
530.051117	2553.457849
530.412755	2551.953065
530.774337	2550.602035
531.135862	2550.614638
531.497331	2551.968188
531.858743	2553.805689
532.220098	2554.007335
532.581396	2552.361398
532.942638	2555.292829
533.303824	2555.088662
533.664953	2555.784342
534.026025	2553.896429
534.387040	2555.560010
534.747999	2556.507747
535.108902	2556.404403
535.469748	2552.205122
535.830537	2557.095042
536.191270	2552.968857
536.551947	2554.831563
536.912567	2552.222766
537.273131	2556.066646
537.633638	2553.122612
537.994089	2557.052192
538.354483	2556.797613
538.714821	2556.240566
539.075103	2556.202757
539.435328	2558.133519
539.795497	2558.181410
540.155609	2561.470763
540.515665	2561.748027
540.875665	2563.220043
541.235609	2560.399518
541.595496	2562.105948
541.955328	2561.153170
542.315102	2562.355486
542.674821	2561.982440
543.034483	2565.420507
543.394090	2563.399004
543.753640	2564.830692
544.113134	2565.788511
544.472571	2566.834551
544.831953	2566.055693
545.191278	2565.591906
545.550548	2567.121897
545.909761	2568.598955
546.268918	2566.879921
546.628019	2566.912689
546.987064	2569.559294
547.346053	2567.217678
547.704986	2566.577452
548.063863	2568.881259
548.422684	2566.960580
548.781449	2569.927299
549.140158	2570.335632
549.498811	2571.104408
549.857408	2568.780436
550.215949	2571.331260
550.574434	2570.476784
550.932864	2571.379151
551.291237	2572.531055
551.649555	2571.769840
552.007817	2572.183215
552.366022	2571.626168
552.724173	2574.456775
553.082267	2575.081878
553.440305	2572.460478
553.798288	2574.469378
554.156215	2573.587176
554.514086	2573.501477
554.871902	2569.881928
555.229661	2571.724470
555.587365	2571.162381
555.945014	2574.832341
556.302606	2576.952147
556.660143	2575.719584
557.017625	2578.008268
557.375050	2576.478278
557.732421	2577.675552
558.089735	2575.679255
558.446994	2576.858885
558.804197	2579.112281
559.161345	2576.453072
559.518437	2575.336457
559.875474	2576.319482
560.232455	2576.127918
560.589381	2576.337126
560.946251	2576.014492
561.303065	2579.742425
561.659825	2576.868968
562.016528	2579.465162
562.373177	2576.289235
562.729770	2576.150603
563.086307	2579.515573
563.442789	2577.652867
563.799216	2576.427867
564.155587	2579.447518
564.511904	2580.143197
564.868164	2575.243195
565.224370	2576.957188
565.580520	2579.220666
565.936615	2579.709658
566.292654	2577.121025
566.648638	2577.703278
567.004567	2576.107753
567.360441	2577.441138
567.716260	2577.204204
568.072023	2578.381314
568.427732	2576.047259
568.783385	2576.909297
569.138982	2576.523648
569.494525	2577.458782
569.850013	2576.319482
570.205445	2577.133628
570.560823	2573.703123
570.916145	2577.985583
571.271412	2577.292424
571.626625	2577.965418
571.981782	2575.916189
572.336884	2575.076837
572.691931	2571.976528
573.046923	2571.643812
573.401860	2569.612227
573.756743	2575.127249
574.111570	2573.405695
574.466342	2573.604820
574.821059	2573.501477
575.175722	2572.231106
575.530330	2575.263360
575.884882	2572.798236
576.239380	2575.890984
576.593823	2574.867629
576.948211	2574.176991
577.302544	2573.544327
577.656823	2572.495767
578.011047	2574.295458
578.365216	2573.383010
578.719330	2574.187074
579.073389	2572.362176
579.427394	2573.355283
579.781344	2570.869994
580.135239	2573.143555
580.489080	2571.790005
580.842866	2570.345714
581.196597	2574.360993
581.550273	2570.242371
581.903895	2571.303534
582.257463	2571.669017
582.610975	2570.738924
582.964434	2571.149778
583.317837	2570.953173
583.671186	2570.824624
584.024481	2571.981569
584.377721	2568.767833
584.730906	2569.292113
585.084037	2570.668348
585.437113	2572.321847
585.790135	2573.440983
586.143103	2570.428893
586.496016	2569.055179
586.848874	2569.463512
587.201679	2570.345714
587.554428	2568.382185
587.907124	2571.210272
588.259765	2568.233471
588.612352	2566.653069
588.964884	2570.557443
589.317362	2568.326732
589.669786	2567.741958
590.022155	2566.456464
590.374470	2563.751885
590.726731	2564.997050
591.078937	2565.700291
591.431090	2569.203893
591.783188	2569.153482
592.135232	2567.129458
592.487222	2569.375292
592.839157	2567.084088
593.191038	2568.558625
593.542866	2567.454613
593.894639	2567.764644
594.246358	2567.121897
594.598022	2567.429407
594.949633	2565.289437
595.301190	2565.319684
595.652692	2567.426886
596.004141	2562.988150
596.355535	2567.217678
596.706876	2563.656103
597.058162	2563.293140
597.409395	2565.579303
597.760573	2565.949828
598.111698	2562.758778
598.462768	2566.337997
598.813785	2567.021073
599.164748	2567.300858
599.515657	2567.139541
599.866511	2567.184911
600.217312	2566.476629
600.568060	2566.665672
600.918753	2569.236661
601.269392	2567.807493
601.619978	2564.671896
601.970510	2562.121072
602.320988	2567.373954
602.671412	2566.658110
603.021783	2564.785322
603.372100	2567.265569
603.722363	2567.588203
604.072572	2568.293965
604.422728	2566.436300
604.772830	2570.411249
605.122878	2565.982596
605.472872	2565.932184
605.822813	2567.641135
606.172701	2567.184911
606.522534	2565.360013
606.872314	2565.906978
607.222041	2567.792370
607.571714	2561.690053
607.921333	2562.421021
608.270899	2565.286917
608.620411	2563.386402
608.969870	2571.603482
609.319276	2572.997361
609.668627	2575.890984
610.017926	2581.222004
610.367171	2579.991962
610.716362	2582.999011
611.065500	2579.601273
611.414585	2577.443659
611.763616	2577.783937
612.112594	2577.559606
612.461518	2573.705643
612.810389	2571.550550
613.159207	2573.166240
613.507971	2572.392423
613.856682	2573.062896
614.205340	2575.381827
614.553945	2574.537434
614.902496	2571.963925
615.250994	2574.033318
615.599439	2570.869994
615.947830	2573.035170
616.296169	2572.911662
616.644454	2574.600448
616.992686	2571.671538
617.340864	2574.736559
617.688990	2572.773030
618.037063	2572.911662
618.385082	2572.037022
618.733048	2571.560632
619.080961	2572.770509
619.428821	2577.443659
619.776628	2573.060376
620.124382	2577.554564
620.472083	2575.734708
620.819731	2576.037177
621.167326	2577.559606
621.514868	2576.407702
621.862357	2576.657239
622.209793	2576.495922
622.557176	2577.753690
622.904506	2574.418967
623.251783	2574.928123
623.599007	2575.502815
623.946179	2576.011971
624.293297	2576.609348
624.640363	2574.182032
624.987376	2573.650191
625.334336	2571.026270
625.681243	2574.199677
626.028097	2570.955694
626.374899	2578.996334
626.721647	2576.054821
627.068343	2573.511559
627.414987	2575.059193
627.761577	2576.165727
628.108115	2574.441652
628.454600	2574.711354
628.801032	2577.214287
629.147412	2578.487178
629.493739	2577.960377
629.840014	2581.247210
630.186236	2578.661098
630.532405	2579.936510
630.878521	2580.743094
631.224585	2579.031622
631.570597	2576.574060
631.916556	2577.131107
632.262462	2577.688155
632.608316	2579.021540
632.954117	2580.024730
633.299866	2581.955492
633.645562	2581.804257
633.991206	2581.932807
634.336797	2580.551530
634.682336	2578.968608
635.027823	2581.489185
635.373257	2580.743094
635.718639	2581.824422
636.063968	2580.717888
636.409245	2580.793506
636.754470	2581.138825
637.099642	2580.372569
637.444762	2576.377455
637.789829	2584.143353
638.134845	2581.267374
638.479808	2578.630851
638.824719	2583.382138
639.169577	2581.040522
639.514383	2579.944071
639.859137	2581.234607
640.203839	2582.787282
640.548489	2581.579926
640.893086	2584.743250
641.237632	2580.904411
641.582125	2585.086048
641.926566	2583.850966
642.270955	2579.994483
642.615292	2580.859041
642.959576	2582.164700
643.303809	2582.273084
643.647990	2587.004207
643.992118	2586.237952
644.336195	2584.428178
