Dividing Wavelength (nm)	Counts (n)	Blue Motor Position (mm): 10.500000	Red Motor Position (mm): 0.000000	
326.493990	2162.108035
326.888308	2162.108035
327.282561	2162.108035
327.676750	2119.318721
328.070874	2117.075408
328.464933	2119.084307
328.858929	2120.455501
329.252859	2128.730555
329.646726	2133.741462
330.040528	2150.793165
330.434265	2160.426810
330.827938	2178.501867
331.221547	2196.834023
331.615091	2212.678370
332.008571	2229.377192
332.401986	2250.192116
332.795338	2268.211720
333.188625	2286.027158
333.581847	2304.094653
333.975006	2322.701552
334.368100	2341.542865
334.761129	2360.336286
335.154095	2376.916641
335.546996	2394.585886
335.939833	2419.000194
336.332606	2433.808583
336.725315	2445.471293
337.117960	2461.406380
337.510540	2472.476754
337.903056	2482.581747
338.295508	2489.848570
338.687896	2497.927019
339.080220	2506.701147
339.472480	2512.541324
339.864676	2521.292767
340.256807	2526.883407
340.648875	2526.480114
341.040879	2531.947246
341.432818	2534.979500
341.824694	2536.257432
342.216506	2539.740869
342.608253	2541.003678
342.999937	2538.898997
343.391557	2541.061652
343.783113	2541.364121
344.174605	2538.377237
344.566033	2535.786084
344.957397	2534.659386
345.348697	2534.354397
345.739934	2533.497400
346.131106	2528.398273
346.522215	2529.603109
346.913260	2526.807789
347.304241	2525.756709
347.695159	2521.567510
348.086012	2522.641276
348.476802	2520.042561
348.867528	2515.714730
349.258191	2511.840603
349.648789	2513.491581
350.039324	2508.836076
350.429796	2512.906808
350.820203	2511.840603
351.210548	2508.513442
351.600828	2504.097391
351.991045	2508.150479
352.381198	2504.951867
352.771288	2507.608555
353.161314	2504.573780
353.551276	2507.177536
353.941175	2505.302227
354.331010	2504.823317
354.720782	2502.781650
355.110490	2505.113184
355.500135	2503.734428
355.889717	2505.246774
356.279235	2503.628564
356.668689	2507.043946
357.058080	2504.150323
357.447408	2507.001096
357.836672	2502.653101
358.225873	2506.993534
358.615010	2503.439521
359.004084	2504.911537
359.393095	2504.851044
359.782043	2507.414470
360.170927	2508.238699
360.559748	2507.192660
360.948505	2506.353308
361.337199	2509.993021
361.725830	2509.393123
362.114398	2510.784482
362.502903	2510.290449
362.891344	2508.778102
363.279722	2513.055522
363.668037	2509.231806
364.056289	2513.398320
364.444478	2510.867661
364.832603	2515.220697
365.220665	2513.773886
365.608665	2513.703310
365.996601	2511.674245
366.384474	2513.322703
366.772284	2515.707168
367.160031	2515.371932
367.547715	2516.856552
367.935336	2517.663136
368.322893	2514.998886
368.710388	2513.121057
369.097820	2514.015861
369.485189	2514.444359
369.872495	2518.137005
370.259738	2516.939731
370.646918	2519.977026
371.034035	2519.477952
371.421090	2519.160359
371.808081	2519.934176
372.195010	2519.876203
372.581875	2518.865451
372.968678	2519.916532
373.355418	2521.817047
373.742096	2519.525842
374.128710	2518.598270
374.515262	2522.207736
374.901751	2519.288908
375.288177	2523.548683
375.674540	2520.322345
376.060841	2522.739578
376.447079	2521.444002
376.833254	2524.045237
377.219367	2520.718075
377.605417	2523.236132
377.991404	2523.606657
378.377329	2524.367871
378.763191	2521.948117
379.148991	2523.210926
379.534727	2522.875689
379.920402	2524.541791
380.306013	2523.034486
380.691563	2525.683612
381.077049	2523.059691
381.462474	2525.086235
381.847835	2527.044723
382.233134	2524.181348
382.618371	2525.025741
383.003545	2524.037675
383.388657	2524.927439
383.773706	2527.402645
384.158693	2526.480114
384.543618	2524.556914
384.928480	2527.858870
385.313280	2527.188396
385.698017	2530.951618
386.082692	2526.926256
386.467305	2526.732172
386.851856	2528.466329
387.236344	2527.581606
387.620770	2523.790659
388.005133	2525.522295
388.389435	2525.343334
388.773674	2523.848632
389.157851	2528.516740
389.541965	2530.477749
389.926018	2530.528161
390.310008	2528.763757
390.693936	2529.396422
391.077802	2528.607481
391.461606	2532.768954
391.845348	2532.206865
392.229027	2529.587986
392.612645	2530.465146
392.996200	2531.211237
393.379694	2531.387678
393.763125	2533.111752
394.146494	2528.983047
394.529801	2532.877338
394.913047	2532.214427
395.296230	2529.872811
395.679351	2533.386495
396.062410	2533.288193
396.445408	2533.366330
396.828343	2533.421783
397.211217	2530.984385
397.594028	2533.825075
397.976778	2535.153419
398.359466	2534.278779
398.742092	2531.793490
399.124656	2533.378933
399.507158	2533.129396
399.889598	2535.052596
400.271977	2535.662576
400.654294	2534.054448
401.036549	2530.573531
401.418742	2535.007226
401.800874	2533.719211
402.182944	2533.482277
402.564952	2535.226516
402.946898	2536.464119
403.328783	2533.421783
403.710606	2536.111239
404.092367	2536.819521
404.474067	2536.905220
404.855705	2535.614685
405.237282	2536.743903
405.618797	2538.634336
406.000250	2537.142155
406.381642	2535.652494
406.762972	2535.909593
407.144240	2531.491021
407.525447	2535.987730
407.906593	2534.490508
408.287677	2538.551157
408.668700	2536.370858
409.049661	2538.536034
409.430560	2536.771630
409.811399	2537.621064
410.192176	2538.672145
410.572891	2536.753986
410.953545	2538.132741
411.334138	2539.579553
411.714669	2539.556867
412.095139	2536.973276
412.475547	2538.263811
412.855894	2537.500077
413.236180	2540.497042
413.616405	2539.340098
413.996568	2539.420756
414.376670	2541.316230
414.756711	2539.498894
415.136691	2538.888914
415.516609	2540.116435
415.896466	2539.478729
416.276262	2540.209697
416.655997	2540.481919
417.035670	2542.021992
417.415283	2542.074924
417.794834	2542.384955
418.174324	2540.676003
418.553753	2539.889583
418.933121	2543.380582
419.312428	2540.492001
419.691674	2543.408309
420.070859	2540.731456
420.449983	2540.428987
420.829045	2542.984852
421.208047	2541.104502
421.586988	2542.964687
421.965867	2543.501570
422.344686	2544.532486
422.723444	2543.980480
423.102141	2541.540561
423.480777	2545.114739
423.859352	2541.331353
424.237866	2541.890922
424.616319	2544.814791
424.994712	2542.972249
425.373044	2544.731612
425.751314	2540.338246
426.129524	2539.781199
426.507673	2541.260777
426.885762	2538.707433
427.263789	2543.955274
427.641756	2542.982331
428.019662	2548.036088
428.397508	2540.391178
428.775292	2544.015768
429.153016	2545.107178
429.530679	2547.491643
429.908282	2548.877961
430.285824	2546.445604
430.663305	2546.352343
431.040726	2545.845707
431.418086	2547.421067
431.795385	2547.015254
432.172624	2545.457538
432.549802	2544.872764
432.926920	2546.022147
433.303977	2547.801674
433.680974	2546.475851
434.057910	2546.281767
434.434786	2549.669422
434.811601	2547.403423
435.188355	2548.704041
435.565050	2546.377548
435.941683	2546.153217
436.318257	2548.320913
436.694770	2542.873947
437.071222	2544.935778
437.447614	2547.179092
437.823946	2549.485420
438.200218	2547.201777
438.576429	2547.317724
438.952580	2546.831252
439.328670	2546.954761
439.704700	2548.109185
440.080670	2548.744370
440.456580	2547.748742
440.832429	2547.680687
441.208218	2547.738660
441.583947	2548.303269
441.959616	2547.905018
442.335224	2548.638506
442.710773	2545.704554
443.086261	2548.308310
443.461689	2547.821839
443.837057	2550.929710
444.212365	2546.962322
444.587612	2547.410985
444.962800	2545.681869
445.337927	2543.768751
445.712995	2543.965356
446.088002	2548.169679
446.462949	2551.219577
446.837837	2550.942313
447.212664	2549.636654
447.587431	2551.161603
447.962139	2550.919628
448.336786	2548.678835
448.711374	2547.232024
449.085901	2550.375183
449.460369	2550.589433
449.834776	2549.114895
450.209124	2549.656819
450.583412	2549.646737
450.957640	2550.700338
451.331808	2549.079607
451.705917	2552.910884
452.079965	2548.603218
452.453954	2548.726726
452.827883	2550.891902
453.201752	2553.929197
453.575562	2551.431305
453.949311	2549.858465
454.323001	2550.483568
454.696632	2552.321069
455.070202	2552.845349
455.443713	2551.580019
455.817164	2550.594474
456.190556	2552.389124
456.563888	2553.162942
456.937160	2550.029864
457.310373	2552.603373
457.683526	2549.825698
458.056619	2554.289639
458.429653	2550.423074
458.802628	2553.772921
459.175542	2553.936759
459.548398	2551.668239
459.921194	2550.977601
460.293930	2551.181768
460.666607	2553.173024
461.039224	2554.052705
461.411782	2553.009186
461.784280	2553.825853
462.156719	2552.926007
462.529099	2552.918446
462.901419	2553.624207
463.273680	2551.925338
463.645882	2549.324103
464.018024	2548.124308
464.390106	2545.144986
464.762130	2555.199568
465.134094	2552.905843
465.505999	2554.773590
465.877845	2555.139074
466.249631	2554.917263
466.621358	2554.874413
466.993026	2553.490617
467.364634	2559.499672
467.736184	2553.450287
468.107674	2555.580175
468.479105	2550.770914
468.850477	2552.918446
469.221790	2553.656975
469.593043	2552.928528
469.964238	2552.258054
470.335373	2553.765359
470.706449	2554.881975
471.077467	2552.558003
471.448425	2555.630586
471.819324	2556.384239
472.190164	2556.817778
472.560945	2558.546894
472.931667	2553.911553
473.302330	2555.071018
473.672934	2554.599670
474.043479	2554.791234
474.413965	2555.970864
474.784393	2554.433312
475.154761	2557.715103
475.525070	2555.708724
475.895321	2556.598488
476.265513	2557.369784
476.635645	2555.933056
477.005719	2557.263920
477.375734	2558.544373
477.745691	2557.044630
478.115588	2559.545042
478.485427	2557.642007
478.855207	2559.219888
479.224928	2559.794579
479.594591	2557.982285
479.964194	2559.383725
480.333739	2561.974878
480.703226	2560.313818
481.072653	2560.429765
481.442022	2559.325752
481.811333	2557.891544
482.180584	2555.892726
482.549777	2554.713096
482.918912	2555.139074
483.287988	2562.836916
483.657005	2559.691236
484.025964	2561.589230
484.394864	2561.548901
484.763706	2561.639642
485.132489	2559.071174
485.501213	2559.943293
485.869879	2560.409600
486.238487	2560.671740
486.607036	2562.428582
486.975527	2560.449929
487.343959	2560.344065
487.712333	2561.170814
488.080648	2561.659806
488.448905	2559.078736
488.817104	2559.426575
489.185244	2562.259704
489.553326	2561.508572
489.921350	2562.662996
490.289315	2561.586710
490.657222	2562.307595
491.025070	2563.507389
491.392861	2562.940259
491.760593	2563.656103
492.128267	2564.946639
492.495883	2562.889848
492.863440	2563.525033
493.230939	2565.112997
493.598380	2562.849519
493.965763	2561.732903
494.333088	2561.453119
494.700354	2563.381360
495.067563	2563.663665
495.434713	2562.559652
495.801805	2563.903120
496.168839	2563.648542
496.535815	2566.471588
496.902733	2561.385063
497.269593	2561.727862
497.636395	2561.183417
498.003139	2566.249777
498.369825	2562.254662
498.736453	2565.712894
499.103023	2564.185424
499.469535	2564.129972
499.835989	2563.998902
500.202385	2562.093346
500.568723	2560.013870
500.935003	2560.180228
501.301226	2559.015721
501.667390	2562.237018
502.033497	2565.067626
502.399546	2566.683316
502.765537	2566.096022
503.131470	2562.423541
503.497345	2563.560321
503.863163	2565.047462
504.228923	2564.258521
504.594625	2562.826833
504.960269	2564.003943
505.325856	2564.319015
505.691385	2565.453275
506.056856	2561.203582
506.422270	2562.360527
506.787625	2564.825651
507.152924	2563.363716
507.518164	2566.002760
507.883347	2562.443706
508.248472	2565.765826
508.613540	2564.679458
508.978550	2564.503017
509.343503	2562.824313
509.708398	2564.011505
510.073236	2565.521330
510.438016	2567.605847
510.802738	2565.309602
511.167403	2567.426886
511.532010	2565.410425
511.896561	2565.690209
512.261053	2565.039900
512.625488	2567.497462
512.989866	2564.898748
513.354186	2565.286917
513.718449	2564.722307
514.082655	2565.788511
514.446803	2566.721125
514.810894	2567.295816
515.174927	2566.771536
515.538904	2567.058882
515.902822	2568.127607
516.266684	2568.480487
516.630488	2568.586352
516.994235	2569.589541
517.357925	2567.986454
517.721558	2568.304047
518.085133	2570.126424
518.448651	2565.733059
518.812112	2567.719273
519.175516	2566.945456
519.538863	2563.615774
519.902152	2572.266394
520.265385	2570.834706
520.628560	2574.179512
520.991678	2571.366548
521.354739	2571.724470
521.717743	2573.088102
522.080690	2573.204049
522.443580	2575.588514
522.806413	2576.541292
523.169189	2577.194122
523.531908	2577.844431
523.894569	2573.141034
524.257174	2577.884760
524.619722	2577.511715
524.982213	2579.185378
525.344647	2578.741756
525.707025	2578.419122
526.069345	2581.436253
526.431608	2578.988773
526.793815	2578.449369
527.155964	2581.484144
527.518057	2582.618403
527.880093	2582.134453
528.242072	2584.551686
528.603995	2583.528332
528.965860	2585.212077
529.327669	2583.301480
529.689421	2585.882551
530.051117	2586.789958
530.412755	2585.968250
530.774337	2585.149063
531.135862	2586.361460
531.497331	2590.238107
531.858743	2588.882037
532.220098	2593.522419
532.581396	2588.980340
532.942638	2593.154415
533.303824	2592.604929
533.664953	2594.949066
534.026025	2594.447471
534.387040	2594.707090
534.747999	2594.545773
535.108902	2596.710949
535.469748	2596.683223
535.830537	2598.694643
536.191270	2598.576176
536.551947	2594.155084
536.912567	2594.361771
537.273131	2599.072730
537.633638	2597.656165
537.994089	2599.581886
538.354483	2600.968203
538.714821	2604.499532
539.075103	2603.302258
539.435328	2604.688575
539.795497	2603.743359
540.155609	2606.087495
540.515665	2603.521548
540.875665	2606.168154
541.235609	2606.740325
541.595496	2605.807711
541.955328	2608.098916
542.315102	2611.605038
542.674821	2607.819132
543.034483	2608.444235
543.394090	2610.712754
543.753640	2611.151334
544.113134	2613.581170
544.472571	2612.646036
544.831953	2614.087806
545.191278	2613.835749
545.550548	2615.847169
545.909761	2615.867334
546.268918	2617.558641
546.628019	2616.431943
546.987064	2615.925307
547.346053	2617.699793
547.704986	2614.952364
548.063863	2618.614762
548.422684	2618.473610
548.781449	2616.232817
549.140158	2617.077211
549.498811	2619.113837
549.857408	2617.120060
550.215949	2621.248765
550.574434	2618.012345
550.932864	2619.254989
551.291237	2618.687859
551.649555	2621.621811
552.007817	2621.117695
552.366022	2621.326903
552.724173	2619.355812
553.082267	2623.565176
553.440305	2622.993005
553.798288	2620.805144
554.156215	2624.815382
554.514086	2621.969650
554.871902	2622.002418
555.229661	2622.206585
555.587365	2619.330606
555.945014	2621.377315
556.302606	2623.020731
556.660143	2621.808333
557.017625	2627.908130
557.375050	2625.044754
557.732421	2626.698253
558.089735	2626.988119
558.446994	2623.242542
558.804197	2627.194806
559.161345	2626.224384
559.518437	2623.713890
559.875474	2627.461988
560.232455	2625.596761
560.589381	2624.810341
560.946251	2625.405197
561.303065	2626.418469
561.659825	2628.843264
562.016528	2624.994343
562.373177	2626.920063
562.729770	2625.329579
563.086307	2628.651700
563.442789	2627.068777
563.799216	2626.733541
564.155587	2627.396452
564.511904	2628.187914
564.868164	2626.428551
565.224370	2626.554580
565.580520	2624.888478
565.936615	2627.028448
566.292654	2628.218161
566.648638	2627.709004
567.004567	2626.922584
567.360441	2628.097173
567.716260	2627.550208
568.072023	2628.439971
568.427732	2629.836371
568.783385	2626.335290
569.138982	2622.993005
569.494525	2627.141874
569.850013	2628.641617
570.205445	2628.450054
570.560823	2626.395783
570.916145	2624.185237
571.271412	2627.497276
571.626625	2627.270424
571.981782	2628.502986
572.336884	2623.184568
572.691931	2624.326390
573.046923	2622.811523
573.401860	2621.271451
573.756743	2625.715228
574.111570	2627.141874
574.466342	2626.110958
574.821059	2626.068108
575.175722	2626.562142
575.530330	2627.925774
575.884882	2627.691360
576.239380	2629.813686
576.593823	2629.738068
576.948211	2627.865280
577.302544	2629.443161
577.656823	2624.366719
578.011047	2627.557769
578.365216	2629.057513
578.719330	2629.198665
579.073389	2628.639097
579.427394	2629.554066
579.781344	2628.434930
580.135239	2628.409724
580.489080	2629.249077
580.842866	2628.644138
581.196597	2635.447175
581.550273	2631.706639
581.903895	2632.626650
582.257463	2634.113790
582.610975	2632.621608
582.964434	2634.774181
583.317837	2634.955663
583.671186	2638.121507
584.024481	2639.815335
584.377721	2633.123203
584.730906	2635.875673
585.084037	2638.043369
585.437113	2637.060344
585.790135	2637.808956
586.143103	2638.441621
586.496016	2640.931951
586.848874	2642.414050
587.201679	2637.902217
587.554428	2640.246354
587.907124	2642.741725
588.259765	2643.301293
588.612352	2644.591828
588.964884	2644.130563
589.317362	2643.840696
589.669786	2645.794143
590.022155	2644.788433
590.374470	2644.889256
590.726731	2648.712972
591.078937	2644.725419
591.431090	2649.474186
591.783188	2648.677683
592.135232	2651.321769
592.487222	2654.951399
592.839157	2652.642551
593.191038	2655.815957
593.542866	2654.689259
593.894639	2656.703200
594.246358	2661.285609
594.598022	2658.858294
594.949633	2658.417193
595.301190	2659.667399
595.652692	2661.381391
596.004141	2661.441885
596.355535	2665.172339
596.706876	2665.381547
597.058162	2667.839109
597.409395	2667.503872
597.760573	2668.396157
598.111698	2666.225940
598.462768	2669.457320
598.813785	2673.003771
599.164748	2675.110974
599.515657	2673.419667
599.866511	2673.659121
600.217312	2679.305214
600.568060	2674.329595
600.918753	2684.921059
601.269392	2683.945596
601.619978	2682.859227
601.970510	2686.960206
602.320988	2691.567820
602.671412	2694.355578
603.021783	2694.874817
603.372100	2695.598223
603.722363	2697.985209
604.072572	2702.355890
604.422728	2701.395550
604.772830	2706.030891
605.122878	2704.258925
605.472872	2710.169678
605.822813	2712.624720
606.172701	2716.655122
606.522534	2721.381204
606.872314	2721.781976
607.222041	2723.306925
607.571714	2726.266082
607.921333	2730.067112
608.270899	2737.157495
608.620411	2739.363000
608.969870	2739.814183
609.319276	2748.563106
609.668627	2759.444436
610.017926	2766.252515
610.367171	2773.862136
610.716362	2779.414967
611.065500	2778.126952
611.414585	2784.093158
611.763616	2786.467542
612.112594	2790.823098
612.461518	2791.851494
612.810389	2801.437248
613.159207	2802.082516
613.507971	2804.988741
613.856682	2818.660350
614.205340	2818.625062
614.553945	2835.046621
614.902496	2831.396825
615.250994	2844.697910
615.599439	2848.960205
615.947830	2854.747450
616.296169	2860.935466
616.644454	2870.521220
616.992686	2874.715460
617.340864	2893.266906
617.688990	2899.351579
618.037063	2916.980494
618.385082	2922.374529
618.733048	2937.896241
619.080961	2944.928651
619.428821	2959.792493
619.776628	2969.842033
620.124382	2975.384782
620.472083	2984.799137
620.819731	2997.034017
621.167326	2993.669047
621.514868	2998.788339
621.862357	3000.406549
622.209793	3008.971469
622.557176	3008.774864
622.904506	3008.671521
623.251783	3012.719567
623.599007	3019.015968
623.946179	3024.208357
624.293297	3032.617002
624.640363	3032.858977
624.987376	3036.274359
625.334336	3037.849719
625.681243	3045.875236
626.028097	3049.288097
626.374899	3073.752817
626.721647	3070.743248
627.068343	3075.802046
627.414987	3087.696648
627.761577	3104.123248
628.108115	3116.857203
628.454600	3111.516100
628.801032	3123.735857
629.147412	3138.733290
629.493739	3153.902122
629.840014	3166.658762
630.186236	3179.178467
630.532405	3186.636854
630.878521	3211.378837
631.224585	3219.454766
631.570597	3236.869432
631.916556	3247.072727
632.262462	3257.946496
632.608316	3282.615382
632.954117	3289.332720
633.299866	3312.048159
633.645562	3318.967143
633.991206	3319.055363
634.336797	3314.447748
634.682336	3327.733709
635.027823	3332.011128
635.373257	3344.147706
635.718639	3344.029239
636.063968	3346.721215
636.409245	3351.200281
636.754470	3361.554811
637.099642	3366.805172
637.444762	3361.927856
637.789829	3385.160013
638.134845	3388.041033
638.479808	3402.950245
638.824719	3414.169333
639.169577	3416.982297
639.514383	3435.896706
639.859137	3437.706481
640.203839	3457.493009
640.548489	3455.327834
640.893086	3483.134838
641.237632	3472.896255
641.582125	3507.317253
641.926566	3511.778675
642.270955	3527.784338
642.615292	3540.251112
642.959576	3556.622259
643.303809	3581.792740
643.647990	3588.721806
643.992118	3621.615335
644.336195	3606.494394
