Dividing Wavelength (nm)	Counts (n)	Blue Motor Position (mm): 4.900000	Red Motor Position (mm): 0.000000	
326.493990	2141.633388
326.888308	2141.633388
327.282561	2141.633388
327.676750	2108.369335
328.070874	2109.874119
328.464933	2112.334202
328.858929	2116.422578
329.252859	2127.230812
329.646726	2138.555764
330.040528	2152.300470
330.434265	2170.136072
330.827938	2185.609894
331.221547	2205.293079
331.615091	2223.070708
332.008571	2244.659450
332.401986	2261.093611
332.795338	2281.837959
333.188625	2300.671710
333.581847	2321.400935
333.975006	2339.181084
334.368100	2358.821420
334.761129	2372.563605
335.154095	2392.075391
335.546996	2407.123235
335.939833	2422.967582
336.332606	2435.651125
336.725315	2449.695779
337.117960	2458.636266
337.510540	2466.820579
337.903056	2479.365490
338.295508	2487.922849
338.687896	2493.329487
339.080220	2502.554798
339.472480	2510.534945
339.864676	2512.092661
340.256807	2518.336130
340.648875	2521.713703
341.040879	2521.932993
341.432818	2523.432737
341.824694	2526.056657
342.216506	2525.769312
342.608253	2527.180835
342.999937	2526.384332
343.391557	2530.069416
343.783113	2527.707635
344.174605	2522.984074
344.566033	2522.762263
344.957397	2519.850997
345.348697	2518.636079
345.739934	2516.395286
346.131106	2515.021572
346.522215	2516.012158
346.913260	2513.451252
347.304241	2509.952691
347.695159	2508.977228
348.086012	2509.060407
348.476802	2503.089160
348.867528	2505.813904
349.258191	2502.915241
349.648789	2503.789881
350.039324	2499.681340
350.429796	2500.747544
350.820203	2497.024652
351.210548	2495.953407
351.600828	2495.517347
351.991045	2496.061792
352.381198	2494.516678
352.771288	2494.496514
353.161314	2493.155567
353.551276	2494.647748
353.941175	2493.216061
354.331010	2495.230002
354.720782	2495.724035
355.110490	2494.955259
355.500135	2495.562718
355.889717	2493.957110
356.279235	2493.306801
356.668689	2494.594816
357.058080	2491.774291
357.447408	2492.636328
357.836672	2491.696153
358.225873	2491.691112
358.615010	2495.771926
359.004084	2495.083808
359.393095	2498.940291
359.782043	2499.542709
360.170927	2497.082626
360.559748	2500.644201
360.948505	2498.456340
361.337199	2500.535816
361.725830	2499.381392
362.114398	2499.701505
362.502903	2500.881135
362.891344	2502.234685
363.279722	2502.088491
363.668037	2500.034221
364.056289	2504.818276
364.444478	2502.209479
364.832603	2502.464057
365.220665	2504.828358
365.608665	2502.292658
365.996601	2504.727535
366.384474	2505.161075
366.772284	2506.963287
367.160031	2505.564367
367.547715	2504.228461
367.935336	2505.725684
368.322893	2506.607886
368.710388	2502.779129
369.097820	2510.454286
369.485189	2506.781806
369.872495	2506.199552
370.259738	2508.894049
370.646918	2505.866836
371.034035	2510.950840
371.421090	2506.628050
371.808081	2510.784482
372.195010	2510.237517
372.581875	2506.827176
372.968678	2509.889677
373.355418	2510.091323
373.742096	2511.306241
374.128710	2512.594256
374.515262	2512.047291
374.901751	2509.708195
375.288177	2514.182219
375.674540	2510.666015
376.060841	2514.033505
376.447079	2510.950840
376.833254	2509.884636
377.219367	2506.509583
377.605417	2508.916734
377.991404	2510.794564
378.377329	2510.960922
378.763191	2511.006292
379.148991	2511.001251
379.534727	2513.511746
379.920402	2512.604338
380.306013	2511.797754
380.691563	2510.532424
381.077049	2513.783968
381.462474	2512.876561
381.847835	2512.788340
382.233134	2512.962260
382.618371	2516.506191
383.003545	2514.582991
383.388657	2513.499143
383.773706	2514.905625
384.158693	2513.428567
384.543618	2514.577950
384.928480	2513.519308
385.313280	2521.932993
385.698017	2517.574916
386.082692	2516.344874
386.467305	2516.128105
386.851856	2517.723630
387.236344	2518.321007
387.620770	2518.389062
388.005133	2516.659947
388.389435	2518.605832
388.773674	2516.659947
389.157851	2516.604494
389.541965	2517.900070
389.926018	2518.878054
390.310008	2517.680780
390.693936	2520.556758
391.077802	2520.602129
391.461606	2517.602642
391.845348	2520.191275
392.229027	2519.656912
392.612645	2519.377128
392.996200	2519.477952
393.379694	2521.817047
393.763125	2520.501306
394.146494	2519.687159
394.529801	2522.429547
394.913047	2520.831501
395.296230	2522.001049
395.679351	2521.852335
396.062410	2518.946110
396.445408	2522.532891
396.828343	2521.103724
397.211217	2516.312107
397.594028	2516.009638
397.976778	2520.108096
398.359466	2523.188241
398.742092	2518.547859
399.124656	2521.938035
399.507158	2526.273427
399.889598	2525.817202
400.271977	2522.419465
400.654294	2527.798376
401.036549	2523.268899
401.418742	2527.032121
401.800874	2522.908457
402.182944	2523.727644
402.564952	2524.627490
402.946898	2525.882738
403.328783	2526.109589
403.710606	2524.529188
404.092367	2523.180679
404.474067	2524.302336
404.855705	2525.227388
405.237282	2527.390043
405.618797	2527.299302
406.000250	2526.933818
406.381642	2522.752181
406.762972	2526.848118
407.144240	2528.000022
407.525447	2527.967255
407.906593	2525.779394
408.287677	2524.408200
408.668700	2528.912471
409.049661	2529.119158
409.430560	2526.245701
409.811399	2529.051103
410.192176	2526.762419
410.572891	2527.110258
410.953545	2525.144208
411.334138	2529.842564
411.714669	2527.546318
412.095139	2529.593027
412.475547	2526.863242
412.855894	2527.052285
413.236180	2530.258459
413.616405	2530.654190
413.996568	2530.142512
414.376670	2529.819879
414.756711	2529.217461
415.136691	2529.930784
415.516609	2529.719056
415.896466	2530.076978
416.276262	2529.146885
416.655997	2528.907430
417.035670	2526.648993
417.415283	2530.525640
417.794834	2526.311236
418.174324	2529.426669
418.553753	2529.819879
418.933121	2531.780887
419.312428	2530.593696
419.691674	2530.770136
420.070859	2531.039838
420.449983	2531.952287
420.829045	2529.958510
421.208047	2532.206865
421.586988	2528.012625
421.965867	2532.504293
422.344686	2530.150074
422.723444	2533.401618
423.102141	2532.272400
423.480777	2531.556556
423.859352	2531.591844
424.237866	2534.069571
424.616319	2532.819365
424.994712	2532.353058
425.373044	2537.096784
425.751314	2533.404139
426.129524	2532.826927
426.507673	2532.655528
426.885762	2534.167874
427.263789	2532.484128
427.641756	2531.659900
428.019662	2536.040662
428.397508	2533.996475
428.775292	2536.751465
429.153016	2530.704601
429.530679	2535.849099
429.908282	2532.184180
430.285824	2536.784233
430.663305	2532.695857
431.040726	2535.554191
431.418086	2533.300795
431.795385	2535.145858
432.172624	2536.512010
432.549802	2537.714326
432.926920	2534.004036
433.303977	2534.228368
433.680974	2536.403626
434.057910	2540.081147
434.434786	2535.160981
434.811601	2537.036290
435.188355	2535.531506
435.565050	2539.662732
435.941683	2536.811959
436.318257	2536.917823
436.694770	2531.153264
437.071222	2535.438245
437.447614	2534.871115
437.823946	2534.961856
438.200218	2537.933616
438.576429	2535.125693
438.952580	2535.712988
439.328670	2537.971424
439.704700	2535.166022
440.080670	2537.696682
440.456580	2537.419418
440.832429	2537.921013
441.208218	2536.665766
441.583947	2540.232382
441.959616	2539.108205
442.335224	2539.614841
442.710773	2538.931764
443.086261	2537.593338
443.461689	2537.406815
443.837057	2539.471168
444.212365	2536.428831
444.587612	2538.553678
444.962800	2537.731970
445.337927	2538.475540
445.712995	2537.923533
446.088002	2540.920499
446.462949	2539.098122
446.837837	2541.293545
447.212664	2538.508307
447.587431	2542.538710
447.962139	2537.424459
448.336786	2542.079965
448.711374	2538.475540
449.085901	2541.611137
449.460369	2540.728936
449.834776	2542.042156
450.209124	2540.093750
450.583412	2541.270860
450.957640	2536.421270
451.331808	2538.561239
451.705917	2539.405633
452.079965	2540.978473
452.453954	2540.887732
452.827883	2542.639533
453.201752	2540.958308
453.575562	2540.212217
453.949311	2542.712630
454.323001	2541.782537
454.696632	2543.128525
455.070202	2541.686755
455.443713	2539.897145
455.817164	2540.628112
456.190556	2536.756506
456.563888	2536.322967
456.937160	2537.379089
457.310373	2542.710109
457.683526	2540.670962
458.056619	2541.424615
458.429653	2538.851106
458.802628	2541.984183
459.175542	2541.628782
459.548398	2541.563247
459.921194	2538.654501
460.293930	2544.139276
460.666607	2542.185829
461.039224	2542.392516
461.411782	2543.146169
461.784280	2542.495860
462.156719	2540.421425
462.529099	2539.670293
462.901419	2542.730274
463.273680	2541.268339
463.645882	2541.462423
464.018024	2541.008720
464.390106	2542.959646
464.762130	2545.263453
465.134094	2543.728422
465.505999	2543.478885
465.877845	2543.748587
466.249631	2542.029553
466.621358	2542.674821
466.993026	2543.259595
467.364634	2546.778320
467.736184	2545.757487
468.107674	2542.301776
468.479105	2542.490819
468.850477	2543.627599
469.221790	2542.881508
469.593043	2543.307486
469.964238	2542.125335
470.335373	2543.761190
470.706449	2545.961653
471.077467	2545.639019
471.448425	2544.663556
471.819324	2544.136756
472.190164	2546.506098
472.560945	2547.221942
472.931667	2543.549461
473.302330	2543.486447
473.672934	2544.794626
474.043479	2539.292207
474.413965	2544.305634
474.784393	2542.321940
475.154761	2544.149358
475.525070	2540.600386
475.895321	2542.679862
476.265513	2537.792463
476.635645	2543.839328
477.005719	2545.079451
477.375734	2542.329502
477.745691	2544.875285
478.115588	2544.487116
478.485427	2545.946530
478.855207	2546.632127
479.224928	2543.836807
479.594591	2547.083310
479.964194	2545.132383
480.333739	2548.283105
480.703226	2545.386962
481.072653	2544.494677
481.442022	2545.374359
481.811333	2546.344781
482.180584	2544.751776
482.549777	2546.430481
482.918912	2545.049204
483.287988	2547.146324
483.657005	2546.196067
484.025964	2545.192877
484.394864	2544.199770
484.763706	2547.922662
485.132489	2546.054915
485.501213	2548.136911
485.869879	2542.538710
486.238487	2544.892929
486.607036	2547.862168
486.975527	2545.386962
487.343959	2548.036088
487.712333	2548.038609
488.080648	2544.252702
488.448905	2546.236396
488.817104	2547.544576
489.185244	2547.771427
489.553326	2543.977959
489.921350	2544.572815
490.289315	2547.763866
490.657222	2545.724719
491.025070	2546.528783
491.392861	2547.768907
491.760593	2545.991900
492.128267	2546.924514
492.495883	2543.158772
492.863440	2546.632127
493.230939	2547.431150
493.598380	2547.753783
493.965763	2542.999975
494.333088	2543.678011
494.700354	2541.560726
495.067563	2546.700182
495.434713	2544.081303
495.801805	2546.312013
496.168839	2547.925183
496.535815	2547.481561
496.902733	2544.981149
497.269593	2548.353681
497.636395	2546.110367
498.003139	2549.727395
498.369825	2547.776469
498.736453	2548.457024
499.103023	2549.855945
499.469535	2545.429812
499.835989	2546.498536
500.202385	2547.836962
500.568723	2548.053732
500.935003	2549.664381
501.301226	2546.969884
501.667390	2550.261757
502.033497	2547.952909
502.399546	2546.823691
502.765537	2546.838814
503.131470	2546.937117
503.497345	2546.987528
503.863163	2550.019782
504.228923	2546.710265
504.594625	2546.465769
504.960269	2547.869730
505.325856	2546.584236
505.691385	2547.743701
506.056856	2549.808054
506.422270	2549.687066
506.787625	2546.657332
507.152924	2548.895605
507.518164	2549.117416
507.883347	2546.339740
508.248472	2551.254865
508.613540	2549.112374
508.978550	2546.080120
509.343503	2547.143804
509.708398	2548.464586
510.073236	2547.186654
510.438016	2550.339895
510.802738	2550.395348
511.167403	2550.201264
511.532010	2546.596839
511.896561	2545.102137
512.261053	2546.826211
512.625488	2547.378217
512.989866	2543.950233
513.354186	2548.469627
513.718449	2545.734801
514.082655	2548.028526
514.446803	2546.596839
514.810894	2549.964329
515.174927	2551.302756
515.538904	2548.217570
515.902822	2548.535162
516.266684	2549.281253
516.630488	2548.071376
516.994235	2549.586243
517.357925	2548.663712
517.721558	2548.658671
518.085133	2548.235214
518.448651	2550.002138
518.812112	2549.699669
519.175516	2548.928372
519.538863	2549.419885
519.902152	2550.052550
520.265385	2550.039947
520.628560	2548.827549
520.991678	2548.159596
521.354739	2550.959957
521.717743	2551.070863
522.080690	2549.886192
522.443580	2550.639844
522.806413	2547.471479
523.169189	2548.885522
523.531908	2549.500543
523.894569	2546.364946
524.257174	2550.803682
524.619722	2547.778989
524.982213	2549.036757
525.344647	2549.510626
525.707025	2549.147662
526.069345	2551.615307
526.431608	2549.152704
526.793815	2549.515667
527.155964	2551.466593
527.518057	2549.797971
527.880093	2552.865513
528.242072	2550.372663
528.603995	2551.431305
528.965860	2552.182437
529.327669	2550.952396
529.689421	2552.477345
530.051117	2549.369473
530.412755	2549.112374
530.774337	2548.247817
531.135862	2549.989535
531.497331	2551.534649
531.858743	2546.823691
532.220098	2547.534493
532.581396	2544.560212
532.942638	2549.019113
533.303824	2546.546427
533.664953	2550.705379
534.026025	2549.868547
534.387040	2549.155224
534.747999	2552.079093
535.108902	2548.870399
535.469748	2549.649257
535.830537	2553.765359
536.191270	2550.375183
536.551947	2552.744526
536.912567	2547.660522
537.273131	2551.857283
537.633638	2548.809905
537.994089	2549.397200
538.354483	2547.199257
538.714821	2552.179917
539.075103	2549.024154
539.435328	2550.972560
539.795497	2550.402910
540.155609	2550.662529
540.515665	2549.712272
540.875665	2550.019782
541.235609	2549.624052
541.595496	2552.099258
541.955328	2547.715975
542.315102	2550.453321
542.674821	2548.184802
543.034483	2550.859134
543.394090	2551.670760
543.753640	2549.228321
544.113134	2549.283774
544.472571	2551.272509
544.831953	2552.512633
545.191278	2548.948537
545.550548	2550.322251
545.909761	2551.421223
546.268918	2553.535987
546.628019	2551.733774
546.987064	2550.763352
547.346053	2549.465255
547.704986	2550.266799
548.063863	2551.232180
548.422684	2552.618497
548.781449	2549.281253
549.140158	2551.761501
549.498811	2550.927190
549.857408	2551.489278
550.215949	2550.231511
550.574434	2545.633978
550.932864	2549.399720
551.291237	2545.573484
551.649555	2551.126315
552.007817	2549.077086
552.366022	2552.003476
552.724173	2550.770914
553.082267	2552.595812
553.440305	2554.496327
553.798288	2551.653116
554.156215	2550.385266
554.514086	2551.716130
554.871902	2552.605894
555.229661	2550.372663
555.587365	2550.269319
555.945014	2552.179917
556.302606	2552.147149
556.660143	2551.501881
557.017625	2551.983312
557.375050	2552.409289
557.732421	2552.779814
558.089735	2553.326779
558.446994	2549.296377
558.804197	2551.708569
559.161345	2548.202446
559.518437	2553.644372
559.875474	2549.573640
560.232455	2553.215874
560.589381	2551.960626
560.946251	2553.273847
561.303065	2551.794268
561.659825	2551.242262
562.016528	2550.932231
562.373177	2551.511964
562.729770	2549.992056
563.086307	2551.748898
563.442789	2550.566747
563.799216	2551.244783
564.155587	2549.724875
564.511904	2549.334185
564.868164	2550.481048
565.224370	2554.261913
565.580520	2549.797971
565.936615	2552.384083
566.292654	2550.503733
566.648638	2550.261757
567.004567	2550.901984
567.360441	2551.083466
567.716260	2550.513815
568.072023	2551.083466
568.427732	2547.501726
568.783385	2549.336706
569.138982	2545.429812
569.494525	2546.395193
569.850013	2544.978628
570.205445	2553.803168
570.560823	2549.881150
570.916145	2552.613456
571.271412	2552.343754
571.626625	2552.011038
571.981782	2550.917107
572.336884	2554.093034
572.691931	2549.908877
573.046923	2549.306459
573.401860	2548.746891
573.756743	2550.665050
574.111570	2550.433157
574.466342	2551.620348
574.821059	2551.932900
575.175722	2554.050185
575.530330	2552.699155
575.884882	2549.734957
576.239380	2550.629762
576.593823	2550.876778
576.948211	2552.873075
577.302544	2552.207643
577.656823	2553.150339
578.011047	2548.550286
578.365216	2553.472973
578.719330	2551.038095
579.073389	2551.537169
579.427394	2551.461552
579.781344	2551.370811
580.135239	2550.168496
580.489080	2550.455842
580.842866	2551.078424
581.196597	2556.936245
581.550273	2548.837632
581.903895	2550.135729
582.257463	2552.462221
582.610975	2552.056408
582.964434	2551.774104
583.317837	2554.372818
583.671186	2552.820143
584.024481	2553.447767
584.377721	2552.933569
584.730906	2550.508774
585.084037	2549.709751
585.437113	2551.464073
585.790135	2554.904660
586.143103	2548.424257
586.496016	2551.529608
586.848874	2547.000131
587.201679	2549.553475
587.554428	2547.027857
587.907124	2550.402910
588.259765	2544.575336
588.612352	2551.887530
588.964884	2551.028013
589.317362	2552.043805
589.669786	2550.370142
590.022155	2552.273178
590.374470	2553.417520
590.726731	2554.156049
591.078937	2552.678991
591.431090	2552.056408
591.783188	2550.849052
592.135232	2551.234700
592.487222	2550.750749
592.839157	2552.857952
593.191038	2553.785524
593.542866	2553.788045
593.894639	2551.111192
594.246358	2550.012220
594.598022	2549.286294
594.949633	2553.102448
595.301190	2553.031872
595.652692	2552.200081
596.004141	2550.322251
596.355535	2550.899463
596.706876	2552.764690
597.058162	2552.212684
597.409395	2551.927859
597.760573	2552.603373
598.111698	2551.285112
598.462768	2552.386604
598.813785	2552.429454
599.164748	2550.576830
599.515657	2550.949875
599.866511	2554.879454
600.217312	2552.482386
600.568060	2551.098589
600.918753	2551.701007
601.269392	2550.357539
601.619978	2550.841490
601.970510	2552.318548
602.320988	2549.966850
602.671412	2551.958106
603.021783	2551.459032
603.372100	2551.706048
603.722363	2552.353836
604.072572	2552.542880
604.422728	2554.327448
604.772830	2548.333516
605.122878	2550.914587
605.472872	2549.603887
605.822813	2543.720860
606.172701	2550.052550
606.522534	2551.234700
606.872314	2550.836449
607.222041	2552.316028
607.571714	2552.598332
607.921333	2551.171686
608.270899	2549.777807
608.620411	2551.587581
608.969870	2553.573796
609.319276	2552.038764
609.668627	2557.536142
610.017926	2557.500854
610.367171	2557.929353
610.716362	2558.372974
611.065500	2557.911708
611.414585	2553.609084
611.763616	2556.459856
612.112594	2553.999773
612.461518	2555.993549
612.810389	2554.433312
613.159207	2554.887016
613.507971	2554.614794
613.856682	2554.463559
614.205340	2554.118240
614.553945	2555.847356
614.902496	2552.421892
615.250994	2553.553631
615.599439	2553.372149
615.947830	2552.847869
616.296169	2551.769062
616.644454	2551.935421
616.992686	2551.769062
617.340864	2553.157900
617.688990	2554.266954
618.037063	2551.189330
618.385082	2551.569937
618.733048	2552.298384
619.080961	2553.601522
619.428821	2554.541697
619.776628	2549.689587
620.124382	2556.187634
620.472083	2552.598332
620.819731	2553.803168
621.167326	2553.220915
621.514868	2553.273847
621.862357	2553.064639
622.209793	2551.285112
622.557176	2551.706048
622.904506	2548.893084
623.251783	2548.484751
623.599007	2548.260419
623.946179	2550.970040
624.293297	2550.934752
624.640363	2552.184958
624.987376	2552.358878
625.334336	2550.826367
625.681243	2553.596481
626.028097	2550.980122
626.374899	2554.647561
626.721647	2551.138918
627.068343	2552.016079
627.414987	2550.907025
627.761577	2554.004814
628.108115	2552.091696
628.454600	2552.452139
628.801032	2550.332334
629.147412	2552.689073
629.493739	2553.714948
629.840014	2553.495658
630.186236	2552.885678
630.532405	2553.649413
630.878521	2551.643034
631.224585	2552.837787
631.570597	2555.612942
631.916556	2550.692776
632.262462	2550.533980
632.608316	2553.079762
632.954117	2549.757642
633.299866	2551.766542
633.645562	2552.126984
633.991206	2552.573127
634.336797	2551.471634
634.682336	2549.399720
635.027823	2550.934752
635.373257	2550.377704
635.718639	2552.089176
636.063968	2552.545400
636.409245	2550.811243
636.754470	2554.249310
637.099642	2551.637993
637.444762	2551.496840
637.789829	2549.114895
638.134845	2551.751418
638.479808	2551.234700
638.824719	2550.423074
639.169577	2549.187992
639.514383	2551.481717
639.859137	2552.981460
640.203839	2554.012376
640.548489	2552.575647
640.893086	2548.431819
641.237632	2546.246478
641.582125	2550.559186
641.926566	2546.405275
642.270955	2552.779814
642.615292	2551.333003
642.959576	2553.087324
643.303809	2553.881306
643.647990	2550.690256
643.992118	2549.558517
644.336195	2552.041285
