Dividing Wavelength (nm)	Counts (n)	Blue Motor Position (mm): 29.300000	Red Motor Position (mm): 0.000000	
326.493990	2211.569316
326.888308	2211.569316
327.282561	2211.569316
327.676750	2170.221772
328.070874	2170.536844
328.464933	2169.972235
328.858929	2171.078768
329.252859	2178.708554
329.646726	2186.053516
330.040528	2199.369723
330.434265	2210.467824
330.827938	2228.719321
331.221547	2246.595253
331.615091	2263.412542
332.008571	2283.776283
332.401986	2300.805301
332.795338	2317.322641
333.188625	2337.419201
333.581847	2357.127592
333.975006	2377.690458
334.368100	2393.761657
334.761129	2413.631365
335.154095	2432.366813
335.546996	2456.544187
335.939833	2493.077429
336.332606	2508.694923
336.725315	2521.781759
337.117960	2537.232895
337.510540	2548.646068
337.903056	2553.808209
338.295508	2567.515107
338.687896	2573.866960
339.080220	2582.376428
339.472480	2591.251379
339.864676	2593.124168
340.256807	2600.098604
340.648875	2605.568256
341.040879	2604.686054
341.432818	2607.819132
341.824694	2613.475306
342.216506	2611.531941
342.608253	2613.465224
342.999937	2616.739453
343.391557	2611.163937
343.783113	2615.844648
344.174605	2613.979422
344.566033	2609.923813
344.957397	2612.769545
345.348697	2608.686210
345.739934	2607.269646
346.131106	2605.601024
346.522215	2604.123966
346.913260	2600.559870
347.304241	2601.371496
347.695159	2597.394025
348.086012	2598.097266
348.476802	2594.071905
348.867528	2591.110227
349.258191	2586.842890
349.648789	2587.747777
350.039324	2585.035637
350.429796	2585.464135
350.820203	2587.105030
351.210548	2584.589495
351.600828	2584.244176
351.991045	2585.885071
352.381198	2579.341653
352.771288	2581.164031
353.161314	2580.254102
353.551276	2578.887950
353.941175	2580.480954
354.331010	2579.419791
354.720782	2578.706468
355.110490	2579.543300
355.500135	2579.084555
355.889717	2578.918197
356.279235	2579.351736
356.668689	2578.724112
357.058080	2579.679411
357.447408	2581.612693
357.836672	2580.937179
358.225873	2578.850141
358.615010	2580.954823
359.004084	2581.920204
359.393095	2580.211252
359.782043	2581.612693
360.170927	2584.897005
360.559748	2583.661922
360.948505	2582.648650
361.337199	2582.855338
361.725830	2585.310380
362.114398	2584.579412
362.502903	2588.650144
362.891344	2586.275761
363.279722	2586.676532
363.668037	2587.034454
364.056289	2589.108889
364.444478	2588.793817
364.832603	2587.039495
365.220665	2590.984198
365.608665	2586.999166
365.996601	2590.964034
366.384474	2590.865731
366.772284	2591.644589
367.160031	2590.535536
367.547715	2592.025197
367.935336	2592.005032
368.322893	2590.515371
368.710388	2586.588312
369.097820	2592.400762
369.485189	2590.989239
369.872495	2593.456884
370.259738	2595.579210
370.646918	2594.470156
371.034035	2594.301277
371.421090	2594.205496
371.808081	2594.117275
372.195010	2596.287492
372.581875	2596.350507
372.968678	2599.067688
373.355418	2596.093408
373.742096	2596.355548
374.128710	2596.143819
374.515262	2597.940991
374.901751	2597.225147
375.288177	2597.991402
375.674540	2597.020980
376.060841	2601.512648
376.447079	2597.562904
376.833254	2599.435693
377.219367	2597.078953
377.605417	2600.143975
377.991404	2599.899479
378.377329	2599.513831
378.763191	2598.470312
379.148991	2601.983996
379.534727	2600.320415
379.920402	2600.159098
380.306013	2603.761003
380.691563	2603.478698
381.077049	2602.316712
381.462474	2602.858636
381.847835	2601.570621
382.233134	2606.135386
382.618371	2602.737648
383.003545	2602.664552
383.388657	2604.086157
383.773706	2603.682865
384.158693	2603.632453
384.543618	2605.472474
384.928480	2604.718822
385.313280	2607.204111
385.698017	2606.137907
386.082692	2607.173864
386.467305	2605.651435
386.851856	2609.598659
387.236344	2608.161930
387.620770	2602.805704
388.005133	2602.843513
388.389435	2602.888883
388.773674	2604.771754
389.157851	2606.803339
389.541965	2608.726539
389.926018	2608.650922
390.310008	2611.017744
390.693936	2609.187805
391.077802	2609.089502
391.461606	2610.329626
391.845348	2609.354163
392.229027	2613.175357
392.612645	2610.954729
392.996200	2610.652260
393.379694	2610.392641
393.763125	2612.666201
394.146494	2614.685183
394.529801	2613.495471
394.913047	2613.334154
395.296230	2614.617127
395.679351	2613.061932
396.062410	2615.857251
396.445408	2612.285594
396.828343	2615.224587
397.211217	2614.498660
397.594028	2614.743156
397.976778	2613.843310
398.359466	2615.932869
398.742092	2616.666357
399.124656	2615.035543
399.507158	2617.316665
399.889598	2617.253651
400.271977	2617.891357
400.654294	2618.695421
401.036549	2619.015534
401.418742	2618.892026
401.800874	2620.956378
402.182944	2618.297170
402.564952	2619.111316
402.946898	2623.655916
403.328783	2620.091821
403.710606	2620.101903
404.092367	2623.492079
404.474067	2623.862604
404.855705	2622.793879
405.237282	2621.364712
405.618797	2622.476286
406.000250	2624.719600
406.381642	2624.182717
406.762972	2622.057871
407.144240	2621.629373
407.525447	2622.476286
407.906593	2620.777417
408.287677	2627.391411
408.668700	2624.089456
409.049661	2626.030300
409.430560	2630.254787
409.811399	2629.594396
410.192176	2628.545836
410.572891	2627.961062
410.953545	2630.663120
411.334138	2630.824437
411.714669	2629.435599
412.095139	2630.607667
412.475547	2630.985754
412.855894	2631.462143
413.236180	2633.806280
413.616405	2632.697226
413.996568	2632.344345
414.376670	2633.856691
414.756711	2634.133955
415.136691	2637.778709
415.516609	2636.079840
415.896466	2637.564460
416.276262	2636.301651
416.655997	2639.185191
417.035670	2638.479429
417.415283	2639.895993
417.794834	2641.342805
418.174324	2637.662762
418.553753	2638.005561
418.933121	2641.297434
419.312428	2642.013278
419.691674	2643.838176
420.070859	2644.828762
420.449983	2643.056797
420.829045	2644.644760
421.208047	2642.134266
421.586988	2647.384627
421.965867	2647.752632
422.344686	2651.369660
422.723444	2652.473672
423.102141	2648.254227
423.480777	2651.455359
423.859352	2650.487458
424.237866	2655.354692
424.616319	2654.152377
424.994712	2656.919970
425.373044	2659.493479
425.751314	2659.354847
426.129524	2659.758140
426.507673	2665.162257
426.885762	2666.684685
427.263789	2675.305058
427.641756	2679.111129
428.019662	2685.558765
428.397508	2692.760053
428.775292	2701.398070
429.153016	2712.786037
429.530679	2722.926318
429.908282	2736.446692
430.285824	2749.226017
430.663305	2774.399019
431.040726	2786.233128
431.418086	2810.753300
431.795385	2839.621468
432.172624	2867.171373
432.549802	2898.983575
432.926920	2933.286106
433.303977	2962.368523
433.680974	3021.919673
434.057910	3066.649831
434.434786	3119.118160
434.811601	3165.055675
435.188355	3260.240221
435.565050	3301.028197
435.941683	3356.410313
436.318257	3481.768686
436.694770	3562.938824
437.071222	3649.830673
437.447614	3714.922051
437.823946	3781.177936
438.200218	3888.330182
438.576429	3943.586269
438.952580	4072.191145
439.328670	4179.000592
439.704700	4233.177872
440.080670	4327.729754
440.456580	4547.138413
440.832429	4598.520374
441.208218	4598.308645
441.583947	4781.599958
441.959616	4931.586888
442.335224	4988.176360
442.710773	5141.724865
443.086261	5323.778575
443.461689	5200.368608
443.837057	5516.963152
444.212365	5746.252473
444.587612	5747.510241
444.962800	5953.756448
445.337927	5992.676676
445.712995	5928.482623
446.088002	6518.673189
446.462949	6491.425752
446.837837	6606.757270
447.212664	6751.236739
447.587431	7111.991791
447.962139	7602.838858
448.336786	8861.156229
448.711374	9380.405157
449.085901	8407.102022
449.460369	8330.330290
449.834776	8165.330804
450.209124	8800.138102
450.583412	9174.829424
450.957640	9907.404860
451.331808	9574.361031
451.705917	9064.347496
452.079965	8747.248837
452.453954	9490.274585
452.827883	9358.226601
453.201752	9680.731897
453.575562	9459.591602
453.949311	9876.885714
454.323001	9955.139545
454.696632	10234.729499
455.070202	10565.343492
455.443713	10864.387259
455.817164	11330.880512
456.190556	11448.052051
456.563888	11847.427382
456.937160	12103.543203
457.310373	11664.592294
457.683526	11834.640496
458.056619	11571.182234
458.429653	11757.833476
458.802628	11411.246587
459.175542	11777.751074
459.548398	12686.333356
459.921194	13075.956575
460.293930	13178.644878
460.666607	14055.115010
461.039224	15015.515311
461.411782	15723.784824
461.784280	15757.318579
462.156719	15887.070317
462.529099	15696.421441
462.901419	14769.471715
463.273680	14647.674918
463.645882	14563.162494
464.018024	14376.793557
464.390106	14624.828409
464.762130	15365.114289
465.134094	16093.752584
465.505999	17959.682748
465.877845	21109.330136
466.249631	23931.128604
466.621358	23767.049129
466.993026	22435.577054
467.364634	21951.621244
467.736184	20587.860579
468.107674	19817.824329
468.479105	19954.905905
468.850477	19464.966245
469.221790	19072.756914
469.593043	18429.987114
469.964238	17907.819357
470.335373	17597.024661
470.706449	18004.264192
471.077467	17558.442190
471.448425	19370.631133
471.819324	23304.364467
472.190164	25443.346209
472.560945	22006.189214
472.931667	19612.477968
473.302330	18974.214959
473.672934	18438.781407
474.043479	18836.465431
474.413965	18653.927770
474.784393	18303.156724
475.154761	18957.148133
475.525070	18993.421756
475.895321	18634.100912
476.265513	19210.927379
476.635645	19784.436767
477.005719	19593.828220
477.375734	19780.716396
477.745691	20255.154508
478.115588	20758.831312
478.485427	21278.271804
478.855207	22316.353766
479.224928	24057.273397
479.594591	26266.622084
479.964194	26372.955143
480.333739	26581.026247
480.703226	26139.398485
481.072653	25795.707739
481.442022	26349.934713
481.811333	27254.156397
482.180584	27212.705509
482.549777	26255.960044
482.918912	25888.439764
483.287988	25999.743400
483.657005	25710.492074
484.025964	25424.144454
484.394864	25371.429108
484.763706	25068.082716
485.132489	24482.930784
485.501213	24649.913964
485.869879	24573.119547
486.238487	24368.340316
486.607036	24526.645149
486.975527	24202.067938
487.343959	24541.919845
487.712333	24502.485419
488.080648	24167.286497
488.448905	24625.255160
488.817104	24389.021649
489.185244	25042.849221
489.553326	25020.048082
489.921350	25975.404709
490.289315	28235.159894
490.657222	30058.265456
491.025070	30553.518492
491.392861	30341.595946
491.760593	29504.441774
492.128267	28615.938408
492.495883	27580.646725
492.863440	26717.369294
493.230939	25829.163357
493.598380	25674.490674
493.965763	25263.533292
494.333088	24835.617468
494.700354	24757.840026
495.067563	24649.127544
495.434713	24397.321909
495.801805	24529.364852
496.168839	24358.439489
496.535815	24172.030223
496.902733	24383.085691
497.269593	24057.918665
497.636395	24245.479835
498.003139	24241.772066
498.369825	23983.380164
498.736453	24173.509802
499.103023	24064.199942
499.469535	24082.408590
499.835989	24278.063333
500.202385	24314.112624
500.568723	23808.376508
500.935003	24085.992850
501.301226	23670.551362
501.667390	24495.500901
502.033497	24753.469346
502.399546	24463.182063
502.765537	24062.135590
503.131470	24441.328662
503.497345	24569.729371
503.863163	23790.036790
504.228923	24404.755090
504.594625	24587.998512
504.960269	24105.219811
505.325856	24617.433809
505.691385	24029.854561
506.056856	24627.589214
506.422270	24590.158647
506.787625	24180.083466
507.152924	24581.873510
507.518164	24609.501554
507.883347	24417.393263
508.248472	24102.611014
508.613540	24891.629729
508.978550	24664.412322
509.343503	24655.035776
509.708398	24918.176445
510.073236	25082.807927
510.438016	25289.759895
510.802738	24971.448838
511.167403	25221.737086
511.532010	24914.912298
511.896561	25694.415835
512.261053	25660.950135
512.625488	25501.195970
512.989866	25389.972992
513.354186	25251.510140
513.718449	25341.222514
514.082655	25722.905916
514.446803	25454.270389
514.810894	25932.191938
515.174927	25399.508335
515.538904	25442.048112
515.902822	25926.676916
516.266684	25687.819485
516.630488	25582.887868
516.994235	25570.453862
517.357925	25859.168304
517.721558	26044.728136
518.085133	26134.238864
518.448651	26059.476032
518.812112	25787.490658
519.175516	25976.874205
519.538863	26131.725849
519.902152	25919.077377
520.265385	26211.421450
520.628560	25989.504816
520.991678	26013.853589
521.354739	26082.433446
521.717743	26141.772868
522.080690	25937.724605
522.443580	26271.353207
522.806413	26272.169874
523.169189	26359.747319
523.531908	26421.128409
523.894569	26010.105492
524.257174	26082.665339
524.619722	26285.367615
524.982213	25971.268442
525.344647	26041.295110
525.707025	26157.760888
526.069345	26151.587995
526.431608	26102.199811
526.793815	26294.560159
527.155964	25747.068166
527.518057	25918.064105
527.880093	25847.576171
528.242072	26066.997433
528.603995	25791.364785
528.965860	25586.807365
529.327669	25621.361954
529.689421	25616.593022
530.051117	25443.290756
530.412755	25633.594314
530.774337	25429.009167
531.135862	25299.436390
531.497331	25498.395609
531.858743	25050.390787
532.220098	25537.996393
532.581396	25204.718150
532.942638	25158.931870
533.303824	25241.508491
533.664953	25271.329437
534.026025	24933.004999
534.387040	25155.975234
534.747999	25227.927623
535.108902	25386.507199
535.469748	24875.228335
535.830537	25065.957870
536.191270	25188.036972
536.551947	25067.117335
536.912567	24722.252001
537.273131	25061.690533
537.633638	24752.166208
537.994089	24968.945905
538.354483	24524.600961
538.714821	25016.788976
539.075103	25065.267232
539.435328	24844.247924
539.795497	24401.299379
540.155609	24807.742408
540.515665	25089.903351
540.875665	24339.426778
541.235609	24613.053047
541.595496	24601.493681
541.955328	24934.098929
542.315102	24854.652865
542.674821	24407.817591
543.034483	24293.159068
543.394090	24452.293171
543.753640	24239.448094
544.113134	24892.562342
544.472571	24486.141999
544.831953	24777.881133
545.191278	24377.346337
545.550548	24308.534587
545.909761	24515.110989
546.268918	24739.134825
546.628019	24712.898140
546.987064	24412.815895
547.346053	24171.896633
547.704986	24292.705364
548.063863	24453.797956
548.422684	24459.139058
548.781449	24002.050077
549.140158	24399.845007
549.498811	23975.125274
549.857408	23715.097518
550.215949	24138.267095
550.574434	23823.394105
550.932864	24040.902250
551.291237	24197.901425
551.649555	24049.217633
552.007817	24106.969092
552.366022	23988.932995
552.724173	24034.399161
553.082267	23969.254851
553.440305	24438.457724
553.798288	23697.108160
554.156215	24231.783020
554.514086	24317.510361
554.871902	23685.473177
555.229661	23979.420337
555.587365	23840.718031
555.945014	23693.763355
556.302606	23951.325987
556.660143	23878.894689
557.017625	24140.964113
557.375050	23664.857379
557.732421	24059.320105
558.089735	23862.314334
558.446994	23935.209418
558.804197	23962.701351
559.161345	23904.443256
559.518437	23662.419981
559.875474	23867.174006
560.232455	24039.702455
560.589381	23863.292317
560.946251	23849.315718
561.303065	24164.871785
561.659825	24248.517130
562.016528	23850.006357
562.373177	23603.559468
562.729770	23954.060813
563.086307	23810.965141
563.442789	23988.043231
563.799216	23809.709893
564.155587	23831.696886
564.511904	23792.113746
564.868164	23729.593356
565.224370	23717.681109
565.580520	23620.384319
565.936615	23765.632565
566.292654	23443.825468
566.648638	23747.005501
567.004567	23575.313883
567.360441	23517.721221
567.716260	23240.205702
568.072023	23578.005860
568.427732	23327.150483
568.783385	23112.987144
569.138982	23345.681764
569.494525	23383.825655
569.850013	23132.650164
570.205445	23228.900915
570.560823	23030.765924
570.916145	22787.273153
571.271412	22961.094658
571.626625	22725.292166
571.981782	22835.950534
572.336884	22642.468529
572.691931	22771.126337
573.046923	22504.356037
573.401860	22385.538561
573.756743	22386.604765
574.111570	22303.082928
574.466342	22246.317016
574.821059	22322.561947
575.175722	22023.508098
575.530330	22025.953058
575.884882	22055.521945
576.239380	21955.243313
576.593823	21844.166529
576.948211	21818.675935
577.302544	21657.651399
577.656823	21534.813603
578.011047	21637.345631
578.365216	21499.061740
578.719330	21393.147098
579.073389	21275.499170
579.427394	21430.035741
579.781344	21198.616532
580.135239	21084.963719
580.489080	21055.820808
580.842866	20816.217287
581.196597	21015.650374
581.550273	20995.042137
581.903895	20879.813963
582.257463	21201.389167
582.610975	20731.271324
582.964434	21029.190913
583.317837	20729.280068
583.671186	20834.015080
584.024481	20787.870879
584.377721	20574.705688
584.730906	20626.846343
585.084037	20649.748304
585.437113	20557.706918
585.790135	20764.865573
586.143103	20228.421269
586.496016	20241.548433
586.848874	20482.921400
587.201679	20416.045453
587.554428	20078.222611
587.907124	20425.248080
588.259765	20194.378357
588.612352	20279.314238
588.964884	19847.972950
589.317362	20005.831641
589.669786	20068.972093
590.022155	20106.659759
590.374470	20295.329983
590.726731	20098.558625
591.078937	19852.371357
591.431090	19953.597726
591.783188	19696.272028
592.135232	19668.825466
592.487222	19772.602659
592.839157	19781.643968
593.191038	19676.813174
593.542866	19570.154961
593.894639	19276.603532
594.246358	19501.761627
594.598022	19401.225896
594.949633	19168.198559
595.301190	19119.990005
595.652692	19286.716086
596.004141	19531.287665
596.355535	18858.235653
596.706876	18869.782416
597.058162	18762.143699
597.409395	18984.309870
597.760573	19066.803312
598.111698	18842.451801
598.462768	18781.453839
598.813785	18743.037726
599.164748	18566.239420
599.515657	18602.308876
599.866511	18390.172081
600.217312	18745.865814
600.568060	18275.765615
600.918753	18585.098376
601.269392	18487.161360
601.619978	18267.581301
601.970510	18480.323035
602.320988	18430.811342
602.671412	18630.803998
603.021783	18533.308082
603.372100	18262.648532
603.722363	18413.217715
604.072572	18356.098922
604.422728	18482.805803
604.772830	18246.158918
605.122878	18191.341411
605.472872	18190.900310
605.822813	18169.757711
606.172701	18134.951064
606.522534	18337.658381
606.872314	18364.321044
607.222041	18190.975927
607.571714	18411.947345
607.921333	18233.929079
608.270899	18322.161874
608.620411	18501.664760
608.969870	18263.724819
609.319276	18268.937372
609.668627	18302.776117
610.017926	18430.448379
610.367171	18551.216781
610.716362	18586.202389
611.065500	18405.005676
611.414585	18544.580102
611.763616	18513.156070
612.112594	18467.233679
612.461518	18433.820911
612.810389	18630.201580
613.159207	18489.810486
613.507971	18400.526611
613.856682	18678.548766
614.205340	18598.459955
614.553945	18751.438809
614.902496	18495.602772
615.250994	18732.728567
615.599439	18671.246654
615.947830	18657.985899
616.296169	18698.733546
616.644454	18666.699534
616.992686	18631.660994
617.340864	18848.773408
617.688990	18611.851780
618.037063	18791.833575
618.385082	18631.406416
618.733048	18913.985774
619.080961	18780.322100
619.428821	18824.958997
619.776628	18718.671309
620.124382	18640.301532
620.472083	18677.409465
620.819731	18698.660449
621.167326	18374.065594
621.514868	18431.988452
621.862357	18196.793419
622.209793	18207.536118
622.557176	18044.132157
622.904506	17865.539200
623.251783	17772.907998
623.599007	17535.318417
623.946179	17479.316239
624.293297	17426.648784
624.640363	17185.832865
624.987376	17194.483485
625.334336	16987.443297
625.681243	16837.756315
626.028097	16851.778285
626.374899	16766.799554
626.721647	16634.691077
627.068343	16471.398021
627.414987	16406.873773
627.761577	16379.432252
628.108115	16425.783141
628.454600	16146.122611
628.801032	16242.791777
629.147412	16173.279306
629.493739	16192.816298
629.840014	16007.251425
630.186236	16102.645179
630.532405	15861.264651
630.878521	16056.569033
631.224585	15951.808815
631.570597	15777.097546
631.916556	15809.867567
632.262462	15786.330419
632.608316	15698.815989
632.954117	15642.710467
633.299866	15637.346679
633.645562	15558.989504
633.991206	15316.928420
634.336797	15176.476833
634.682336	15157.070911
635.027823	15041.273087
635.373257	14916.819601
635.718639	14823.782586
636.063968	14779.692655
636.409245	14528.328121
636.754470	14554.307707
