Dividing Wavelength (nm)	Counts (n)	Blue Motor Position (mm): 0.800000	Red Motor Position (mm): 0.000000	
326.493990	2064.423076
326.888308	2064.423076
327.282561	2064.423076
327.676750	2037.475588
328.070874	2039.902904
328.464933	2041.178316
328.858929	2053.186344
329.252859	2064.259239
329.646726	2075.889181
330.040528	2092.598085
330.434265	2109.327154
330.827938	2132.471091
331.221547	2153.205357
331.615091	2172.502894
332.008571	2193.159022
332.401986	2216.920501
332.795338	2234.254508
333.188625	2254.015831
333.581847	2271.924530
333.975006	2289.109824
334.368100	2307.550364
334.761129	2326.101811
335.154095	2339.919613
335.546996	2353.303877
335.939833	2368.271063
336.332606	2383.666746
336.725315	2392.486245
337.117960	2402.883625
337.510540	2414.790830
337.903056	2422.917170
338.295508	2430.413366
338.687896	2435.421752
339.080220	2443.527928
339.472480	2445.045315
339.864676	2450.598146
340.256807	2450.464555
340.648875	2454.600822
341.040879	2456.725668
341.432818	2458.391770
341.824694	2457.542335
342.216506	2456.997891
342.608253	2456.642489
342.999937	2459.258848
343.391557	2455.399845
343.783113	2453.998404
344.174605	2451.044288
344.566033	2450.278033
344.957397	2451.513115
345.348697	2448.269133
345.739934	2444.032043
346.131106	2445.262085
346.522215	2442.733946
346.913260	2440.704882
347.304241	2439.487443
347.695159	2439.643719
348.086012	2438.242278
348.476802	2435.273038
348.867528	2432.941505
349.258191	2429.818510
349.648789	2431.043510
350.039324	2426.592171
350.429796	2430.045362
350.820203	2427.396235
351.210548	2431.015784
351.600828	2426.788776
351.991045	2428.409507
352.381198	2424.399269
352.771288	2426.687953
353.161314	2425.329362
353.551276	2427.169383
353.941175	2425.437747
354.331010	2425.823395
354.720782	2425.026893
355.110490	2427.129054
355.500135	2428.807758
355.889717	2429.657193
356.279235	2428.686771
356.668689	2429.692481
357.058080	2427.456729
357.447408	2429.848757
357.836672	2430.657862
358.225873	2428.182655
358.615010	2429.737851
359.004084	2431.827410
359.393095	2433.801021
359.782043	2433.513676
360.170927	2430.899837
360.559748	2431.242636
360.948505	2431.320774
361.337199	2432.921340
361.725830	2432.911258
362.114398	2435.157092
362.502903	2432.341607
362.891344	2434.146340
363.279722	2438.995930
363.668037	2435.686413
364.056289	2435.784715
364.444478	2434.476536
364.832603	2436.122473
365.220665	2434.844540
365.608665	2437.465940
365.996601	2439.865529
366.384474	2436.578697
366.772284	2436.011567
367.160031	2441.753442
367.547715	2439.691610
367.935336	2442.048349
368.322893	2436.384613
368.710388	2436.460230
369.097820	2436.245981
369.485189	2435.008378
369.872495	2438.668255
370.259738	2440.472988
370.646918	2439.404264
371.034035	2439.510128
371.421090	2439.172371
371.808081	2440.944336
372.195010	2442.229831
372.581875	2442.761672
372.968678	2441.922320
373.355418	2443.374173
373.742096	2445.279729
374.128710	2443.361570
374.515262	2440.838472
374.901751	2442.020623
375.288177	2442.870057
375.674540	2446.343412
376.060841	2447.029009
376.447079	2443.716971
376.833254	2446.834925
377.219367	2445.655295
377.605417	2445.907352
377.991404	2449.390790
378.377329	2444.137907
378.763191	2445.385593
379.148991	2444.319389
379.534727	2445.085644
379.920402	2442.146652
380.306013	2442.562547
380.691563	2447.518001
381.077049	2445.756118
381.462474	2448.039760
381.847835	2446.088834
382.233134	2447.523042
382.618371	2451.273661
383.003545	2450.000769
383.388657	2450.799792
383.773706	2447.956581
384.158693	2449.446242
384.543618	2449.519339
384.928480	2448.982456
385.313280	2449.368104
385.698017	2447.613783
386.082692	2451.566048
386.467305	2450.736778
386.851856	2450.227621
387.236344	2447.039091
387.620770	2451.709720
388.005133	2447.283587
388.389435	2448.218721
388.773674	2445.703186
389.157851	2448.662343
389.541965	2450.131839
389.926018	2452.402879
390.310008	2449.231993
390.693936	2453.229628
391.077802	2450.320883
391.461606	2450.565378
391.845348	2453.650565
392.229027	2455.238528
392.612645	2451.140070
392.996200	2454.815071
393.379694	2454.051336
393.763125	2454.484876
394.146494	2451.755091
394.529801	2453.804320
394.913047	2453.804320
395.296230	2452.503702
395.679351	2453.827005
396.062410	2456.539146
396.445408	2452.944803
396.828343	2456.584516
397.211217	2453.058229
397.594028	2456.239197
397.976778	2455.578806
398.359466	2455.420010
398.742092	2456.327417
399.124656	2457.433951
399.507158	2458.963941
399.889598	2454.510081
400.271977	2456.284567
400.654294	2457.837243
401.036549	2456.599640
401.418742	2454.941100
401.800874	2459.092490
402.182944	2457.060905
402.564952	2457.547377
402.946898	2458.454784
403.328783	2457.058385
403.710606	2459.037038
404.092367	2457.635597
404.474067	2456.521502
404.855705	2458.406893
405.237282	2460.304888
405.618797	2461.149281
406.000250	2459.858746
406.381642	2459.183231
406.762972	2456.425720
407.144240	2456.929835
407.525447	2457.885134
407.906593	2457.839763
408.287677	2460.438478
408.668700	2459.906637
409.049661	2458.260700
409.430560	2461.713890
409.811399	2458.810186
410.192176	2461.050978
410.572891	2459.571400
410.953545	2460.456122
411.334138	2460.836729
411.714669	2459.405042
412.095139	2460.166256
412.475547	2461.623149
412.855894	2463.362347
413.236180	2460.763633
413.616405	2462.878397
413.996568	2463.732872
414.376670	2461.812193
414.756711	2460.826647
415.136691	2464.640280
415.516609	2464.020218
415.896466	2463.725311
416.276262	2462.712039
416.655997	2464.484004
417.035670	2463.052317
417.415283	2466.654221
417.794834	2464.010136
418.174324	2462.439816
418.553753	2462.646504
418.933121	2461.550053
419.312428	2465.741772
419.691674	2463.271607
420.070859	2465.018367
420.449983	2464.184056
420.829045	2465.865280
421.208047	2464.413428
421.586988	2464.063068
421.965867	2462.739765
422.344686	2465.953501
422.723444	2465.184725
423.102141	2466.762606
423.480777	2465.673717
423.859352	2465.477112
424.237866	2466.197997
424.616319	2464.622636
424.994712	2470.261167
425.373044	2465.328397
425.751314	2463.848819
426.129524	2463.586679
426.507673	2466.921402
426.885762	2463.506020
427.263789	2468.668162
427.641756	2469.656228
428.019662	2468.118676
428.397508	2469.076495
428.775292	2466.782770
429.153016	2466.845785
429.530679	2468.965590
429.908282	2467.508697
430.285824	2467.150775
430.663305	2468.176649
431.040726	2466.099694
431.418086	2468.627833
431.795385	2469.910806
432.172624	2467.054993
432.549802	2468.975672
432.926920	2469.583131
433.303977	2469.464664
433.680974	2467.894345
434.057910	2469.880559
434.434786	2468.995837
434.811601	2468.647997
435.188355	2467.533902
435.565050	2470.392237
435.941683	2469.537761
436.318257	2470.780405
436.694770	2470.387195
437.071222	2469.499952
437.447614	2469.381485
437.823946	2470.301496
438.200218	2473.275777
438.576429	2472.481795
438.952580	2469.230251
439.328670	2473.595890
439.704700	2471.773513
440.080670	2471.551702
440.456580	2469.557926
440.832429	2471.622278
441.208218	2468.879890
441.583947	2469.464664
441.959616	2470.515745
442.335224	2470.956846
442.710773	2470.583800
443.086261	2471.967597
443.461689	2472.940540
443.837057	2470.367031
444.212365	2471.665128
444.587612	2470.437607
444.962800	2468.285034
445.337927	2469.885601
445.712995	2468.211937
446.088002	2472.796867
446.462949	2473.215283
446.837837	2472.186887
447.212664	2473.545478
447.587431	2471.629840
447.962139	2472.043214
448.336786	2475.330047
448.711374	2472.086064
449.085901	2474.384830
449.460369	2471.345015
449.834776	2475.662763
450.209124	2469.174798
450.583412	2474.072279
450.957640	2473.215283
451.331808	2473.442135
451.705917	2474.296610
452.079965	2473.694192
452.453954	2474.964563
452.827883	2475.894656
453.201752	2474.147896
453.575562	2472.948102
453.949311	2474.311734
454.323001	2475.690489
454.696632	2474.508339
455.070202	2473.535396
455.443713	2474.573874
455.817164	2474.735191
456.190556	2473.585807
456.563888	2477.041518
456.937160	2473.832824
457.310373	2472.466671
457.683526	2474.059676
458.056619	2475.410705
458.429653	2476.106384
458.802628	2475.393061
459.175542	2475.294759
459.548398	2475.209059
459.921194	2473.742083
460.293930	2477.999338
460.666607	2476.255098
461.039224	2474.919193
461.411782	2474.425160
461.784280	2475.987917
462.156719	2475.272073
462.529099	2477.268370
462.901419	2475.839203
463.273680	2473.341312
463.645882	2470.672021
464.018024	2475.045222
464.390106	2470.971969
464.762130	2475.965232
465.134094	2476.663432
465.505999	2476.965901
465.877845	2475.884574
466.249631	2476.008082
466.621358	2477.601087
466.993026	2475.128401
467.364634	2479.955305
467.736184	2477.490181
468.107674	2478.410192
468.479105	2475.461117
468.850477	2474.931796
469.221790	2474.286528
469.593043	2478.437918
469.964238	2474.672176
470.335373	2479.602425
470.706449	2478.775675
471.077467	2476.696199
471.448425	2477.545634
471.819324	2476.660911
472.190164	2479.206694
472.560945	2478.861375
472.931667	2473.895838
473.302330	2479.859523
473.672934	2476.270222
474.043479	2478.473206
474.413965	2480.368680
474.784393	2476.204687
475.154761	2478.100161
475.525070	2478.942033
475.895321	2476.008082
476.265513	2477.515387
476.635645	2477.850624
477.005719	2476.595376
477.375734	2479.108392
477.745691	2478.183340
478.115588	2476.529841
478.485427	2478.611838
478.855207	2479.320120
479.224928	2476.943216
479.594591	2478.750470
479.964194	2478.727784
480.333739	2480.524956
480.703226	2477.918679
481.072653	2483.128712
481.442022	2477.180150
481.811333	2476.970942
482.180584	2473.709316
482.549777	2475.534213
482.918912	2473.981538
483.287988	2480.529997
483.657005	2478.770634
484.025964	2480.998824
484.394864	2478.432877
484.763706	2478.143011
485.132489	2478.329533
485.501213	2478.044708
485.869879	2479.683083
486.238487	2478.977322
486.607036	2476.807105
486.975527	2481.656695
487.343959	2480.056128
487.712333	2481.127374
488.080648	2478.485809
488.448905	2478.989924
488.817104	2480.570326
489.185244	2478.332054
489.553326	2481.026551
489.921350	2480.424133
490.289315	2476.817187
490.657222	2479.418423
491.025070	2481.921355
491.392861	2480.343474
491.760593	2480.076293
492.128267	2479.587301
492.495883	2479.925058
492.863440	2480.966057
493.230939	2480.310707
493.598380	2481.240800
493.965763	2479.075624
494.333088	2480.381283
494.700354	2480.456900
495.067563	2480.930769
495.434713	2477.747280
495.801805	2482.344812
496.168839	2480.252733
496.535815	2480.482106
496.902733	2479.892291
497.269593	2480.446818
497.636395	2481.034112
498.003139	2480.303145
498.369825	2480.371201
498.736453	2480.943372
499.103023	2480.928248
499.469535	2483.194247
499.835989	2480.426653
500.202385	2477.938844
500.568723	2477.520428
500.935003	2479.725933
501.301226	2477.064204
501.667390	2484.915801
502.033497	2479.667960
502.399546	2481.820532
502.765537	2482.019658
503.131470	2481.351705
503.497345	2480.981180
503.863163	2480.330871
504.228923	2481.954123
504.594625	2483.295070
504.960269	2480.870275
505.325856	2479.257106
505.691385	2480.396406
506.056856	2483.108547
506.422270	2479.930100
506.787625	2483.206850
507.152924	2478.624441
507.518164	2482.617035
507.883347	2480.608135
508.248472	2480.474544
508.613540	2484.419247
508.978550	2482.173413
509.343503	2481.782724
509.708398	2481.361787
510.073236	2483.496716
510.438016	2482.170892
510.802738	2480.184678
511.167403	2481.533187
511.532010	2483.668115
511.896561	2479.829277
512.261053	2482.301963
512.625488	2482.566623
512.989866	2481.946561
513.354186	2481.518063
513.718449	2481.502940
514.082655	2480.968577
514.446803	2482.352374
514.810894	2484.338589
515.174927	2482.710296
515.538904	2482.072590
515.902822	2484.807416
516.266684	2482.974957
516.630488	2485.245996
516.994235	2480.567806
517.357925	2481.082003
517.721558	2482.589308
518.085133	2481.460090
518.448651	2480.474544
518.812112	2479.327682
519.175516	2480.371201
519.538863	2477.706951
519.902152	2483.320276
520.265385	2479.836838
520.628560	2481.404637
520.991678	2480.726602
521.354739	2483.048053
521.717743	2483.065697
522.080690	2483.549648
522.443580	2482.876654
522.806413	2483.370687
523.169189	2480.330871
523.531908	2481.676859
523.894569	2480.232569
524.257174	2481.318938
524.619722	2480.900522
524.982213	2484.189875
525.344647	2483.748774
525.707025	2483.413537
526.069345	2482.173413
526.431608	2483.385811
526.793815	2480.988742
527.155964	2483.796665
527.518057	2481.840697
527.880093	2482.692652
528.242072	2483.221973
528.603995	2483.053094
528.965860	2481.883547
529.327669	2482.586788
529.689421	2482.231386
530.051117	2484.084010
530.412755	2484.078969
530.774337	2483.537045
531.135862	2485.876141
531.497331	2482.848928
531.858743	2482.105358
532.220098	2485.465287
532.581396	2481.815491
532.942638	2484.159628
533.303824	2481.245841
533.664953	2482.528814
534.026025	2483.393372
534.387040	2482.531335
534.747999	2482.803557
535.108902	2483.741212
535.469748	2483.794144
535.830537	2484.073928
536.191270	2484.845225
536.551947	2481.818012
536.912567	2478.672332
537.273131	2481.770121
537.633638	2476.310551
537.994089	2483.199288
538.354483	2481.099647
538.714821	2484.628455
539.075103	2482.226345
539.435328	2481.956643
539.795497	2483.060656
540.155609	2481.762559
540.515665	2480.318268
540.875665	2485.029227
541.235609	2482.294401
541.595496	2483.647951
541.955328	2484.441932
542.315102	2482.183495
542.674821	2485.961840
543.034483	2483.201808
543.394090	2483.375728
543.753640	2483.600060
544.113134	2485.898826
544.472571	2483.242138
544.831953	2485.906388
545.191278	2485.419916
545.550548	2483.844556
545.909761	2482.581747
546.268918	2482.702734
546.628019	2482.959833
546.987064	2483.030409
547.346053	2484.119298
547.704986	2486.312200
548.063863	2485.172900
548.422684	2483.766418
548.781449	2483.884885
549.140158	2483.532004
549.498811	2484.262971
549.857408	2483.022848
550.215949	2483.680718
550.574434	2482.037302
550.932864	2484.124340
551.291237	2486.027375
551.649555	2486.551655
552.007817	2485.903867
552.366022	2485.487972
552.724173	2484.051243
553.082267	2483.912611
553.440305	2482.922024
553.798288	2485.326655
554.156215	2483.388331
554.514086	2482.221304
554.871902	2479.158803
555.229661	2483.549648
555.587365	2480.787096
555.945014	2485.656850
556.302606	2481.911273
556.660143	2483.940338
557.017625	2482.816160
557.375050	2484.600729
557.732421	2482.516212
558.089735	2482.448156
558.446994	2484.630976
558.804197	2487.005359
559.161345	2484.590646
559.518437	2485.109885
559.875474	2482.576705
560.232455	2487.527118
560.589381	2482.722899
560.946251	2485.127529
561.303065	2482.385142
561.659825	2483.902529
562.016528	2485.182982
562.373177	2484.320945
562.729770	2485.346819
563.086307	2485.777838
563.442789	2484.424288
563.799216	2485.908908
564.155587	2484.794813
564.511904	2482.821201
564.868164	2484.424288
565.224370	2484.141984
565.580520	2484.867910
565.936615	2484.467138
566.292654	2487.401090
566.648638	2487.277581
567.004567	2484.693990
567.360441	2483.403455
567.716260	2481.858341
568.072023	2485.407313
568.427732	2481.782724
568.783385	2485.223311
569.138982	2486.337406
569.494525	2485.924032
569.850013	2485.359422
570.205445	2484.023517
570.560823	2483.179123
570.916145	2484.199957
571.271412	2484.031078
571.626625	2479.957826
571.981782	2484.250368
572.336884	2482.052425
572.691931	2483.143835
573.046923	2481.722230
573.401860	2479.652836
573.756743	2485.225832
574.111570	2486.370174
574.466342	2483.458907
574.821059	2484.119298
575.175722	2483.877323
575.530330	2483.892447
575.884882	2483.446304
576.239380	2485.180461
576.593823	2488.522746
576.948211	2484.721716
577.302544	2482.125522
577.656823	2482.682570
578.011047	2484.159628
578.365216	2483.768938
578.719330	2485.545945
579.073389	2485.750112
579.427394	2485.455204
579.781344	2485.823208
580.135239	2484.101654
580.489080	2484.709113
580.842866	2483.723568
581.196597	2484.300780
581.550273	2485.117447
581.903895	2485.757673
582.257463	2482.793475
582.610975	2483.405975
582.964434	2483.819350
583.317837	2485.404793
583.671186	2486.229021
584.024481	2485.699700
584.377721	2486.476038
584.730906	2484.320945
585.084037	2484.431850
585.437113	2485.397231
585.790135	2484.615852
586.143103	2485.228352
586.496016	2483.292549
586.848874	2485.714824
587.201679	2486.395379
587.554428	2485.611480
587.907124	2484.588126
588.259765	2483.131232
588.612352	2486.455873
588.964884	2485.009062
589.317362	2482.017137
589.669786	2483.723568
590.022155	2482.027220
590.374470	2480.456900
590.726731	2483.390852
591.078937	2480.439256
591.431090	2485.142653
591.783188	2485.349340
592.135232	2484.101654
592.487222	2485.301449
592.839157	2482.710296
593.191038	2484.290698
593.542866	2485.377066
593.894639	2483.368167
594.246358	2484.479741
594.598022	2484.305821
594.949633	2481.762559
595.301190	2482.879175
595.652692	2482.927066
596.004141	2483.597539
596.355535	2486.813795
596.706876	2482.886736
597.058162	2486.145842
597.409395	2483.564772
597.760573	2485.886223
598.111698	2484.988898
598.462768	2485.626603
598.813785	2483.312714
599.164748	2484.399082
599.515657	2484.696511
599.866511	2486.748260
600.217312	2484.323465
600.568060	2485.109885
600.918753	2484.893116
601.269392	2485.424957
601.619978	2483.244658
601.970510	2485.306490
602.320988	2484.424288
602.671412	2483.526963
603.021783	2483.678197
603.372100	2485.840853
603.722363	2481.790285
604.072572	2484.525111
604.422728	2483.756335
604.772830	2482.493526
605.122878	2482.382621
605.472872	2482.511170
605.822813	2485.029227
606.172701	2484.487303
606.522534	2485.704741
606.872314	2485.087200
607.222041	2483.365646
607.571714	2481.898670
607.921333	2479.592342
608.270899	2484.446973
608.620411	2479.415902
608.969870	2485.513178
609.319276	2485.374546
609.668627	2488.066522
610.017926	2486.970071
610.367171	2482.722899
610.716362	2483.232055
611.065500	2482.092755
611.414585	2485.064515
611.763616	2488.263127
612.112594	2485.785400
612.461518	2485.810606
612.810389	2485.737509
613.159207	2487.814464
613.507971	2484.749443
613.856682	2485.089721
614.205340	2485.800523
614.553945	2483.849597
614.902496	2484.020996
615.250994	2483.645430
615.599439	2487.461583
615.947830	2485.004021
616.296169	2483.925214
616.644454	2483.683239
616.992686	2483.872282
617.340864	2483.005203
617.688990	2483.534525
618.037063	2484.835142
618.385082	2482.072590
618.733048	2484.610811
619.080961	2484.162148
619.428821	2484.814978
619.776628	2485.810606
620.124382	2481.351705
620.472083	2486.967550
620.819731	2485.089721
621.167326	2483.980667
621.514868	2482.538897
621.862357	2486.067704
622.209793	2484.731799
622.557176	2482.480923
622.904506	2483.617704
623.251783	2483.567292
623.599007	2485.051912
623.946179	2481.102168
624.293297	2484.605770
624.640363	2486.702890
624.987376	2481.419761
625.334336	2483.431181
625.681243	2480.706437
626.028097	2479.380614
626.374899	2483.078300
626.721647	2483.113588
627.068343	2482.758187
627.414987	2484.194916
627.761577	2484.968733
628.108115	2485.364463
628.454600	2484.840183
628.801032	2485.785400
629.147412	2483.416058
629.493739	2482.637199
629.840014	2484.225163
630.186236	2483.869761
630.532405	2485.268682
630.878521	2482.223825
631.224585	2484.225163
631.570597	2485.530822
631.916556	2484.295739
632.262462	2482.967395
632.608316	2483.363125
632.954117	2483.700883
633.299866	2485.528301
633.645562	2483.577374
633.991206	2485.813126
634.336797	2482.881695
634.682336	2486.413023
635.027823	2482.327168
635.373257	2485.364463
635.718639	2481.744915
636.063968	2485.677015
636.409245	2484.764566
636.754470	2483.703403
637.099642	2484.935965
637.444762	2484.333547
637.789829	2482.425471
638.134845	2485.329175
638.479808	2483.660553
638.824719	2484.661222
639.169577	2484.245327
639.514383	2484.048722
639.859137	2484.827581
640.203839	2484.512508
640.548489	2483.000162
640.893086	2482.561582
641.237632	2485.230873
641.582125	2482.874133
641.926566	2482.218783
642.270955	2483.602580
642.615292	2478.853813
642.959576	2482.347333
643.303809	2479.189050
643.647990	2484.762046
643.992118	2484.053763
644.336195	2482.135604
