Dividing Wavelength (nm)	Counts (n)	Blue Motor Position (mm): 31.900000	Red Motor Position (mm): 0.000000	
326.493990	2131.445217
326.888308	2131.445217
327.282561	2131.445217
327.676750	2096.527664
328.070874	2097.014136
328.464933	2100.245515
328.858929	2105.715167
329.252859	2116.883844
329.646726	2129.136368
330.040528	2141.880405
330.434265	2161.203148
330.827938	2175.905673
331.221547	2194.757068
331.615091	2211.753318
332.008571	2228.971379
332.401986	2249.803947
332.795338	2270.258429
333.188625	2291.101079
333.581847	2307.512556
333.975006	2327.019301
334.368100	2343.912207
334.761129	2363.640763
335.154095	2379.550644
335.546996	2399.851371
335.939833	2423.920360
336.332606	2439.885694
336.725315	2455.755246
337.117960	2460.975361
337.510540	2468.912658
337.903056	2482.654843
338.295508	2486.947386
338.687896	2497.271669
339.080220	2505.612258
339.472480	2511.172651
339.864676	2517.380832
340.256807	2520.312263
340.648875	2521.557427
341.040879	2525.746626
341.432818	2527.011956
341.824694	2528.110927
342.216506	2528.327697
342.608253	2529.895496
342.999937	2529.812317
343.391557	2529.333407
343.783113	2527.379960
344.174605	2527.868952
344.566033	2523.362161
344.957397	2522.646317
345.348697	2523.407531
345.739934	2523.316790
346.131106	2519.755215
346.522215	2517.632889
346.913260	2515.767662
347.304241	2513.093330
347.695159	2509.380520
348.086012	2507.911024
348.476802	2508.246261
348.867528	2506.678462
349.258191	2506.229799
349.648789	2504.639315
350.039324	2503.956239
350.429796	2503.573111
350.820203	2499.681340
351.210548	2500.235867
351.600828	2500.757627
351.991045	2495.595485
352.381198	2493.299240
352.771288	2497.334683
353.161314	2495.393839
353.551276	2496.480208
353.941175	2496.011380
354.331010	2497.609426
354.720782	2494.995588
355.110490	2496.286123
355.500135	2497.012049
355.889717	2496.901144
356.279235	2496.061792
356.668689	2499.693943
357.058080	2497.420383
357.447408	2496.858294
357.836672	2494.788901
358.225873	2493.861328
358.615010	2494.781339
359.004084	2501.319715
359.393095	2500.440034
359.782043	2500.528254
360.170927	2501.055055
360.559748	2502.426249
360.948505	2501.234016
361.337199	2505.045128
361.725830	2503.689058
362.114398	2502.675786
362.502903	2501.392812
362.891344	2504.397340
363.279722	2504.059583
363.668037	2506.191991
364.056289	2502.693430
364.444478	2507.772392
364.832603	2506.867505
365.220665	2504.989675
365.608665	2505.846672
365.996601	2507.379182
366.384474	2507.318688
366.772284	2512.238855
367.160031	2508.851199
367.547715	2509.685510
367.935336	2507.495129
368.322893	2510.045953
368.710388	2509.751045
369.097820	2512.208608
369.485189	2509.259533
369.872495	2510.492095
370.259738	2511.454955
370.646918	2511.064266
371.034035	2511.752383
371.421090	2513.577281
371.808081	2513.047960
372.195010	2511.790192
372.581875	2513.055522
372.968678	2511.782630
373.355418	2512.102743
373.742096	2513.995697
374.128710	2515.127436
374.515262	2511.948988
374.901751	2516.312107
375.288177	2514.769514
375.674540	2514.285563
376.060841	2513.925121
376.447079	2515.651716
376.833254	2516.821263
377.219367	2514.099040
377.605417	2514.451921
377.991404	2510.318175
378.377329	2513.983094
378.763191	2509.831704
379.148991	2514.698938
379.534727	2515.283712
379.920402	2519.120030
380.306013	2517.711027
380.691563	2516.975019
381.077049	2517.479134
381.462474	2516.982580
381.847835	2516.796058
382.233134	2517.065759
382.618371	2519.591377
383.003545	2520.639938
383.388657	2519.712365
383.773706	2516.796058
384.158693	2521.265041
384.543618	2518.608352
384.928480	2520.007273
385.313280	2520.823940
385.698017	2522.162366
386.082692	2520.284536
386.467305	2522.255627
386.851856	2520.854187
387.236344	2522.490041
387.620770	2522.164887
388.005133	2523.808303
388.389435	2523.402490
388.773674	2521.854856
389.157851	2522.903416
389.541965	2521.002901
389.926018	2524.783766
390.310008	2524.642614
390.693936	2525.063550
391.077802	2523.583971
391.461606	2524.138498
391.845348	2524.675381
392.229027	2528.241997
392.612645	2525.154291
392.996200	2525.577748
393.379694	2526.737213
393.763125	2529.093953
394.146494	2524.877027
394.529801	2530.210568
394.913047	2525.255114
395.296230	2528.282327
395.679351	2530.626463
396.062410	2530.734848
396.445408	2530.064375
396.828343	2531.566638
397.211217	2522.585823
397.594028	2525.378622
397.976778	2528.879703
398.359466	2527.599250
398.742092	2524.730834
399.124656	2530.853315
399.507158	2530.810465
399.889598	2530.155115
400.271977	2529.414066
400.654294	2533.270548
401.036549	2533.953625
401.418742	2531.677544
401.800874	2533.741896
402.182944	2533.479756
402.564952	2529.923222
402.946898	2533.411701
403.328783	2534.906403
403.710606	2534.911444
404.092367	2537.159799
404.474067	2535.912113
404.855705	2533.252904
405.237282	2536.590148
405.618797	2536.519572
406.000250	2536.504449
406.381642	2534.525796
406.762972	2538.107536
407.144240	2536.781712
407.525447	2540.426466
407.906593	2537.293389
408.287677	2541.366642
408.668700	2536.776671
409.049661	2540.066024
409.430560	2537.053934
409.811399	2539.153575
410.192176	2540.658359
410.572891	2538.034439
410.953545	2540.822197
411.334138	2540.139121
411.714669	2542.173226
412.095139	2542.573998
412.475547	2545.119781
412.855894	2544.146838
413.236180	2545.011396
413.616405	2546.574153
413.996568	2548.688917
414.376670	2549.719833
414.756711	2550.176058
415.136691	2553.903991
415.516609	2557.831050
415.896466	2559.880279
416.276262	2566.539643
416.655997	2565.324725
417.035670	2569.213975
417.415283	2583.112437
417.794834	2583.104875
418.174324	2593.887903
418.553753	2598.717328
418.933121	2611.980604
419.312428	2620.457304
419.691674	2631.436937
420.070859	2648.027375
420.449983	2655.783190
420.829045	2674.049811
421.208047	2679.511901
421.586988	2701.425797
421.965867	2717.436501
422.344686	2742.917013
422.723444	2749.899012
423.102141	2752.800196
423.480777	2791.934673
423.859352	2789.875362
424.237866	2836.828668
424.616319	2855.745598
424.994712	2889.667522
425.373044	2903.823083
425.751314	2944.313630
426.129524	2946.120884
426.507673	3002.801097
426.885762	3038.936088
427.263789	3064.386353
427.641756	3071.708629
428.019662	3125.361629
428.397508	3161.093328
428.775292	3192.101465
429.153016	3245.545258
429.530679	3266.952517
429.908282	3323.476455
430.285824	3327.930314
430.663305	3441.865433
431.040726	3415.485074
431.418086	3451.506639
431.795385	3526.692928
432.172624	3572.695978
432.549802	3614.096454
432.926920	3663.955986
433.303977	3712.272925
433.680974	3775.307513
434.057910	3834.841019
434.434786	3884.776168
434.811601	3915.721291
435.188355	4063.089342
435.565050	4059.590781
435.941683	4101.366823
436.318257	4255.253085
436.694770	4303.388542
437.071222	4373.513513
437.447614	4391.583529
437.823946	4391.384403
438.200218	4532.685425
438.576429	4509.546529
438.952580	4616.930668
439.328670	4697.783214
439.704700	4687.353066
440.080670	4721.317840
440.456580	4953.727636
440.832429	4924.509108
441.208218	4868.743864
441.583947	5019.010578
441.959616	5066.404986
442.335224	5062.941713
442.710773	5205.001428
443.086261	5275.660761
443.461689	5155.038553
443.837057	5316.534437
444.212365	5477.606864
444.587612	5430.547693
444.962800	5594.150779
445.337927	5620.866374
445.712995	5339.184341
446.088002	5850.352300
446.462949	5743.283233
446.837837	5720.590479
447.212664	5893.068517
447.587431	6056.921140
447.962139	6559.327574
448.336786	7393.058803
448.711374	7207.100720
449.085901	6426.467964
449.460369	6386.599999
449.834776	6356.597572
450.209124	6734.515232
450.583412	6904.059318
450.957640	7055.999695
451.331808	6861.753955
451.705917	6471.369522
452.079965	6414.280975
452.453954	6636.288349
452.827883	6536.803698
453.201752	6645.213712
453.575562	6458.151616
453.949311	6670.331261
454.323001	6574.385500
454.696632	6658.232492
455.070202	6802.999307
455.443713	6964.805222
455.817164	7075.997952
456.190556	7158.705643
456.563888	7242.166986
456.937160	7291.424100
457.310373	6964.797660
457.683526	6994.910992
458.056619	6894.040025
458.429653	6883.587192
458.802628	6826.186094
459.175542	6943.027437
459.548398	7296.818135
459.921194	7451.871424
460.293930	7463.695450
460.666607	7985.273392
461.039224	8296.569683
461.411782	8423.306811
461.784280	8446.203732
462.156719	8338.287752
462.529099	8217.307621
462.901419	7810.085734
463.273680	7710.424643
463.645882	7722.409986
464.018024	7591.962569
464.390106	7759.764936
464.762130	8145.367835
465.134094	8612.677756
465.505999	9632.641810
465.877845	10850.330001
466.249631	11489.208031
466.621358	11112.369178
466.993026	10492.438325
467.364634	10235.924253
467.736184	9873.243481
468.107674	9545.991937
468.479105	9576.727852
468.850477	9343.314868
469.221790	9113.692831
469.593043	8788.356926
469.964238	8651.005648
470.335373	8661.380343
470.706449	8725.609684
471.077467	8706.092857
471.448425	10008.396815
471.819324	11074.600854
472.190164	11096.534914
472.560945	9855.231438
472.931667	9067.674658
473.302330	8937.368393
473.672934	8581.599042
474.043479	8941.837375
474.413965	8885.303356
474.784393	8765.268441
475.154761	8921.299715
475.525070	9009.139300
475.895321	8834.980037
476.265513	9012.852110
476.635645	9179.316051
477.005719	9178.895114
477.375734	9291.461559
477.745691	9528.274802
478.115588	9659.911932
478.485427	9904.309591
478.855207	10444.832189
479.224928	11250.148954
479.594591	11880.542722
479.964194	11686.196159
480.333739	11628.921089
480.703226	11540.844570
481.072653	11640.374591
481.442022	11872.330682
481.811333	12065.558109
482.180584	11873.117102
482.549777	11571.943448
482.918912	11402.016234
483.287988	11422.765623
483.657005	11430.140832
484.025964	11117.354879
484.394864	11252.359500
484.763706	11221.449665
485.132489	10984.918727
485.501213	10942.288209
485.869879	11018.570949
486.238487	10864.961950
486.607036	10970.841305
486.975527	10752.423232
487.343959	10938.693867
487.712333	10989.644808
488.080648	10916.810218
488.448905	10967.927518
488.817104	10905.608774
489.185244	11175.736482
489.553326	11328.387662
489.921350	11864.254754
490.289315	12920.726845
490.657222	13254.302515
491.025070	13167.312365
491.392861	13044.499775
491.760593	12664.835355
492.128267	12314.089514
492.495883	11988.554484
492.863440	11648.309367
493.230939	11317.869294
493.598380	11255.485015
493.965763	11116.976793
494.333088	11024.532114
494.700354	10940.715369
495.067563	11003.407158
495.434713	10832.350726
495.801805	10961.837804
496.168839	10877.736234
496.535815	10815.735083
496.902733	10814.605865
497.269593	10751.215876
497.636395	10855.577843
498.003139	10842.932108
498.369825	10705.737106
498.736453	10868.412620
499.103023	10792.999479
499.469535	10823.556433
499.835989	10810.048662
500.202385	10774.929463
500.568723	10626.212904
500.935003	10852.633809
501.301226	10657.873871
501.667390	10916.341390
502.033497	11011.745227
502.399546	10871.497806
502.765537	10781.888776
503.131470	10852.815290
503.497345	11022.561023
503.863163	10639.088011
504.228923	10951.558891
504.594625	11010.590803
504.960269	10759.072514
505.325856	10977.679630
505.691385	10769.540470
506.056856	10929.009810
506.422270	10954.581063
506.787625	10839.267189
507.152924	10956.428646
507.518164	10934.950810
507.883347	10853.369817
508.248472	10780.676379
508.613540	11017.464416
508.978550	10895.352546
509.343503	10869.257013
509.708398	10988.797895
510.073236	11102.327200
510.438016	11117.009560
510.802738	11056.924048
511.167403	11113.654672
511.532010	11006.245328
511.896561	11235.703528
512.261053	11313.879221
512.625488	11179.300578
512.989866	11163.569657
513.354186	11151.614561
513.718449	11050.983048
514.082655	11247.469581
514.446803	11137.743826
514.810894	11259.848134
515.174927	11127.590942
515.538904	11150.593727
515.902822	11300.499999
516.266684	11180.742348
516.630488	11136.080245
516.994235	11190.237361
517.357925	11246.983109
517.721558	11340.471308
518.085133	11353.898421
518.448651	11364.152128
518.812112	11242.680485
519.175516	11259.533062
519.538863	11380.782894
519.902152	11301.465380
520.265385	11458.462034
520.628560	11365.949299
520.991678	11346.840805
521.354739	11411.075188
521.717743	11339.647079
522.080690	11322.955818
522.443580	11454.376179
522.806413	11413.313460
523.169189	11446.368306
523.531908	11494.440749
523.894569	11321.856847
524.257174	11323.094450
524.619722	11446.645569
524.982213	11390.479554
525.344647	11442.889910
525.707025	11393.710933
526.069345	11490.322126
526.431608	11404.569579
526.793815	11518.943277
527.155964	11301.304063
527.518057	11360.320851
527.880093	11295.945316
528.242072	11370.549352
528.603995	11275.793304
528.965860	11200.158352
529.327669	11254.012998
529.689421	11199.006448
530.051117	11167.532004
530.412755	11274.038982
530.774337	11166.730461
531.135862	11137.895061
531.497331	11172.021152
531.858743	11018.979283
532.220098	11187.255519
532.581396	11057.735673
532.942638	11041.339321
533.303824	11007.629125
533.664953	11021.159582
534.026025	10931.870665
534.387040	11036.323372
534.747999	11031.854390
535.108902	11094.652043
535.469748	10848.273211
535.830537	10955.775816
536.191270	10930.622979
536.551947	10954.767586
536.912567	10950.873294
537.273131	10879.445185
537.633638	10859.512463
537.994089	10846.536533
538.354483	10801.224122
538.714821	10945.602768
539.075103	10947.959507
539.435328	10914.163612
539.795497	10737.647610
540.155609	10898.115099
540.515665	10983.910496
540.875665	10720.979035
541.235609	10788.331371
541.595496	10790.521752
541.955328	10945.822058
542.315102	10824.980559
542.674821	10777.273600
543.034483	10773.860739
543.394090	10783.638057
543.753640	10715.070803
544.113134	10930.043247
544.472571	10784.192583
544.831953	10919.303068
545.191278	10735.046375
545.550548	10761.091496
545.909761	10891.236444
546.268918	10871.119720
546.628019	10952.791453
546.987064	10823.493419
547.346053	10737.584596
547.704986	10840.454381
548.063863	10830.709831
548.422684	10825.255302
548.781449	10739.414534
549.140158	10838.216109
549.498811	10720.018695
549.857408	10572.506972
550.215949	10797.087855
550.574434	10651.655608
550.932864	10753.449107
551.291237	10812.070164
551.649555	10761.038564
552.007817	10772.963413
552.366022	10735.842877
552.724173	10723.723943
553.082267	10711.902437
553.440305	10844.099135
553.798288	10646.501028
554.156215	10799.268154
554.514086	10778.904413
554.871902	10627.639551
555.229661	10660.255816
555.587365	10642.894082
555.945014	10532.994408
556.302606	10666.708493
556.660143	10554.038705
557.017625	10708.560152
557.375050	10613.335277
557.732421	10741.473846
558.089735	10654.370269
558.446994	10661.213635
558.804197	10695.735457
559.161345	10693.708913
559.518437	10543.502693
559.875474	10635.211364
560.232455	10663.088945
560.589381	10612.914340
560.946251	10605.395459
561.303065	10713.563498
561.659825	10653.054528
562.016528	10578.304299
562.373177	10460.225352
562.729770	10574.921684
563.086307	10495.140384
563.442789	10583.131203
563.799216	10461.213418
564.155587	10512.797025
564.511904	10463.398758
564.868164	10454.775865
565.224370	10469.637186
565.580520	10395.645651
565.936615	10398.319983
566.292654	10271.398853
566.648638	10400.132278
567.004567	10356.165854
567.360441	10345.778557
567.716260	10250.899000
568.072023	10348.893990
568.427732	10293.647985
568.783385	10208.328977
569.138982	10274.247104
569.494525	10291.296287
569.850013	10168.587040
570.205445	10253.822870
570.560823	10145.286827
570.916145	10070.350075
571.271412	10138.428338
571.626625	10074.650180
571.981782	10053.918434
572.336884	10031.397080
572.691931	10032.606957
573.046923	9982.656684
573.401860	9936.124313
573.756743	9880.550633
574.111570	9922.472868
574.466342	9902.106607
574.821059	9930.120299
575.175722	9822.378238
575.530330	9829.448457
575.884882	9824.263630
576.239380	9756.210573
576.593823	9728.532118
576.948211	9746.569367
577.302544	9625.899267
577.656823	9639.313777
578.011047	9641.642791
578.365216	9614.113049
578.719330	9545.626454
579.073389	9552.444614
579.427394	9495.310697
579.781344	9472.139034
580.135239	9427.650851
580.489080	9435.094115
580.842866	9337.255401
581.196597	9336.680709
581.550273	9375.129590
581.903895	9350.531279
582.257463	9410.352132
582.610975	9291.769070
582.964434	9319.371908
583.317837	9240.364424
583.671186	9223.368174
584.024481	9218.402637
584.377721	9133.862487
584.730906	9110.267367
585.084037	9144.443869
585.437113	9080.796781
585.790135	9099.988454
586.143103	8997.587496
586.496016	8976.003796
586.848874	9036.096870
587.201679	9023.496506
587.554428	8904.782374
587.907124	8952.887585
588.259765	8927.258358
588.612352	8927.028986
588.964884	8806.968866
589.317362	8813.792068
589.669786	8818.568561
590.022155	8864.763174
590.374470	8875.672231
590.726731	8815.702665
591.078937	8669.791508
591.431090	8778.844269
591.783188	8657.733068
592.135232	8649.977253
592.487222	8652.316348
592.839157	8702.654790
593.191038	8636.648442
593.542866	8578.607117
593.894639	8478.265471
594.246358	8529.534005
594.598022	8549.625524
594.949633	8440.547558
595.301190	8419.614166
595.652692	8447.900080
596.004141	8556.917553
596.355535	8339.197680
596.706876	8324.903488
597.058162	8251.804237
597.409395	8327.557656
597.760573	8391.315649
598.111698	8301.550343
598.462768	8289.917881
598.813785	8250.463290
599.164748	8218.575471
599.515657	8214.141777
599.866511	8120.343547
600.217312	8242.624296
600.568060	8103.286803
600.918753	8205.027370
601.269392	8177.066611
601.619978	8092.007222
601.970510	8155.361923
602.320988	8150.340933
602.671412	8207.527783
603.021783	8144.762897
603.372100	8116.575285
603.722363	8119.327755
604.072572	8091.515709
604.422728	8099.573994
604.772830	8035.460599
605.122878	8041.709109
605.472872	8031.934312
605.822813	8066.471257
606.172701	8007.482195
606.522534	8081.279646
606.872314	8084.339627
607.222041	8051.430974
607.571714	8107.861651
607.921333	8065.460506
608.270899	8075.106753
608.620411	8165.033376
608.969870	8064.401863
609.319276	8061.215854
609.668627	8076.241013
610.017926	8113.749718
610.367171	8160.037593
610.716362	8141.370200
611.065500	8125.977037
611.414585	8155.654310
611.763616	8139.474726
612.112594	8121.462684
612.461518	8141.405488
612.810389	8196.775002
613.159207	8136.359293
613.507971	8087.036644
613.856682	8206.108698
614.205340	8162.043972
614.553945	8236.723625
614.902496	8141.488667
615.250994	8193.372223
615.599439	8175.138369
615.947830	8186.080194
616.296169	8158.618508
616.644454	8174.780447
616.992686	8174.661980
617.340864	8231.788336
617.688990	8137.959860
618.037063	8221.038075
618.385082	8171.788522
618.733048	8253.979495
619.080961	8190.345010
619.428821	8215.240748
619.776628	8217.093372
620.124382	8165.350969
620.472083	8152.097776
620.819731	8181.344030
621.167326	8075.752021
621.514868	8084.818536
621.862357	7973.119170
622.209793	7988.182138
622.557176	7924.827437
622.904506	7894.353662
623.251783	7833.935433
623.599007	7781.935931
623.946179	7784.867362
624.293297	7744.684325
624.640363	7655.148391
624.987376	7647.488358
625.334336	7589.547856
625.681243	7537.238323
626.028097	7523.675099
626.374899	7505.579877
626.721647	7495.442117
627.068343	7427.225223
627.414987	7397.237919
627.761577	7356.475149
628.108115	7396.247333
628.454600	7288.643904
628.801032	7337.028898
629.147412	7299.283259
629.493739	7289.851260
629.840014	7221.573872
630.186236	7281.936648
630.532405	7162.040366
630.878521	7215.930301
631.224585	7174.494537
631.570597	7098.421004
631.916556	7131.712784
632.262462	7126.611137
632.608316	7087.471618
632.954117	7066.996972
633.299866	7048.584157
633.645562	7041.299690
633.991206	6964.820345
634.336797	6908.109885
634.682336	6865.817125
635.027823	6829.389747
635.373257	6821.671741
635.718639	6752.827223
636.063968	6767.741477
636.409245	6660.909344
636.754470	6657.531771
637.099642	6619.314784
637.444762	6560.837399
637.789829	6573.246200
638.134845	6518.204361
638.479808	6499.068141
638.824719	6500.235168
639.169577	6427.496360
639.514383	6454.779084
639.859137	6377.525922
640.203839	6390.312809
640.548489	6371.194233
