Dividing Wavelength (nm)	Counts (n)	Blue Motor Position (mm): 25.500000	Red Motor Position (mm): 0.000000	
326.493990	2198.306040
326.888308	2198.306040
327.282561	2198.306040
327.676750	2159.716007
328.070874	2157.729793
328.464933	2156.908085
328.858929	2161.866059
329.252859	2165.909065
329.646726	2173.972390
330.040528	2188.301870
330.434265	2197.822089
330.827938	2217.583412
331.221547	2235.298027
331.615091	2252.715213
332.008571	2269.630805
332.401986	2288.310801
332.795338	2305.065076
333.188625	2326.192551
333.581847	2344.262567
333.975006	2362.161184
334.368100	2383.727240
334.761129	2397.812224
335.154095	2416.809812
335.546996	2444.657146
335.939833	2478.241313
336.332606	2492.729589
336.725315	2507.316168
337.117960	2518.857890
337.510540	2531.685106
337.903056	2542.145500
338.295508	2552.285781
338.687896	2560.039075
339.080220	2565.168449
339.472480	2573.609862
339.864676	2578.956005
340.256807	2585.159145
340.648875	2590.086873
341.040879	2590.971595
341.432818	2595.778336
341.824694	2595.846391
342.216506	2597.978799
342.608253	2599.990220
342.999937	2598.326639
343.391557	2598.959304
343.783113	2597.900661
344.174605	2594.538212
344.566033	2597.981320
344.957397	2596.254725
345.348697	2594.669282
345.739934	2594.359251
346.131106	2591.352203
346.522215	2588.617377
346.913260	2584.574371
347.304241	2585.620411
347.695159	2581.085893
348.086012	2582.744432
348.476802	2580.271746
348.867528	2575.462486
349.258191	2572.578946
349.648789	2571.641291
350.039324	2569.317319
350.429796	2571.968966
350.820203	2569.803790
351.210548	2570.648184
351.600828	2569.319840
351.991045	2568.435117
352.381198	2565.838923
352.771288	2564.553429
353.161314	2565.765826
353.551276	2565.344890
353.941175	2563.663665
354.331010	2567.643656
354.720782	2564.583676
355.110490	2567.331104
355.500135	2562.897410
355.889717	2565.448233
356.279235	2564.238357
356.668689	2565.226423
357.058080	2565.256670
357.447408	2564.765157
357.836672	2566.070816
358.225873	2565.135682
358.615010	2564.097204
359.004084	2567.701629
359.393095	2569.861764
359.782043	2565.982596
360.170927	2568.299006
360.559748	2568.228430
360.948505	2568.331773
361.337199	2570.512073
361.725830	2569.680282
362.114398	2568.684654
362.502903	2569.024932
362.891344	2573.375448
363.279722	2569.314798
363.668037	2570.244891
364.056289	2570.068451
364.444478	2572.916703
364.832603	2572.422670
365.220665	2574.119018
365.608665	2577.068093
365.996601	2573.093143
366.384474	2571.288410
366.772284	2577.461303
367.160031	2578.628330
367.547715	2577.524317
367.935336	2576.974832
368.322893	2575.827969
368.710388	2572.150447
369.097820	2573.367886
369.485189	2574.098853
369.872495	2578.056159
370.259738	2577.597414
370.646918	2580.692683
371.034035	2577.713361
371.421090	2576.548854
371.808081	2579.210583
372.195010	2580.596901
372.581875	2580.188567
372.968678	2580.780903
373.355418	2582.467169
373.742096	2580.528845
374.128710	2578.214956
374.515262	2582.739391
374.901751	2581.370718
375.288177	2581.453897
375.674540	2582.739391
376.060841	2582.638568
376.447079	2585.091089
376.833254	2584.914649
377.219367	2583.288877
377.605417	2583.361974
377.991404	2583.843404
378.377329	2582.142014
378.763191	2582.875502
379.148991	2582.734350
379.534727	2586.545462
379.920402	2584.972622
380.306013	2581.564802
380.691563	2585.204515
381.077049	2585.718713
381.462474	2584.002200
381.847835	2587.689804
382.233134	2586.865576
382.618371	2587.841039
383.003545	2589.161821
383.388657	2585.799372
383.773706	2588.524115
384.158693	2588.556883
384.543618	2588.710638
384.928480	2589.174424
385.313280	2589.613004
385.698017	2591.289188
386.082692	2588.209043
386.467305	2592.229363
386.851856	2591.447984
387.236344	2589.300453
387.620770	2585.239803
388.005133	2584.839032
388.389435	2587.790627
388.773674	2586.071594
389.157851	2590.265834
389.541965	2590.180134
389.926018	2593.726586
390.310008	2590.901019
390.693936	2594.850763
391.077802	2593.232553
391.461606	2590.785073
391.845348	2590.449836
392.229027	2591.594178
392.612645	2592.831781
392.996200	2596.317739
393.379694	2594.848243
393.763125	2595.632142
394.146494	2594.956627
394.529801	2593.958479
394.913047	2595.972420
395.296230	2594.896134
395.679351	2595.632142
396.062410	2593.903026
396.445408	2595.372523
396.828343	2597.588110
397.211217	2597.746906
397.594028	2598.828234
397.976778	2598.699684
398.359466	2599.554160
398.742092	2597.338573
399.124656	2601.056424
399.507158	2598.432503
399.889598	2600.363265
400.271977	2600.358224
400.654294	2602.228492
401.036549	2601.542895
401.418742	2601.437031
401.800874	2600.718666
402.182944	2601.051382
402.564952	2599.748244
402.946898	2600.648090
403.328783	2602.215889
403.710606	2602.359562
404.092367	2602.445262
404.474067	2602.871239
404.855705	2602.004161
405.237282	2602.450303
405.618797	2603.133379
406.000250	2604.474326
406.381642	2605.170005
406.762972	2601.263111
407.144240	2600.864860
407.525447	2604.378544
407.906593	2599.407966
408.287677	2605.948863
408.668700	2604.807042
409.049661	2605.575818
409.430560	2606.170674
409.811399	2607.204111
410.192176	2609.081941
410.572891	2605.946343
410.953545	2607.199070
411.334138	2607.909872
411.714669	2607.007506
412.095139	2608.393823
412.475547	2606.591611
412.855894	2606.236209
413.236180	2607.267125
413.616405	2610.102774
413.996568	2608.172012
414.376670	2607.899790
414.756711	2610.392641
415.136691	2608.101436
415.516609	2608.126642
415.896466	2611.408433
416.276262	2610.863988
416.655997	2611.748711
417.035670	2611.569750
417.415283	2611.557147
417.794834	2610.243927
418.174324	2612.938423
418.553753	2611.400871
418.933121	2611.708382
419.312428	2611.766355
419.691674	2613.795419
420.070859	2615.751387
420.449983	2615.038064
420.829045	2614.430605
421.208047	2615.658126
421.586988	2617.359515
421.965867	2618.261882
422.344686	2616.278188
422.723444	2615.065790
423.102141	2615.408589
423.480777	2613.198043
423.859352	2616.131994
424.237866	2616.996552
424.616319	2617.089813
424.994712	2617.314145
425.373044	2617.427571
425.751314	2618.705503
426.129524	2614.717951
426.507673	2613.951695
426.885762	2617.079731
427.263789	2619.098713
427.641756	2618.710544
428.019662	2619.968312
428.397508	2620.149794
428.775292	2620.704321
429.153016	2620.033847
429.530679	2621.654578
429.908282	2620.953858
430.285824	2620.956378
430.663305	2623.083745
431.040726	2623.476955
431.418086	2624.646503
431.795385	2622.877058
432.172624	2623.333282
432.549802	2626.602471
432.926920	2627.701442
433.303977	2630.506844
433.680974	2623.151801
434.057910	2628.303860
434.434786	2626.426030
434.811601	2630.073305
435.188355	2629.211268
435.565050	2629.385188
435.941683	2629.682616
436.318257	2632.041876
436.694770	2632.654376
437.071222	2631.625981
437.447614	2630.665641
437.823946	2635.134624
438.200218	2633.440796
438.576429	2632.969448
438.952580	2632.382154
439.328670	2637.312402
439.704700	2636.967083
440.080670	2635.696712
440.456580	2639.938843
440.832429	2640.818525
441.208218	2640.884060
441.583947	2640.233751
441.959616	2645.060656
442.335224	2642.524955
442.710773	2645.055614
443.086261	2646.338588
443.461689	2649.141470
443.837057	2649.600215
444.212365	2651.372180
444.587612	2650.495019
444.962800	2653.968374
445.337927	2656.867038
445.712995	2655.135402
446.088002	2665.328615
446.462949	2669.422032
446.837837	2674.372445
447.212664	2678.375121
447.587431	2690.206709
447.962139	2696.336752
448.336786	2724.635269
448.711374	2738.460633
449.085901	2732.179356
449.460369	2736.585324
449.834776	2743.227044
450.209124	2766.285282
450.583412	2789.656071
450.957640	2822.186637
451.331808	2827.419355
451.705917	2827.747030
452.079965	2836.831189
452.453954	2876.701675
452.827883	2894.103738
453.201752	2931.645211
453.575562	2946.181378
453.949311	2989.699138
454.323001	3023.293387
454.696632	3071.501942
455.070202	3125.792648
455.443713	3184.214580
455.817164	3258.042278
456.190556	3314.588901
456.563888	3398.410686
456.937160	3472.074547
457.310373	3482.555106
457.683526	3538.090977
458.056619	3570.616502
458.429653	3648.260353
458.802628	3670.325484
459.175542	3780.699027
459.548398	3957.063794
459.921194	4096.653344
460.293930	4200.501113
460.666607	4433.039458
461.039224	4694.604766
461.411782	4938.183238
461.784280	5030.252351
462.156719	5149.740300
462.529099	5180.274569
462.901419	5110.663796
463.273680	5178.058982
463.645882	5256.131331
464.018024	5310.858097
464.390106	5484.457792
464.762130	5785.880983
465.134094	6084.597075
465.505999	6737.577733
465.877845	7813.647309
466.249631	8810.719484
466.621358	8913.775792
466.993026	8690.913943
467.364634	8690.377060
467.736184	8475.981828
468.107674	8389.606698
468.479105	8600.440355
468.850477	8634.805900
469.221790	8655.741812
469.593043	8579.091068
469.964238	8583.459228
470.335373	8608.536448
470.706449	8942.664125
471.077467	8907.451665
471.448425	9818.274739
471.819324	11722.631098
472.190164	12912.628231
472.560945	11629.102571
472.931667	10711.035359
473.302330	10599.260375
473.672934	10503.995170
474.043479	10897.369008
474.413965	10988.840744
474.784393	10982.483849
475.154761	11506.710917
475.525070	11707.343799
475.895321	11673.290805
476.265513	12182.248218
476.635645	12691.550950
477.005719	12791.421249
477.375734	13088.466198
477.745691	13590.386160
478.115588	14044.480696
478.485427	14594.125261
478.855207	15416.579429
479.224928	16703.316304
479.594591	18410.019103
479.964194	18691.280200
480.333739	19192.509524
480.703226	19089.196117
481.072653	19121.824985
481.442022	19718.077539
481.811333	20561.240766
482.180584	20772.530647
482.549777	20274.567991
482.918912	20264.306722
483.287988	20533.252280
483.657005	20495.181486
484.025964	20450.345464
484.394864	20634.468567
484.763706	20599.377095
485.132489	20345.464258
485.501213	20618.036926
485.869879	20759.065726
486.238487	20693.986950
486.607036	21036.742562
486.975527	20893.914070
487.343959	21320.133546
487.712333	21466.188376
488.080648	21288.659102
488.448905	21843.922033
488.817104	21743.794636
489.185244	22435.246859
489.553326	22575.655596
489.921350	23496.699610
490.289315	25612.308042
490.657222	27359.791255
491.025070	27962.478841
491.392861	27916.216172
491.760593	27257.183609
492.128267	26618.224921
492.495883	25770.932988
492.863440	25065.766306
493.230939	24321.097142
493.598380	24258.165898
493.965763	23957.876967
494.333088	23616.870635
494.700354	23608.693884
495.067563	23573.536877
495.434713	23385.600141
495.801805	23571.477565
496.168839	23467.304642
496.535815	23340.398635
496.902733	23587.216048
497.269593	23299.600577
497.636395	23547.668196
498.003139	23572.309356
498.369825	23362.400751
498.736453	23572.218615
499.103023	23497.622141
499.469535	23552.517786
499.835989	23772.332258
500.202385	23826.776720
500.568723	23354.304658
500.935003	23660.980731
501.301226	23254.812445
501.667390	24085.284568
502.033497	24348.132850
502.399546	24108.872127
502.765537	23721.824938
503.131470	24106.492703
503.497345	24263.701085
503.863163	23480.053720
504.228923	24129.492967
504.594625	24311.914681
504.960269	23835.049253
505.325856	24354.116700
505.691385	23767.525518
506.056856	24369.708989
506.422270	24358.646177
506.787625	23969.844666
507.152924	24362.986610
507.518164	24396.290993
507.883347	24209.143198
508.248472	23899.553337
508.613540	24690.714542
508.978550	24463.149296
509.343503	24453.165291
509.708398	24745.564817
510.073236	24890.029162
510.438016	25099.584887
510.802738	24788.152484
511.167403	25043.547421
511.532010	24722.836775
511.896561	25521.524422
512.261053	25485.127292
512.625488	25335.427708
512.989866	25230.065072
513.354186	25091.188845
513.718449	25168.247923
514.082655	25570.209366
514.446803	25305.843696
514.810894	25745.775110
515.174927	25234.586987
515.538904	25277.507371
515.902822	25772.571363
516.266684	25517.862024
516.630488	25430.473622
516.994235	25421.719659
517.357925	25689.798138
517.721558	25901.133389
518.085133	25985.817212
518.448651	25910.157055
518.812112	25627.794466
519.175516	25817.442674
519.538863	25986.439795
519.902152	25762.882266
520.265385	26068.109008
520.628560	25845.516860
520.991678	25864.824479
521.354739	25940.403978
521.717743	26002.064851
522.080690	25785.912777
522.443580	26122.782842
522.806413	26125.676464
523.169189	26214.204167
523.531908	26271.711129
523.894569	25867.040066
524.257174	25942.521262
524.619722	26150.252089
524.982213	25835.774830
525.344647	25911.109833
525.707025	26017.271492
526.069345	26014.377869
526.431608	25961.614633
526.793815	26160.959500
527.155964	25602.407215
527.518057	25784.796162
527.880093	25700.634098
528.242072	25934.049603
528.603995	25639.179912
528.965860	25435.121566
529.327669	25496.106925
529.689421	25476.595139
530.051117	25301.856144
530.412755	25489.334135
530.774337	25300.631143
531.135862	25168.570557
531.497331	25361.130031
531.858743	24909.077162
532.220098	25404.315075
532.581396	25068.440638
532.942638	25034.359918
533.303824	25119.520130
533.664953	25142.724561
534.026025	24794.889987
534.387040	25037.629106
534.747999	25094.833599
535.108902	25254.766726
535.469748	24753.340797
535.830537	24950.870848
536.191270	25065.045421
536.551947	24952.257166
536.912567	24612.904333
537.273131	24922.877321
537.633638	24647.030424
537.994089	24852.568348
538.354483	24408.513271
538.714821	24901.154989
539.075103	24946.424551
539.435328	24729.786005
539.795497	24281.032572
540.155609	24686.505179
540.515665	24983.535005
540.875665	24226.152051
541.235609	24493.237423
541.595496	24475.258148
541.955328	24831.574463
542.315102	24754.835499
542.674821	24314.407531
543.034483	24184.554970
543.394090	24344.046995
543.753640	24135.600325
544.113134	24762.014102
544.472571	24385.621391
544.831953	24664.427446
545.191278	24265.193267
545.550548	24196.772206
545.909761	24416.795886
546.268918	24639.466172
546.628019	24601.007210
546.987064	24305.459483
547.346053	24082.080915
547.704986	24196.550395
548.063863	24350.741648
548.422684	24339.938455
548.781449	23902.628441
549.140158	24296.324912
549.498811	23875.587692
549.857408	23616.323670
550.215949	24056.489497
550.574434	23729.248037
550.932864	23957.259425
551.291237	24083.401697
551.649555	23970.063956
552.007817	24015.542725
552.366022	23886.191759
552.724173	23929.979221
553.082267	23861.984138
553.440305	24344.374670
553.798288	23617.417600
554.156215	24144.407221
554.514086	24217.990423
554.871902	23590.535647
555.229661	23878.882086
555.587365	23748.144802
555.945014	23578.189862
556.302606	23849.610626
556.660143	23784.786429
557.017625	24051.544126
557.375050	23580.803700
557.732421	23972.892043
558.089735	23777.653196
558.446994	23842.041333
558.804197	23859.909703
559.161345	23815.965965
559.518437	23552.054000
559.875474	23770.036012
560.232455	23937.208236
560.589381	23779.483135
560.946251	23732.144180
561.303065	24075.716458
561.659825	24153.287213
562.016528	23755.724177
562.373177	23501.085414
562.729770	23853.749413
563.086307	23730.099992
563.442789	23901.274891
563.799216	23719.148085
564.155587	23739.163986
564.511904	23708.120561
564.868164	23648.546725
565.224370	23633.098109
565.580520	23533.643706
565.936615	23677.684595
566.292654	23334.316483
566.648638	23656.738600
567.004567	23476.366116
567.360441	23426.776285
567.716260	23147.783708
568.072023	23480.537671
568.427732	23240.296443
568.783385	23022.316951
569.138982	23260.072889
569.494525	23299.247696
569.850013	23032.721892
570.205445	23137.771977
570.560823	22943.311987
570.916145	22712.001164
571.271412	22879.596844
571.626625	22640.797386
571.981782	22759.292228
572.336884	22557.628430
572.691931	22695.743443
573.046923	22430.175458
573.401860	22316.550371
573.756743	22307.246922
574.111570	22231.107854
574.466342	22165.509840
574.821059	22251.537130
575.175722	21954.769445
575.530330	21940.775202
575.884882	21967.521043
576.239380	21867.655786
576.593823	21753.181264
576.948211	21737.707442
577.302544	21589.573137
577.656823	21450.603648
578.011047	21540.580683
578.365216	21434.895413
578.719330	21309.887401
579.073389	21209.301258
579.427394	21349.352073
579.781344	21129.194803
580.135239	21015.668018
580.489080	20990.928556
580.842866	20756.880385
581.196597	20934.848240
581.550273	20927.165521
581.903895	20827.287661
582.257463	21121.222218
582.610975	20655.502782
582.964434	20963.776901
583.317837	20679.357522
583.671186	20759.569841
584.024481	20728.012218
584.377721	20505.692292
584.730906	20555.201464
585.084037	20589.178841
585.437113	20505.888897
585.790135	20697.145233
586.143103	20167.377937
586.496016	20172.073772
586.848874	20414.807850
587.201679	20350.286122
587.554428	20012.450676
587.907124	20358.031855
588.259765	20134.935591
588.612352	20206.512414
588.964884	19784.260327
589.317362	19952.839032
589.669786	19991.701287
590.022155	20053.662109
590.374470	20231.582072
590.726731	20030.555980
591.078937	19783.562127
591.431090	19886.245390
591.783188	19632.819024
592.135232	19601.188304
592.487222	19707.659994
592.839157	19732.875846
593.191038	19606.221897
593.542866	19503.014354
593.894639	19221.196210
594.246358	19439.324416
594.598022	19358.860039
594.949633	19099.349001
595.301190	19056.852074
595.652692	19230.592921
596.004141	19474.584767
596.355535	18801.384041
596.706876	18805.411923
597.058162	18709.093117
597.409395	18923.067412
597.760573	19007.708386
598.111698	18792.995561
598.462768	18726.381754
598.813785	18686.846505
599.164748	18514.844856
599.515657	18540.446356
599.866511	18330.643615
600.217312	18698.116004
600.568060	18222.954487
600.918753	18533.623154
601.269392	18428.815045
601.619978	18210.737251
601.970510	18422.574097
602.320988	18365.026805
602.671412	18572.561027
603.021783	18479.297160
603.372100	18211.667343
603.722363	18348.375874
604.072572	18284.822048
604.422728	18428.038708
604.772830	18188.929219
605.122878	18136.846538
605.472872	18133.821846
605.822813	18115.313249
606.172701	18081.852591
606.522534	18283.052602
606.872314	18304.212846
607.222041	18129.231875
607.571714	18350.838478
607.921333	18191.916103
608.270899	18256.175691
608.620411	18447.091749
608.969870	18206.255665
609.319276	18204.919759
609.668627	18242.567096
610.017926	18379.252941
610.367171	18494.954984
610.716362	18539.236479
611.065500	18346.787911
611.414585	18489.732348
611.763616	18475.670050
612.112594	18419.443540
612.461518	18384.251245
612.810389	18576.432633
613.159207	18430.826466
613.507971	18335.997321
613.856682	18622.501217
614.205340	18540.464000
614.553945	18697.717753
614.902496	18426.029808
615.250994	18678.304270
615.599439	18609.973950
615.947830	18599.228731
616.296169	18644.886461
616.644454	18614.513509
616.992686	18579.769877
617.340864	18794.858267
617.688990	18560.268173
618.037063	18731.029698
618.385082	18584.029652
618.733048	18862.132465
619.080961	18731.712774
619.428821	18765.788454
619.776628	18660.705602
620.124382	18576.440195
620.472083	18609.999156
620.819731	18640.951840
621.167326	18340.120985
621.514868	18376.944093
621.862357	18127.391854
622.209793	18150.233322
622.557176	17982.015059
622.904506	17808.818657
623.251783	17711.995736
623.599007	17483.301271
623.946179	17431.589115
624.293297	17375.322276
624.640363	17130.415461
624.987376	17145.294426
625.334336	16941.404959
625.681243	16782.767409
626.028097	16784.186494
626.374899	16718.613685
626.721647	16590.384376
627.068343	16422.214004
627.414987	16354.110536
627.761577	16318.961091
628.108115	16379.034001
628.454600	16094.138232
628.801032	16185.849423
629.147412	16115.326202
629.493739	16136.645241
629.840014	15945.862774
630.186236	16047.767178
630.532405	15807.115097
630.878521	16020.050915
631.224585	15901.682102
631.570597	15729.872017
631.916556	15763.002480
632.262462	15737.222019
632.608316	15657.206305
632.954117	15604.740496
633.299866	15589.934627
633.645562	15522.534400
633.991206	15268.200627
634.336797	15136.626512
634.682336	15107.312202
635.027823	15003.948384
635.373257	14877.531369
635.718639	14779.173416
636.063968	14725.386825
636.409245	14486.652902
636.754470	14504.433052
637.099642	14358.133726
637.444762	14126.742244
