Dividing Wavelength (nm)	Counts (n)	Blue Motor Position (mm): 0.700000	Red Motor Position (mm): 0.000000	
326.493990	2166.660197
326.888308	2166.660197
327.282561	2166.660197
327.676750	2125.214350
328.070874	2123.424741
328.464933	2122.928187
328.858929	2125.718466
329.252859	2129.842130
329.646726	2140.887298
330.040528	2153.333907
330.434265	2163.766574
330.827938	2183.689214
331.221547	2198.956349
331.615091	2217.439739
332.008571	2237.632081
332.401986	2255.160173
332.795338	2272.824376
333.188625	2289.949176
333.581847	2310.393575
333.975006	2327.873776
334.368100	2348.038392
334.761129	2363.182018
335.154095	2379.412012
335.546996	2400.499159
335.939833	2413.442322
336.332606	2429.011925
336.725315	2442.141610
337.117960	2455.324228
337.510540	2468.073306
337.903056	2476.698720
338.295508	2487.519557
338.687896	2495.164467
339.080220	2502.844664
339.472480	2508.979749
339.864676	2514.482168
340.256807	2520.667664
340.648875	2525.580268
341.040879	2528.486493
341.432818	2530.444982
341.824694	2534.777853
342.216506	2535.758358
342.608253	2532.710980
342.999937	2535.876825
343.391557	2535.662576
343.783113	2535.506300
344.174605	2534.180477
344.566033	2533.648635
344.957397	2527.609333
345.348697	2527.949611
345.739934	2529.293078
346.131106	2526.044054
346.522215	2526.202851
346.913260	2522.520288
347.304241	2521.302849
347.695159	2518.109278
348.086012	2516.896881
348.476802	2516.675070
348.867528	2511.732219
349.258191	2510.066117
349.648789	2507.248112
350.039324	2505.909686
350.429796	2506.428925
350.820203	2509.367917
351.210548	2507.754748
351.600828	2503.462206
351.991045	2504.183091
352.381198	2504.160406
352.771288	2502.980776
353.161314	2500.107318
353.551276	2503.152175
353.941175	2502.953049
354.331010	2498.027842
354.720782	2499.870384
355.110490	2500.676968
355.500135	2500.172853
355.889717	2500.878614
356.279235	2498.428614
356.668689	2499.194869
357.058080	2500.810559
357.447408	2499.630929
357.836672	2500.150168
358.225873	2502.116218
358.615010	2500.250991
359.004084	2502.169150
359.393095	2503.575632
359.782043	2504.646877
360.170927	2502.728718
360.559748	2504.372134
360.948505	2505.614778
361.337199	2504.457834
361.725830	2504.558657
362.114398	2507.545540
362.502903	2505.037566
362.891344	2506.897752
363.279722	2505.433297
363.668037	2509.251971
364.056289	2509.211642
364.444478	2511.250788
364.832603	2508.165602
365.220665	2507.480005
365.608665	2512.387569
365.996601	2510.482013
366.384474	2509.120901
366.772284	2510.131652
367.160031	2513.302538
367.547715	2512.543844
367.935336	2513.032836
368.322893	2510.580315
368.710388	2508.972187
369.097820	2511.699451
369.485189	2506.784326
369.872495	2514.582991
370.259738	2511.281035
370.646918	2512.571571
371.034035	2512.526200
371.421090	2514.542662
371.808081	2512.082579
372.195010	2516.559123
372.581875	2516.891840
372.968678	2514.088958
373.355418	2515.341685
373.742096	2514.565347
374.128710	2517.075842
374.515262	2515.608866
374.901751	2516.188599
375.288177	2515.477796
375.674540	2518.603311
376.060841	2515.334123
376.447079	2515.427384
376.833254	2520.400483
377.219367	2519.672036
377.605417	2519.757736
377.991404	2516.619617
378.377329	2520.168590
378.763191	2519.538445
379.148991	2519.130112
379.534727	2519.301511
379.920402	2520.546676
380.306013	2520.007273
380.691563	2520.687828
381.077049	2519.114988
381.462474	2518.489885
381.847835	2519.868641
382.233134	2521.199506
382.618371	2522.842922
383.003545	2522.548014
383.388657	2520.687828
383.773706	2521.736388
384.158693	2519.755215
384.543618	2522.106913
384.928480	2522.900895
385.313280	2521.582633
385.698017	2522.958868
386.082692	2525.421472
386.467305	2521.312932
386.851856	2521.234794
387.236344	2522.323683
387.620770	2523.636903
388.005133	2518.817560
388.389435	2523.157994
388.773674	2517.854700
389.157851	2525.633200
389.541965	2523.228570
389.926018	2524.877027
390.310008	2524.889630
390.693936	2527.062367
391.077802	2525.403828
391.461606	2524.556914
391.845348	2524.027593
392.229027	2528.504138
392.612645	2524.176307
392.996200	2526.114631
393.379694	2524.282171
393.763125	2527.258973
394.146494	2525.804600
394.529801	2528.022707
394.913047	2526.996833
395.296230	2526.530526
395.679351	2526.003725
396.062410	2529.403983
396.445408	2528.650331
396.828343	2528.690660
397.211217	2527.342152
397.594028	2528.647810
397.976778	2530.598737
398.359466	2527.372398
398.742092	2526.840557
399.124656	2529.824920
399.507158	2528.438602
399.889598	2529.625794
400.271977	2528.965403
400.654294	2528.814168
401.036549	2532.698377
401.418742	2530.734848
401.800874	2532.254756
402.182944	2531.518748
402.564952	2528.534384
402.946898	2531.682585
403.328783	2530.876000
403.710606	2533.280631
404.092367	2531.367513
404.474067	2531.937163
404.855705	2531.478418
405.237282	2532.731145
405.618797	2532.907585
406.000250	2534.810621
406.381642	2533.283151
406.762972	2532.030425
407.144240	2531.488501
407.525447	2530.344159
407.906593	2526.926256
408.287677	2534.765251
408.668700	2530.606299
409.049661	2534.800539
409.430560	2533.646114
409.811399	2532.020342
410.192176	2535.773481
410.572891	2532.045548
410.953545	2531.538912
411.334138	2536.650642
411.714669	2533.459592
412.095139	2535.723070
412.475547	2535.894469
412.855894	2533.883049
413.236180	2536.428831
413.616405	2533.716691
413.996568	2535.032432
414.376670	2534.379602
414.756711	2536.020498
415.136691	2536.103677
415.516609	2536.995961
415.896466	2537.086702
416.276262	2537.109387
416.655997	2533.724252
417.035670	2537.726928
417.415283	2534.833306
417.794834	2539.254398
418.174324	2539.574511
418.553753	2534.596372
418.933121	2539.272042
419.312428	2536.267514
419.691674	2537.530323
420.070859	2536.842206
420.449983	2538.372196
420.829045	2537.006043
421.208047	2539.798843
421.586988	2540.040818
421.965867	2540.217258
422.344686	2539.430838
422.723444	2540.043339
423.102141	2538.336908
423.480777	2540.325643
423.859352	2538.921682
424.237866	2536.106197
424.616319	2538.530993
424.994712	2540.701209
425.373044	2540.998637
425.751314	2537.260622
426.129524	2535.866743
426.507673	2538.883873
426.885762	2536.864891
427.263789	2542.478216
427.641756	2540.071065
428.019662	2544.966025
428.397508	2537.121990
428.775292	2539.705581
429.153016	2542.011909
429.530679	2538.072247
429.908282	2539.153575
430.285824	2539.269522
430.663305	2541.134748
431.040726	2540.088709
431.418086	2539.708102
431.795385	2542.115253
432.172624	2540.789429
432.549802	2543.451159
432.926920	2540.313040
433.303977	2542.122815
433.680974	2540.754141
434.057910	2543.453679
434.434786	2542.889070
434.811601	2540.920499
435.188355	2542.871426
435.565050	2543.022661
435.941683	2542.009389
436.318257	2545.858310
436.694770	2541.757331
437.071222	2544.535007
437.447614	2543.589790
437.823946	2543.688093
438.200218	2541.495191
438.576429	2541.845551
438.952580	2545.543238
439.328670	2543.728422
439.704700	2543.932589
440.080670	2544.212373
440.456580	2543.287321
440.832429	2544.343443
441.208218	2543.879657
441.583947	2546.238917
441.959616	2545.117260
442.335224	2544.073741
442.710773	2545.046684
443.086261	2546.014585
443.461689	2545.276056
443.837057	2541.984183
444.212365	2545.061807
444.587612	2543.148689
444.962800	2541.220448
445.337927	2539.990407
445.712995	2538.291538
446.088002	2545.838145
446.462949	2547.869730
446.837837	2546.705223
447.212664	2544.471992
447.587431	2547.426108
447.962139	2544.048535
448.336786	2546.659853
448.711374	2544.373690
449.085901	2548.583053
449.460369	2546.100285
449.834776	2545.512991
450.209124	2546.551468
450.583412	2547.781510
450.957640	2546.364946
451.331808	2547.905018
451.705917	2548.018444
452.079965	2546.203629
452.453954	2547.899977
452.827883	2545.737322
453.201752	2546.536345
453.575562	2547.169010
453.949311	2546.541386
454.323001	2547.224462
454.696632	2548.827549
455.070202	2546.841335
455.443713	2548.429298
455.817164	2546.811088
456.190556	2544.950902
456.563888	2546.604400
456.937160	2546.480892
457.310373	2547.670604
457.683526	2544.618186
458.056619	2545.202960
458.429653	2549.598846
458.802628	2548.315872
459.175542	2547.537014
459.548398	2545.311344
459.921194	2549.195553
460.293930	2548.600697
460.666607	2549.074566
461.039224	2547.786551
461.411782	2547.894936
461.784280	2548.877961
462.156719	2548.557848
462.529099	2549.026675
462.901419	2549.301418
463.273680	2545.563402
463.645882	2546.049873
464.018024	2546.201108
464.390106	2544.431663
464.762130	2547.194215
465.134094	2548.371325
465.505999	2547.090872
465.877845	2547.663043
466.249631	2550.539021
466.621358	2549.308979
466.993026	2547.504246
467.364634	2553.868703
467.736184	2551.975750
468.107674	2550.292004
468.479105	2547.199257
468.850477	2548.976263
469.221790	2549.666901
469.593043	2553.072201
469.964238	2551.821995
470.335373	2550.526418
470.706449	2548.578012
471.077467	2550.410472
471.448425	2552.336192
471.819324	2552.706717
472.190164	2550.995245
472.560945	2549.752601
472.931667	2548.973743
473.302330	2552.283260
473.672934	2549.102292
474.043479	2550.944834
474.413965	2550.304607
474.784393	2550.723023
475.154761	2549.213198
475.525070	2553.306614
475.895321	2548.888043
476.265513	2550.344937
476.635645	2549.029195
477.005719	2551.650595
477.375734	2549.427447
477.745691	2551.327962
478.115588	2550.503733
478.485427	2552.621017
478.855207	2552.207643
479.224928	2552.875596
479.594591	2553.107489
479.964194	2549.341747
480.333739	2551.529608
480.703226	2551.607746
481.072653	2551.063301
481.442022	2552.348795
481.811333	2548.711603
482.180584	2546.649771
482.549777	2549.067004
482.918912	2546.359904
483.287988	2549.772766
483.657005	2552.066491
484.025964	2553.006666
484.394864	2550.952396
484.763706	2553.362067
485.132489	2549.684545
485.501213	2553.813250
485.869879	2552.789896
486.238487	2553.145298
486.607036	2552.379042
486.975527	2553.866183
487.343959	2554.037582
487.712333	2552.414330
488.080648	2550.407951
488.448905	2553.551110
488.817104	2553.210832
489.185244	2552.535318
489.553326	2549.132539
489.921350	2554.617314
490.289315	2553.457849
490.657222	2554.387942
491.025070	2554.541697
491.392861	2554.556821
491.760593	2552.547921
492.128267	2554.335010
492.495883	2550.113043
492.863440	2551.832077
493.230939	2551.428785
493.598380	2553.967006
493.965763	2554.803837
494.333088	2551.879968
494.700354	2554.713096
495.067563	2552.918446
495.434713	2552.144628
495.801805	2555.018086
496.168839	2552.447098
496.535815	2553.987170
496.902733	2554.907181
497.269593	2554.004814
497.636395	2552.384083
498.003139	2552.437015
498.369825	2553.692263
498.736453	2556.679146
499.103023	2554.287119
499.469535	2553.414999
499.835989	2555.265103
500.202385	2551.655637
500.568723	2552.615976
500.935003	2551.932900
501.301226	2549.651778
501.667390	2556.548076
502.033497	2555.701163
502.399546	2553.619166
502.765537	2556.842984
503.131470	2552.678991
503.497345	2555.439022
503.863163	2554.259392
504.228923	2554.274516
504.594625	2553.185627
504.960269	2556.157387
505.325856	2554.261913
505.691385	2556.222922
506.056856	2554.876934
506.422270	2551.993394
506.787625	2553.409958
507.152924	2554.735782
507.518164	2553.914073
507.883347	2553.911553
508.248472	2555.718807
508.613540	2554.335010
508.978550	2555.885165
509.343503	2554.289639
509.708398	2555.068498
510.073236	2554.173693
510.438016	2554.277037
510.802738	2552.187478
511.167403	2554.965154
511.532010	2555.128992
511.896561	2555.801986
512.261053	2556.316183
512.625488	2553.001625
512.989866	2555.197047
513.354186	2554.950031
513.718449	2555.156718
514.082655	2552.618497
514.446803	2554.140925
514.810894	2554.776111
515.174927	2556.777449
515.538904	2556.474980
515.902822	2555.938097
516.266684	2556.701832
516.630488	2556.331307
516.994235	2555.141594
517.357925	2554.491286
517.721558	2556.079249
518.085133	2553.336861
518.448651	2552.994063
518.812112	2555.035730
519.175516	2552.961295
519.538863	2550.193702
519.902152	2553.883827
520.265385	2556.268292
520.628560	2554.196378
520.991678	2553.445246
521.354739	2554.665205
521.717743	2553.977088
522.080690	2555.857438
522.443580	2556.104455
522.806413	2557.727706
523.169189	2557.069836
523.531908	2554.680329
523.894569	2554.450956
524.257174	2556.459856
524.619722	2553.805689
524.982213	2556.898437
525.344647	2555.716286
525.707025	2556.777449
526.069345	2556.359033
526.431608	2555.043292
526.793815	2555.547407
527.155964	2557.500854
527.518057	2557.702501
527.880093	2554.829043
528.242072	2556.767367
528.603995	2555.658313
528.965860	2558.602347
529.327669	2557.190823
529.689421	2556.472459
530.051117	2556.487582
530.412755	2558.251986
530.774337	2553.485575
531.135862	2555.852397
531.497331	2555.071018
531.858743	2556.011193
532.220098	2554.967675
532.581396	2557.596636
532.942638	2556.900957
533.303824	2557.899106
533.664953	2556.195196
534.026025	2554.448436
534.387040	2556.230484
534.747999	2554.947510
535.108902	2555.544887
535.469748	2554.904660
535.830537	2557.631924
536.191270	2554.939948
536.551947	2556.049002
536.912567	2553.160421
537.273131	2553.868703
537.633638	2552.762170
537.994089	2555.852397
538.354483	2555.181924
538.714821	2556.185113
539.075103	2555.991029
539.435328	2554.952551
539.795497	2555.849877
540.155609	2558.065464
540.515665	2556.757284
540.875665	2555.852397
541.235609	2559.350958
541.595496	2556.727037
541.955328	2559.174517
542.315102	2557.866338
542.674821	2557.727706
543.034483	2559.078736
543.394090	2558.133519
543.753640	2555.060936
544.113134	2555.098745
544.472571	2559.691236
544.831953	2558.108313
545.191278	2557.833571
545.550548	2556.696790
545.909761	2555.849877
546.268918	2557.117727
546.628019	2558.067984
546.987064	2557.853735
547.346053	2556.769887
547.704986	2558.589744
548.063863	2557.944476
548.422684	2554.216543
548.781449	2559.517316
549.140158	2556.409445
549.498811	2556.863148
549.857408	2558.017573
550.215949	2558.665361
550.574434	2556.714434
550.932864	2559.908005
551.291237	2558.380536
551.649555	2557.342058
552.007817	2560.046637
552.366022	2555.633107
552.724173	2556.079249
553.082267	2557.218550
553.440305	2555.890206
553.798288	2558.279713
554.156215	2556.409445
554.514086	2554.261913
554.871902	2553.684701
555.229661	2555.708724
555.587365	2552.258054
555.945014	2560.129816
556.302606	2556.704352
556.660143	2555.466749
557.017625	2558.685526
557.375050	2559.645865
557.732421	2558.468756
558.089735	2556.432130
558.446994	2558.362892
558.804197	2559.343396
559.161345	2557.989846
559.518437	2556.865669
559.875474	2558.292316
560.232455	2557.815927
560.589381	2556.346430
560.946251	2557.200906
561.303065	2557.775597
561.659825	2557.722665
562.016528	2554.849208
562.373177	2557.659651
562.729770	2556.744681
563.086307	2558.884651
563.442789	2560.480176
563.799216	2559.623180
564.155587	2556.860628
564.511904	2560.389436
564.868164	2555.832232
565.224370	2555.484393
565.580520	2558.277192
565.936615	2555.648230
566.292654	2558.166287
566.648638	2559.068653
567.004567	2557.226112
567.360441	2556.631255
567.716260	2558.171328
568.072023	2559.532439
568.427732	2558.294836
568.783385	2558.115875
569.138982	2558.708211
569.494525	2557.861297
569.850013	2558.458674
570.205445	2557.573951
570.560823	2557.946997
570.916145	2558.004970
571.271412	2558.514126
571.626625	2561.259035
571.981782	2556.840463
572.336884	2557.679815
572.691931	2553.052036
573.046923	2555.113868
573.401860	2553.924156
573.756743	2554.304763
574.111570	2557.639486
574.466342	2557.533622
574.821059	2555.260062
575.175722	2556.926163
575.530330	2557.130330
575.884882	2556.618652
576.239380	2557.074877
576.593823	2563.088973
576.948211	2557.626883
577.302544	2561.223747
577.656823	2556.540515
578.011047	2555.335679
578.365216	2556.716955
578.719330	2557.614280
579.073389	2558.614949
579.427394	2555.779300
579.781344	2558.738458
580.135239	2558.781307
580.489080	2558.224260
580.842866	2559.577810
581.196597	2559.560166
581.550273	2558.781307
581.903895	2559.504713
582.257463	2556.515309
582.610975	2559.608057
582.964434	2559.340876
583.317837	2556.348951
583.671186	2560.681823
584.024481	2559.547563
584.377721	2558.859445
584.730906	2559.177038
585.084037	2559.918088
585.437113	2557.810885
585.790135	2558.120916
586.143103	2558.501523
586.496016	2560.281051
586.848874	2558.393139
587.201679	2560.190310
587.554428	2557.382387
587.907124	2559.474466
588.259765	2559.988664
588.612352	2557.934394
588.964884	2558.836760
589.317362	2560.772563
589.669786	2557.425237
590.022155	2555.199568
590.374470	2552.552962
590.726731	2556.275854
591.078937	2553.853580
591.431090	2557.710062
591.783188	2558.501523
592.135232	2560.744837
592.487222	2558.040258
592.839157	2559.108982
593.191038	2560.210475
593.542866	2558.519168
593.894639	2560.351627
594.246358	2560.013870
594.598022	2559.207285
594.949633	2561.102759
595.301190	2556.646379
595.652692	2559.734086
596.004141	2556.742161
596.355535	2561.095197
596.706876	2560.772563
597.058162	2556.608570
597.409395	2558.541853
597.760573	2559.330793
598.111698	2555.242418
598.462768	2558.662840
598.813785	2557.987326
599.164748	2560.593602
599.515657	2557.314332
599.866511	2560.028993
600.217312	2556.840463
600.568060	2559.265258
600.918753	2562.675599
601.269392	2560.124775
601.619978	2555.489434
601.970510	2556.676626
602.320988	2559.406411
602.671412	2560.371792
603.021783	2556.883313
603.372100	2556.805175
603.722363	2561.158212
604.072572	2555.348282
604.422728	2556.822819
604.772830	2557.682336
605.122878	2558.872048
605.472872	2560.684343
605.822813	2560.729713
606.172701	2560.502862
606.522534	2559.829868
606.872314	2559.391287
607.222041	2560.233160
607.571714	2556.878272
607.921333	2558.050340
608.270899	2558.279713
608.620411	2556.308622
608.969870	2561.488407
609.319276	2561.571586
609.668627	2566.451423
610.017926	2568.893862
610.367171	2574.171950
610.716362	2571.149778
611.065500	2570.938050
611.414585	2566.330435
611.763616	2566.988306
612.112594	2563.741803
612.461518	2563.434293
612.810389	2562.559652
613.159207	2562.564693
613.507971	2560.828016
613.856682	2561.130485
614.205340	2563.857749
614.553945	2560.404559
614.902496	2565.445713
615.250994	2561.387584
615.599439	2558.078067
615.947830	2559.214847
616.296169	2561.964796
616.644454	2559.116544
616.992686	2559.091338
617.340864	2559.857594
617.688990	2560.059240
618.037063	2558.332645
618.385082	2556.404403
618.733048	2560.696946
619.080961	2559.940773
619.428821	2559.124106
619.776628	2557.142932
620.124382	2556.956410
620.472083	2560.016390
620.819731	2558.196534
621.167326	2556.369115
621.514868	2560.666699
621.862357	2558.428427
622.209793	2558.032696
622.557176	2559.514795
622.904506	2559.686195
623.251783	2557.974723
623.599007	2560.210475
623.946179	2557.057233
624.293297	2561.208623
624.640363	2558.695608
624.987376	2555.466749
625.334336	2552.805020
625.681243	2557.490772
626.028097	2553.026830
626.374899	2558.771225
626.721647	2557.750392
627.068343	2557.601678
627.414987	2558.622511
627.761577	2559.504713
628.108115	2559.671071
628.454600	2559.449260
628.801032	2562.335321
629.147412	2558.743499
629.493739	2557.750392
629.840014	2559.701318
630.186236	2560.273489
630.532405	2560.344065
630.878521	2559.194682
631.224585	2557.967161
631.570597	2560.298695
631.916556	2555.887685
632.262462	2558.297357
632.608316	2560.974209
632.954117	2556.611091
633.299866	2558.435988
633.645562	2558.022614
633.991206	2559.774415
634.336797	2556.754764
634.682336	2558.403221
635.027823	2557.858776
635.373257	2558.995557
635.718639	2557.596636
636.063968	2557.967161
636.409245	2556.028838
636.754470	2558.642676
637.099642	2559.086297
637.444762	2560.202913
637.789829	2557.314332
638.134845	2556.729558
638.479808	2558.004970
638.824719	2558.216698
639.169577	2558.108313
639.514383	2555.799465
639.859137	2557.894064
640.203839	2556.762325
640.548489	2555.227294
640.893086	2557.430278
641.237632	2556.986657
641.582125	2559.577810
641.926566	2558.554456
642.270955	2555.610422
642.615292	2551.030533
642.959576	2553.351985
643.303809	2551.080945
643.647990	2558.125958
643.992118	2558.867007
644.336195	2556.159908
