Dividing Wavelength (nm)	Counts (n)	Blue Motor Position (mm): 44.500000	Red Motor Position (mm): 0.000000	
326.493990	2129.975720
326.888308	2129.975720
327.282561	2129.975720
327.676750	2094.932139
328.070874	2096.212592
328.464933	2097.629157
328.858929	2105.037132
329.252859	2111.842690
329.646726	2123.737292
330.040528	2139.594242
330.434265	2156.837508
330.827938	2171.454334
331.221547	2190.935873
331.615091	2210.092258
332.008571	2229.407439
332.401986	2246.922928
332.795338	2268.040321
333.188625	2286.740481
333.581847	2305.236475
333.975006	2323.556028
334.368100	2344.834738
334.761129	2365.001874
335.154095	2375.298431
335.546996	2399.637122
335.939833	2425.220977
336.332606	2440.858637
336.725315	2453.501851
337.117960	2462.389405
337.510540	2469.028604
337.903056	2479.615028
338.295508	2488.953765
338.687896	2495.693788
339.080220	2505.768534
339.472480	2511.349091
339.864676	2515.760101
340.256807	2520.642458
340.648875	2524.866945
341.040879	2526.127233
341.432818	2527.432892
341.824694	2530.719725
342.216506	2530.137471
342.608253	2531.286854
342.999937	2531.561597
343.391557	2526.457429
343.783113	2528.178983
344.174605	2528.370547
344.566033	2525.827285
344.957397	2524.781245
345.348697	2521.176820
345.739934	2521.897705
346.131106	2518.147087
346.522215	2517.058198
346.913260	2512.458145
347.304241	2515.104751
347.695159	2510.807167
348.086012	2509.176354
348.476802	2507.986641
348.867528	2507.109481
349.258191	2504.568739
349.648789	2506.348266
350.039324	2500.573625
350.429796	2504.656959
350.820203	2502.058244
351.210548	2499.754437
351.600828	2498.557163
351.991045	2498.587410
352.381198	2498.690754
352.771288	2496.540702
353.161314	2495.315701
353.551276	2498.799138
353.941175	2494.105824
354.331010	2495.872749
354.720782	2496.233191
355.110490	2497.871566
355.500135	2494.083139
355.889717	2498.579848
356.279235	2497.256545
356.668689	2496.455002
357.058080	2498.602533
357.447408	2496.059271
357.836672	2496.823006
358.225873	2495.310660
358.615010	2495.736638
359.004084	2500.087153
359.393095	2498.562204
359.782043	2503.943636
360.170927	2499.333501
360.559748	2502.955570
360.948505	2502.338028
361.337199	2506.880108
361.725830	2506.592762
362.114398	2507.396826
362.502903	2505.695437
362.891344	2506.499501
363.279722	2509.425891
363.668037	2508.100067
364.056289	2507.167454
364.444478	2509.851868
364.832603	2506.592762
365.220665	2510.739111
365.608665	2509.211642
365.996601	2512.664832
366.384474	2510.398833
366.772284	2510.988648
367.160031	2513.736077
367.547715	2511.772548
367.935336	2512.979904
368.322893	2514.139370
368.710388	2512.679956
369.097820	2517.156500
369.485189	2516.652385
369.872495	2516.100378
370.259738	2515.250944
370.646918	2516.556603
371.034035	2515.495440
371.421090	2518.290760
371.808081	2517.005266
372.195010	2516.745646
372.581875	2517.499299
372.968678	2517.111130
373.355418	2518.394103
373.742096	2521.295287
374.128710	2521.902747
374.515262	2522.742099
374.901751	2519.077180
375.288177	2523.341996
375.674540	2525.660927
376.060841	2529.986237
376.447079	2532.388347
376.833254	2535.932278
377.219367	2535.927237
377.605417	2544.167002
377.991404	2548.270502
378.377329	2558.120916
378.763191	2564.429920
379.148991	2581.000193
379.534727	2590.759867
379.920402	2605.883328
380.306013	2615.012858
380.691563	2635.152268
381.077049	2649.403610
381.462474	2663.796104
381.847835	2687.499609
382.233134	2708.586756
382.618371	2718.414485
383.003545	2756.449991
383.388657	2771.127310
383.773706	2799.430869
384.158693	2821.009528
384.543618	2847.793178
384.928480	2881.470606
385.313280	2920.448808
385.698017	2936.449430
386.082692	2983.967346
386.467305	3010.478774
386.851856	3045.933209
387.236344	3078.383117
387.620770	3117.714199
388.005133	3158.189623
388.389435	3197.034234
388.773674	3226.348544
389.157851	3276.634053
389.541965	3308.695792
389.926018	3301.829740
390.310008	3375.828838
390.693936	3409.846544
391.077802	3463.214719
391.461606	3476.699806
391.845348	3545.962739
392.229027	3564.831778
392.612645	3592.595932
392.996200	3673.912265
393.379694	3725.352198
393.763125	3795.492293
394.146494	3785.702372
394.529801	3856.039071
394.913047	3919.451745
395.296230	3900.612953
395.679351	3961.051347
396.062410	3997.619877
396.445408	3991.898167
396.828343	4036.530022
397.211217	4068.485897
397.594028	4000.319414
397.976778	4070.015887
398.359466	4107.597689
398.742092	4137.259838
399.124656	4068.589240
399.507158	4150.878515
399.889598	4178.388092
400.271977	4245.009460
400.654294	4217.915779
401.036549	4229.754929
401.418742	4202.164694
401.800874	4301.046927
402.182944	4327.981812
402.564952	4393.499167
402.946898	4381.256725
403.328783	4381.546592
403.710606	4296.769508
404.092367	4483.773630
404.474067	4450.002940
404.855705	4455.603662
405.237282	4391.220566
405.618797	4501.485724
406.000250	4532.544273
406.381642	4612.179380
406.762972	4580.102518
407.144240	4587.916307
407.525447	4587.329012
407.906593	4641.856653
408.287677	4685.387016
408.668700	4615.564515
409.049661	4671.949821
409.430560	4711.152354
409.811399	4636.661744
410.192176	4798.394562
410.572891	4739.561776
410.953545	4842.746634
411.334138	4719.014033
411.714669	4786.744456
412.095139	4685.717212
412.475547	4827.000590
412.855894	4808.723886
413.236180	4818.201256
413.616405	4770.300212
413.996568	4859.039643
414.376670	4799.816167
414.756711	4757.508284
415.136691	4786.615906
415.516609	4863.982494
415.896466	4901.173607
416.276262	4937.527888
416.655997	4911.576028
417.035670	5097.972691
417.415283	5187.753121
417.794834	5128.451507
418.174324	5083.675979
418.553753	4992.635261
418.933121	5178.406821
419.312428	5242.903344
419.691674	5183.508469
420.070859	5310.464887
420.449983	5223.353749
420.829045	5334.750646
421.208047	5246.101956
421.586988	5319.110466
421.965867	5327.413247
422.344686	5460.275377
422.723444	5318.765147
423.102141	5136.192199
423.480777	5430.983753
423.859352	5199.055387
424.237866	5458.624399
424.616319	5453.172391
424.994712	5562.051232
425.373044	5437.880051
425.751314	5579.929684
426.129524	5385.000868
426.507673	5577.315846
426.885762	5661.215769
427.263789	5592.895532
427.641756	5472.890864
428.019662	5596.179843
428.397508	5603.439105
428.775292	5550.179315
429.153016	5648.111290
429.530679	5577.101597
429.908282	5661.533362
430.285824	5530.208784
430.663305	5806.557276
431.040726	5540.956524
431.418086	5541.110279
431.795385	5648.141537
432.172624	5657.724770
432.549802	5653.190252
432.926920	5668.452346
433.303977	5675.419220
433.680974	5713.709304
434.057910	5727.307817
434.434786	5738.375670
434.811601	5707.838881
435.188355	5937.312204
435.565050	5808.924098
435.941683	5797.072345
436.318257	6007.497668
436.694770	5991.565101
437.071222	6027.427870
437.447614	5957.784329
437.823946	5869.785948
438.200218	6028.070617
438.576429	5894.706892
438.952580	5989.725080
439.328670	6035.488675
439.704700	5944.682371
440.080670	5926.342653
440.456580	6198.002872
440.832429	6081.542136
441.208218	5926.945071
441.583947	6086.991623
441.959616	6089.471871
442.335224	6019.097363
442.710773	6154.041490
443.086261	6175.920098
443.461689	5971.700435
443.837057	6121.964628
444.212365	6276.418020
444.587612	6169.895919
444.962800	6324.172870
445.337927	6306.780890
445.712995	5913.780097
446.088002	6490.712429
446.462949	6319.396377
446.837837	6252.228043
447.212664	6428.146668
447.587431	6565.732360
447.962139	7112.561441
448.336786	8034.742235
448.711374	7774.182636
449.085901	6850.214754
449.460369	6773.932014
449.834776	6705.712599
450.209124	7098.610048
450.583412	7251.835919
450.957640	7393.867908
451.331808	7153.586351
451.705917	6707.295522
452.079965	6632.726774
452.453954	6844.674526
452.827883	6722.103911
453.201752	6812.925339
453.575562	6614.245904
453.949311	6819.748540
454.323001	6710.990687
454.696632	6778.973168
455.070202	6921.952893
455.443713	7076.287818
455.817164	7178.124167
456.190556	7257.920592
456.563888	7331.980183
456.937160	7369.153651
457.310373	7028.638832
457.683526	7058.464819
458.056619	6943.355112
458.429653	6933.247599
458.802628	6869.265274
459.175542	6978.118909
459.548398	7329.835172
459.921194	7493.952456
460.293930	7501.244485
460.666607	8031.238633
461.039224	8339.981579
461.411782	8460.404663
461.784280	8476.909400
462.156719	8362.717183
462.529099	8243.246878
462.901419	7839.026998
463.273680	7725.492652
463.645882	7744.417143
464.018024	7608.081658
464.390106	7775.193388
464.762130	8166.654107
465.134094	8636.212382
465.505999	9657.419082
465.877845	10875.445030
466.249631	11520.556446
466.621358	11136.924639
466.993026	10506.092290
467.364634	10253.989228
467.736184	9895.492613
468.107674	9555.413854
468.479105	9591.385007
468.850477	9354.291980
469.221790	9129.471642
469.593043	8796.435375
469.964238	8657.962441
470.335373	8665.269593
470.706449	8726.786793
471.077467	8716.371770
471.448425	10026.892809
471.819324	11098.732857
472.190164	11117.916968
472.560945	9867.927584
472.931667	9085.243079
473.302330	8948.393396
473.672934	8591.220084
474.043479	8957.336403
474.413965	8896.333400
474.784393	8771.665666
475.154761	8930.300695
475.525070	9021.374180
475.895321	8846.587294
476.265513	9019.675311
476.635645	9189.756280
477.005719	9196.488741
477.375734	9306.010329
477.745691	9541.442296
478.115588	9678.354993
478.485427	9919.763248
478.855207	10458.221493
479.224928	11274.149888
479.594591	11896.767676
479.964194	11715.754964
480.333739	11650.071250
480.703226	11566.425905
481.072653	11658.815132
481.442022	11890.194011
481.811333	12080.328690
482.180584	11886.327446
482.549777	11594.613517
482.918912	11430.344998
483.287988	11441.488469
483.657005	11454.020777
484.025964	11140.471090
484.394864	11260.082548
484.763706	11226.682383
485.132489	10988.818059
485.501213	10955.100302
485.869879	11038.175997
486.238487	10876.705318
486.607036	10992.258647
486.975527	10771.509040
487.343959	10959.924686
487.712333	11007.707263
488.080648	10936.745461
488.448905	10978.284568
488.817104	10919.547564
489.185244	11185.327277
489.553326	11344.675630
489.921350	11878.246476
490.289315	12939.679063
490.657222	13281.255044
491.025070	13190.080736
491.392861	13063.356211
491.760593	12680.155422
492.128267	12331.925117
492.495883	12005.654078
492.863440	11668.055567
493.230939	11335.553662
493.598380	11267.203177
493.965763	11131.354164
494.333088	11031.781293
494.700354	10958.445107
495.067563	11008.680205
495.434713	10841.490338
495.801805	10976.096707
496.168839	10898.357074
496.535815	10839.988074
496.902733	10836.297950
497.269593	10769.202713
497.636395	10861.801147
498.003139	10855.285456
498.369825	10720.109436
498.736453	10883.548685
499.103023	10810.209978
499.469535	10835.503968
499.835989	10825.880405
500.202385	10791.386310
500.568723	10643.062961
500.935003	10862.852228
501.301226	10673.325007
501.667390	10923.325909
502.033497	11026.314162
502.399546	10876.881759
502.765537	10788.928748
503.131470	10856.263439
503.497345	11035.557117
503.863163	10644.691254
504.228923	10957.348656
504.594625	11016.741010
504.960269	10770.861252
505.325856	10989.614562
505.691385	10784.701740
506.056856	10935.404514
506.422270	10965.318721
506.787625	10855.897956
507.152924	10965.570778
507.518164	10956.012751
507.883347	10874.245235
508.248472	10788.200301
508.613540	11020.491629
508.978550	10909.268652
509.343503	10886.883408
509.708398	11005.342962
510.073236	11116.260949
510.438016	11124.016764
510.802738	11069.491644
511.167403	11124.321754
511.532010	11015.642039
511.896561	11250.766495
512.261053	11325.657877
512.625488	11195.724657
512.989866	11171.822026
513.354186	11167.206850
513.718449	11061.309852
514.082655	11259.507856
514.446803	11155.808801
514.810894	11278.286154
515.174927	11143.127778
515.538904	11167.950420
515.902822	11318.123872
516.266684	11201.088445
516.630488	11145.958386
516.994235	11203.624145
517.357925	11257.766137
517.721558	11346.513130
518.085133	11367.441481
518.448651	11375.073788
518.812112	11262.683783
519.175516	11271.873807
519.538863	11387.265818
519.902152	11304.212808
520.265385	11470.175155
520.628560	11377.725434
520.991678	11353.923627
521.354739	11418.795715
521.717743	11356.658452
522.080690	11341.018273
522.443580	11468.468724
522.806413	11422.327043
523.169189	11461.446397
523.531908	11514.527226
523.894569	11339.261431
524.257174	11335.621718
524.619722	11452.939450
524.982213	11416.630539
525.344647	11455.926333
525.707025	11409.177193
526.069345	11504.144970
526.431608	11422.634553
526.793815	11531.432736
527.155964	11316.490539
527.518057	11376.349199
527.880093	11314.068264
528.242072	11388.453010
528.603995	11297.485389
528.965860	11216.819365
529.327669	11255.974007
529.689421	11212.378109
530.051117	11180.649087
530.412755	11294.062445
530.774337	11180.772595
531.135862	11152.469037
531.497331	11176.840495
531.858743	11032.229956
532.220098	11200.135667
532.581396	11069.133722
532.942638	11056.553523
533.303824	11018.548264
533.664953	11028.769203
534.026025	10945.827099
534.387040	11040.832685
534.747999	11048.805269
535.108902	11104.842736
535.469748	10864.001611
535.830537	10968.492127
536.191270	10944.975144
536.551947	10967.448608
536.912567	10970.306942
537.273131	10898.841025
537.633638	10872.758095
537.994089	10864.604028
538.354483	10813.262397
538.714821	10962.268823
539.075103	10962.251178
539.435328	10932.936869
539.795497	10756.970353
540.155609	10913.898951
540.515665	11002.109061
540.875665	10737.466128
541.235609	10800.581375
541.595496	10804.503392
541.955328	10955.982504
542.315102	10836.799544
542.674821	10780.459609
543.034483	10792.190374
543.394090	10795.583071
543.753640	10718.342511
544.113134	10947.543612
544.472571	10793.324634
544.831953	10936.843763
545.191278	10745.811759
545.550548	10776.940884
545.909761	10912.434496
546.268918	10884.239323
546.628019	10974.344907
546.987064	10831.402989
547.346053	10759.145611
547.704986	10851.968376
548.063863	10842.238949
548.422684	10833.588329
548.781449	10755.871381
549.140158	10853.642039
549.498811	10731.192412
549.857408	10591.930538
550.215949	10818.348921
550.574434	10668.258648
550.932864	10768.171797
551.291237	10822.036525
551.649555	10776.197313
552.007817	10788.865733
552.366022	10747.276214
552.724173	10740.982333
553.082267	10725.836187
553.440305	10858.695796
553.798288	10660.467545
554.156215	10823.102729
554.514086	10798.007866
554.871902	10643.882148
555.229661	10683.810607
555.587365	10652.610906
555.945014	10549.357993
556.302606	10679.744917
556.660143	10572.295243
557.017625	10728.744932
557.375050	10625.744077
557.732421	10755.853737
558.089735	10668.568679
558.446994	10664.762608
558.804197	10709.354134
559.161345	10712.625843
559.518437	10555.977028
559.875474	10645.102108
560.232455	10669.859214
560.589381	10625.519746
560.946251	10627.669798
561.303065	10730.227032
561.659825	10663.126753
562.016528	10594.662843
562.373177	10469.979985
562.729770	10590.329971
563.086307	10504.469039
563.442789	10596.691907
563.799216	10475.434513
564.155587	10518.077634
564.511904	10479.722015
564.868164	10472.354368
565.224370	10483.457510
565.580520	10408.888762
565.936615	10421.068190
566.292654	10286.802098
566.648638	10412.674668
567.004567	10368.199089
567.360441	10356.307007
567.716260	10263.937945
568.072023	10360.254230
568.427732	10310.132558
568.783385	10220.132838
569.138982	10291.893663
569.494525	10311.508793
569.850013	10186.783085
570.205445	10269.473132
570.560823	10160.296863
570.916145	10079.966076
571.271412	10145.208689
571.626625	10092.568961
571.981782	10072.127082
572.336884	10041.857474
572.691931	10048.214369
573.046923	9995.919959
573.401860	9954.227097
573.756743	9881.924348
574.111570	9932.252707
574.466342	9911.846116
574.821059	9942.035066
575.175722	9832.677316
575.530330	9847.846148
575.884882	9836.138068
576.239380	9761.339947
576.593823	9743.897555
576.948211	9761.864227
577.302544	9636.468046
577.656823	9651.276436
578.011047	9656.907404
578.365216	9624.250810
578.719330	9550.929748
579.073389	9563.225122
579.427394	9515.903811
579.781344	9489.165531
580.135239	9437.103014
580.489080	9441.357748
580.842866	9349.656639
581.196597	9355.670736
581.550273	9395.281602
581.903895	9361.556283
582.257463	9428.923742
582.610975	9299.033372
582.964434	9339.304630
583.317837	9256.594419
583.671186	9239.141944
584.024481	9231.416376
584.377721	9154.695055
584.730906	9128.967527
585.084037	9159.395931
585.437113	9083.942461
585.790135	9115.742060
586.143103	9015.249178
586.496016	8987.800096
586.848874	9047.981390
587.201679	9036.185090
587.554428	8918.597656
587.907124	8968.477353
588.259765	8932.125592
588.612352	8940.380482
588.964884	8812.206625
589.317362	8831.733534
589.669786	8830.722783
590.022155	8875.798260
590.374470	8892.744099
590.726731	8831.612547
591.078937	8683.435391
591.431090	8798.146847
591.783188	8667.328904
592.135232	8661.798759
592.487222	8660.319180
592.839157	8712.613589
593.191038	8637.628947
593.542866	8589.438036
593.894639	8494.102255
594.246358	8544.475985
594.598022	8553.287922
594.949633	8457.780742
595.301190	8432.118748
595.652692	8462.373233
596.004141	8570.243843
596.355535	8350.671346
596.706876	8327.058582
597.058162	8263.522399
597.409395	8339.119542
597.760573	8404.639419
598.111698	8310.198443
598.462768	8301.784757
598.813785	8265.014581
599.164748	8229.129127
599.515657	8219.961789
599.866511	8129.137840
600.217312	8255.320442
600.568060	8116.882795
600.918753	8218.782159
601.269392	8191.786780
601.619978	8099.770599
601.970510	8158.822675
602.320988	8158.880648
602.671412	8216.430460
603.021783	8155.997108
603.372100	8128.676575
603.722363	8128.159857
604.072572	8103.274201
604.422728	8119.388249
604.772830	8045.744553
605.122878	8049.227990
605.472872	8045.104326
605.822813	8076.790499
606.172701	8018.368567
606.522534	8094.207685
606.872314	8091.896316
607.222041	8072.238337
607.571714	8119.179041
607.921333	8073.637257
608.270899	8082.665964
608.620411	8175.231631
608.969870	8077.839059
609.319276	8073.400323
609.668627	8090.114268
610.017926	8120.288095
610.367171	8168.526896
610.716362	8146.003021
611.065500	8138.486660
611.414585	8166.644025
611.763616	8153.726068
612.112594	8133.334601
612.461518	8146.678535
612.810389	8209.776137
613.159207	8149.809092
613.507971	8097.270186
613.856682	8216.775779
614.205340	8173.467227
614.553945	8252.089062
614.902496	8148.631982
615.250994	8201.934623
615.599439	8185.951644
615.947830	8202.600055
616.296169	8173.520159
616.644454	8190.390380
616.992686	8185.477776
617.340864	8243.806446
617.688990	8146.058473
618.037063	8238.036846
618.385082	8180.882764
618.733048	8267.210003
619.080961	8209.788740
619.428821	8228.584682
619.776628	8229.688695
620.124382	8182.808485
620.472083	8163.556318
620.819731	8191.875000
621.167326	8084.422806
621.514868	8091.866069
621.862357	7979.612176
622.209793	7995.935432
622.557176	7930.221471
622.904506	7898.086636
623.251783	7837.111360
623.599007	7785.716796
623.946179	7797.407232
624.293297	7749.833863
624.640363	7669.286307
624.987376	7652.348030
625.334336	7599.715863
625.681243	7549.647123
626.028097	7540.608335
626.374899	7516.171341
626.721647	7512.113213
627.068343	7439.898684
627.414987	7407.219404
627.761577	7364.616613
628.108115	7404.141779
628.454600	7298.229658
628.801032	7345.765218
629.147412	7305.075545
629.493739	7297.085316
629.840014	7235.053918
630.186236	7287.824716
630.532405	7168.828280
630.878521	7226.521765
631.224585	7178.960999
631.570597	7104.258661
631.916556	7138.026830
632.262462	7136.852241
632.608316	7096.104594
632.954117	7072.222128
633.299866	7060.219141
633.645562	7055.908954
633.991206	6972.770245
634.336797	6915.653972
634.682336	6869.930706
635.027823	6840.324010
635.373257	6832.868143
635.718639	6766.181240
636.063968	6773.995028
636.409245	6668.294635
636.754470	6665.930334
637.099642	6630.256608
637.444762	6573.460449
637.789829	6580.228198
638.134845	6521.529002
638.479808	6506.327403
638.824719	6513.095152
639.169577	6437.838287
639.514383	6462.010619
639.859137	6389.239043
640.203839	6395.759776
640.548489	6385.511110
