Dividing Wavelength (nm)	Counts (n)	Blue Motor Position (mm): 46.300000	Red Motor Position (mm): 0.000000	
326.493990	2269.787081
326.888308	2269.787081
327.282561	2269.787081
327.676750	2232.480022
328.070874	2226.798642
328.464933	2228.653786
328.858929	2233.614282
329.252859	2237.465723
329.646726	2245.559296
330.040528	2259.344331
330.434265	2270.470157
330.827938	2290.365071
331.221547	2307.565488
331.615091	2324.982674
332.008571	2343.113184
332.401986	2363.393746
332.795338	2382.373690
333.188625	2401.852709
333.581847	2421.490524
333.975006	2441.529110
334.368100	2460.657768
334.761129	2477.371714
335.154095	2495.822337
335.546996	2518.131963
335.939833	2561.720300
336.332606	2579.475244
336.725315	2590.217943
337.117960	2601.202617
337.510540	2612.593104
337.903056	2624.006277
338.295508	2634.106228
338.687896	2643.853299
339.080220	2648.586943
339.472480	2655.100113
339.864676	2660.859632
340.256807	2665.956238
340.648875	2668.007988
341.040879	2673.558298
341.432818	2674.188442
341.824694	2677.422343
342.216506	2676.855213
342.608253	2680.318486
342.999937	2678.047446
343.391557	2678.097857
343.783113	2677.225738
344.174605	2678.541479
344.566033	2674.216169
344.957397	2676.681293
345.348697	2676.391427
345.739934	2674.478309
346.131106	2672.020746
346.522215	2669.112001
346.913260	2671.110818
347.304241	2667.521517
347.695159	2666.331804
348.086012	2663.879283
348.476802	2665.416835
348.867528	2658.853252
349.258191	2656.267141
349.648789	2655.362253
350.039324	2652.211532
350.429796	2655.677326
350.820203	2655.861328
351.210548	2652.796306
351.600828	2651.490647
351.991045	2649.814464
352.381198	2648.977632
352.771288	2649.953095
353.161314	2650.260606
353.551276	2649.217087
353.941175	2649.779176
354.331010	2648.576860
354.720782	2648.100471
355.110490	2646.923362
355.500135	2645.713485
355.889717	2647.656850
356.279235	2646.976294
356.668689	2648.488640
357.058080	2644.395223
357.447408	2648.130718
357.836672	2648.959988
358.225873	2649.784217
358.615010	2650.363949
359.004084	2650.724392
359.393095	2652.418220
359.782043	2651.994763
360.170927	2654.064156
360.559748	2653.297901
360.948505	2653.943169
361.337199	2655.019455
361.725830	2656.141112
362.114398	2655.692449
362.502903	2656.186482
362.891344	2656.783859
363.279722	2657.955927
363.668037	2654.780000
364.056289	2656.975423
364.444478	2657.177069
364.832603	2660.723521
365.220665	2661.913233
365.608665	2661.235198
365.996601	2658.976761
366.384474	2662.124961
366.772284	2660.675630
367.160031	2663.226453
367.547715	2662.687050
367.935336	2666.682164
368.322893	2662.432472
368.710388	2661.741834
369.097820	2663.884324
369.485189	2661.787204
369.872495	2668.360869
370.259738	2669.301044
370.646918	2668.363389
371.034035	2667.508914
371.421090	2669.752227
371.808081	2670.803308
372.195010	2673.454955
372.581875	2675.390758
372.968678	2680.560461
373.355418	2682.155986
373.742096	2687.834846
374.128710	2693.927080
374.515262	2701.133410
374.901751	2713.501881
375.288177	2721.648385
375.674540	2738.314440
376.060841	2753.556369
376.447079	2774.870367
376.833254	2797.979016
377.219367	2814.009886
377.605417	2843.674555
377.991404	2864.005529
378.377329	2901.289903
378.763191	2924.123809
379.148991	2963.863225
379.534727	3002.218844
379.920402	3039.228475
380.306013	3064.310736
380.691563	3128.860190
381.077049	3156.939417
381.462474	3198.100438
381.847835	3256.469438
382.233134	3304.236891
382.618371	3333.465501
383.003545	3400.618712
383.388657	3434.313784
383.773706	3498.323835
384.158693	3535.918240
384.543618	3573.414342
384.928480	3633.222591
385.313280	3690.495140
385.698017	3721.334399
386.082692	3815.445179
386.467305	3820.410716
386.851856	3860.906305
387.236344	3945.199438
387.620770	3971.857060
388.005133	4026.787993
388.389435	4074.144592
388.773674	4087.465841
389.157851	4164.827388
389.541965	4229.780135
389.926018	4196.969785
390.310008	4300.903254
390.693936	4354.014330
391.077802	4391.061770
391.461606	4390.666039
391.845348	4458.028457
392.229027	4519.623796
392.612645	4516.984752
392.996200	4621.437459
393.379694	4677.850491
393.763125	4788.677738
394.146494	4815.600020
394.529801	4868.806878
394.913047	4952.086740
395.296230	4902.065891
395.679351	5009.273589
396.062410	5066.616714
396.445408	5035.253176
396.828343	5093.710396
397.211217	5152.311288
397.594028	5038.701325
397.976778	5150.940095
398.359466	5197.656467
398.742092	5223.835179
399.124656	5142.470956
399.507158	5258.505715
399.889598	5320.816897
400.271977	5444.410866
400.654294	5439.064722
401.036549	5488.362166
401.418742	5405.856121
401.800874	5612.372030
402.182944	5671.726575
402.564952	5780.638183
402.946898	5838.334189
403.328783	5674.030382
403.710606	5692.536458
404.092367	6017.448906
404.474067	6041.641403
404.855705	5937.471000
405.237282	5872.049426
405.618797	6128.273632
406.000250	6107.967864
406.381642	6310.523946
406.762972	6335.792730
407.144240	6385.506069
407.525447	6376.333689
407.906593	6391.726852
408.287677	6556.217182
408.668700	6468.596887
409.049661	6580.863383
409.430560	6609.156859
409.811399	6473.517053
410.192176	6737.600418
410.572891	6752.955773
410.953545	6944.524660
411.334138	6675.306880
411.714669	6853.736000
412.095139	6640.104503
412.475547	6883.002418
412.855894	6958.617205
413.236180	7144.832387
413.616405	6804.854451
413.996568	7025.563728
414.376670	7078.395021
414.756711	6969.722867
415.136691	7064.673000
415.516609	7269.472396
415.896466	7252.221567
416.276262	7460.537168
416.655997	7447.031916
417.035670	7619.013400
417.415283	7965.519631
417.794834	8032.592182
418.174324	7886.849904
418.553753	7812.102196
418.933121	8110.006662
419.312428	8208.467958
419.691674	7988.071232
420.070859	8469.120818
420.449983	8146.701220
420.829045	8512.593208
421.208047	8280.710213
421.586988	8591.464580
421.965867	8615.089948
422.344686	8706.223927
422.723444	8780.263353
423.102141	8115.297352
423.480777	8886.641782
423.859352	8406.393740
424.237866	9024.202267
424.616319	8892.441629
424.994712	9320.685128
425.373044	8862.098924
425.751314	9346.460548
426.129524	9227.464111
426.507673	9310.335639
426.885762	9462.739802
427.263789	9388.329851
427.641756	9323.913987
428.019662	9406.059589
428.397508	9678.937247
428.775292	9334.893620
429.153016	9725.696469
429.530679	9556.512826
429.908282	9573.133510
430.285824	9298.045306
430.663305	9987.544082
431.040726	9434.824413
431.418086	9410.757944
431.795385	9752.046580
432.172624	9844.312299
432.549802	9752.838042
432.926920	9825.276902
433.303977	9697.579434
433.680974	9900.962265
434.057910	9996.625721
434.434786	10068.701618
434.811601	9889.057580
435.188355	10461.901536
435.565050	10194.173417
435.941683	10121.893353
436.318257	10603.676426
436.694770	10777.019022
437.071222	10823.105250
437.447614	10649.409774
437.823946	10571.405480
438.200218	10667.752012
438.576429	10508.819555
438.952580	10758.979253
439.328670	10776.736717
439.704700	10580.587941
440.080670	10571.662578
440.456580	11094.828483
440.832429	10884.272090
441.208218	10485.179064
441.583947	10776.857705
441.959616	10960.083482
442.335224	10773.187745
442.710773	10881.968283
443.086261	11117.440579
443.461689	10375.513803
443.837057	11068.067518
444.212365	11298.909515
444.587612	10936.503485
444.962800	11148.852009
445.337927	10887.861392
445.712995	10566.339120
446.088002	11610.644386
446.462949	11298.349947
446.837837	11265.680749
447.212664	11192.175685
447.587431	11779.230653
447.962139	12541.989998
448.336786	14841.643394
448.711374	15317.384645
449.085901	13133.435811
449.460369	12785.175259
449.834776	12232.324520
450.209124	13165.817662
450.583412	13584.036827
450.957640	14507.924051
451.331808	13554.591447
451.705917	12623.550826
452.079965	11864.637882
452.453954	12788.003346
452.827883	12439.238679
453.201752	12734.851941
453.575562	12277.279009
453.949311	12687.195393
454.323001	12673.402796
454.696632	12919.108634
455.070202	13188.865818
455.443713	13377.258778
455.817164	13881.033885
456.190556	13848.805788
456.563888	14213.296335
456.937160	14347.280122
457.310373	13713.886867
457.683526	13828.580679
458.056619	13337.184126
458.429653	13556.300398
458.802628	12902.172878
459.175542	13330.638187
459.548398	14276.411581
459.921194	14641.002951
460.293930	14716.920207
460.666607	15553.255192
461.039224	16612.338601
461.411782	17344.029314
461.784280	17127.123587
462.156719	17238.918736
462.529099	16896.009369
462.901419	15863.402100
463.273680	15611.964470
463.645882	15520.533062
464.018024	15237.217696
464.390106	15469.201513
464.762130	16186.855134
465.134094	16983.521279
465.505999	19059.924657
465.877845	22323.045898
466.249631	25144.297401
466.621358	24731.149637
466.993026	23324.965142
467.364634	22730.731571
467.736184	21258.034092
468.107674	20462.638318
468.479105	20598.285685
468.850477	20044.509894
469.221790	19660.018570
469.593043	18964.248598
469.964238	18386.867604
470.335373	18030.145476
470.706449	18534.318834
471.077467	18113.576572
471.448425	19993.566514
471.819324	24143.963599
472.190164	25969.914893
472.560945	22279.593672
472.931667	19990.052830
473.302330	19382.543380
473.672934	19027.991468
474.043479	19242.661443
474.413965	19053.605571
474.784393	18642.764135
475.154761	19417.592002
475.525070	19326.243774
475.895321	19054.308812
476.265513	19664.643828
476.635645	20246.829042
477.005719	20006.920531
477.375734	20184.364105
477.745691	20684.189468
478.115588	21220.827856
478.485427	21797.835805
478.855207	22882.689592
479.224928	24690.391908
479.594591	26909.132266
479.964194	26806.204507
480.333739	27043.201752
480.703226	26630.540460
481.072653	26347.787182
481.442022	26965.963713
481.811333	27900.076918
482.180584	27778.622919
482.549777	26827.601684
482.918912	26501.852405
483.287988	26642.611503
483.657005	26254.861072
484.025964	26055.949745
484.394864	25906.151858
484.763706	25566.907410
485.132489	25040.353850
485.501213	25227.065585
485.869879	25133.963035
486.238487	24993.256870
486.607036	25103.771565
486.975527	24852.669171
487.343959	25139.745239
487.712333	25060.538630
488.080648	24712.467121
488.448905	25225.845626
488.817104	24990.494317
489.185244	25698.763830
489.553326	25641.166127
489.921350	26700.433538
490.289315	29059.675893
490.657222	30768.690062
491.025070	31281.670315
491.392861	31021.357734
491.760593	30168.583546
492.128267	29238.911598
492.495883	28177.668055
492.863440	27311.350807
493.230939	26453.535466
493.598380	26270.024863
493.965763	25895.968727
494.333088	25388.916871
494.700354	25372.523038
495.067563	25217.779780
495.434713	24968.303158
495.801805	25135.893797
496.168839	24902.828652
496.535815	24784.986640
496.902733	24999.991851
497.269593	24700.862385
497.636395	24854.844429
498.003139	24792.258504
498.369825	24524.134655
498.736453	24754.066723
499.103023	24620.907164
499.469535	24609.670433
499.835989	24845.127605
500.202385	24857.906930
500.568723	24402.884822
500.935003	24579.373098
501.301226	24264.215283
501.667390	25112.669202
502.033497	25308.328985
502.399546	25048.165118
502.765537	24584.532719
503.131470	24968.676204
503.497345	25118.456446
503.863163	24360.420663
504.228923	24888.267279
504.594625	25145.335878
504.960269	24705.250709
505.325856	25181.352402
505.691385	24579.499127
506.056856	25170.342522
506.422270	25168.081565
506.787625	24689.212278
507.152924	25128.395081
507.518164	25166.360011
507.883347	24989.395346
508.248472	24656.873277
508.613540	25428.278200
508.978550	25231.776543
509.343503	25252.203299
509.708398	25453.103362
510.073236	25626.806400
510.438016	25827.978685
510.802738	25486.127961
511.167403	25743.161272
511.532010	25490.037376
511.896561	26233.789049
512.261053	26206.581942
512.625488	26044.108074
512.989866	25925.469560
513.354186	25757.631904
513.718449	25890.667954
514.082655	26273.586438
514.446803	25983.843601
514.810894	26479.298283
515.174927	25955.419055
515.538904	26002.838668
515.902822	26492.042320
516.266684	26251.327224
516.630488	26149.422819
516.994235	26093.574396
517.357925	26429.433710
517.721558	26585.626300
518.085133	26725.455305
518.448651	26593.155263
518.812112	26364.785953
519.175516	26596.018638
519.538863	26739.870484
519.902152	26529.770315
520.265385	26780.693748
520.628560	26587.461280
520.991678	26571.818579
521.354739	26629.638093
521.717743	26730.599802
522.080690	26492.705232
522.443580	26829.953383
522.806413	26791.040716
523.169189	26919.806909
523.531908	26963.135626
523.894569	26579.740753
524.257174	26682.769334
524.619722	26815.235734
524.982213	26536.406994
525.344647	26558.227629
525.707025	26723.874903
526.069345	26671.920771
526.431608	26643.949929
526.793815	26812.730281
527.155964	26328.257752
527.518057	26484.243655
527.880093	26400.187456
528.242072	26618.968491
528.603995	26345.685021
528.965860	26136.502342
529.327669	26168.793453
529.689421	26161.466136
530.051117	26004.759348
530.412755	26173.983321
530.774337	25945.208198
531.135862	25856.274682
531.497331	26032.311774
531.858743	25635.139427
532.220098	26075.537148
532.581396	25786.502592
532.942638	25671.208883
533.303824	25790.936287
533.664953	25772.646981
534.026025	25452.964730
534.387040	25703.101743
534.747999	25744.441725
535.108902	25902.207155
535.469748	25405.411526
535.830537	25555.867283
536.191270	25698.640322
536.551947	25520.087694
536.912567	25138.709282
537.273131	25600.849499
537.633638	25253.040130
537.994089	25479.516488
538.354483	24961.724453
538.714821	25480.474307
539.075103	25521.156418
539.435328	25285.051457
539.795497	24893.794904
540.155609	25233.059517
540.515665	25552.078856
540.875665	24755.856332
541.235609	25106.652584
541.595496	25026.074781
541.955328	25405.880353
542.315102	25323.840616
542.674821	24826.281252
543.034483	24709.795310
543.394090	24879.687235
543.753640	24689.907958
544.113134	25316.225953
544.472571	24906.188581
544.831953	25218.747681
545.191278	24864.344484
545.550548	24745.993315
545.909761	24945.509581
546.268918	25187.517733
546.628019	25167.111143
546.987064	24836.655946
547.346053	24578.979888
547.704986	24672.878940
548.063863	24843.708520
548.422684	24864.959504
548.781449	24357.053172
549.140158	24771.635144
549.498811	24347.946328
549.857408	24121.928716
550.215949	24498.364276
550.574434	24207.114133
550.932864	24396.419542
551.291237	24591.996147
551.649555	24429.255098
552.007817	24499.185984
552.366022	24332.681714
552.724173	24348.417676
553.082267	24338.063146
553.440305	24814.729447
553.798288	24042.404514
554.156215	24532.936509
554.514086	24675.283570
554.871902	24069.478030
555.229661	24326.027391
555.587365	24180.511964
555.945014	24096.438121
556.302606	24293.375837
556.660143	24292.269304
557.017625	24506.808209
557.375050	24030.830024
557.732421	24417.912502
558.089735	24247.077880
558.446994	24300.980418
558.804197	24343.247972
559.161345	24227.752617
559.518437	24025.839282
559.875474	24190.685013
560.232455	24383.241966
560.589381	24174.795296
560.946251	24195.237175
561.303065	24476.266378
561.659825	24581.437450
562.016528	24184.423900
562.373177	23910.694287
562.729770	24278.738847
563.086307	24117.676502
563.442789	24304.589884
563.799216	24154.769312
564.155587	24140.583505
564.511904	24115.166008
564.868164	24085.871863
565.224370	24037.388566
565.580520	23980.978054
565.936615	24093.408388
566.292654	23799.337719
566.648638	24031.951681
567.004567	23881.662282
567.360441	23808.820130
567.716260	23529.799826
568.072023	23840.029913
568.427732	23633.201453
568.783385	23374.005487
569.138982	23637.511640
569.494525	23660.274970
569.850013	23433.536473
570.205445	23532.196895
570.560823	23353.883721
570.916145	23121.305047
571.271412	23320.826355
571.626625	23058.094019
571.981782	23156.787209
572.336884	22962.967446
572.691931	23102.821657
573.046923	22859.865768
573.401860	22730.434143
573.756743	22761.772476
574.111570	22645.878869
574.466342	22564.197054
574.821059	22639.708497
575.175722	22342.086336
575.530330	22304.980923
575.884882	22316.520124
576.239380	22234.891240
576.593823	22130.078090
576.948211	22103.291919
577.302544	21954.252726
577.656823	21821.214156
578.011047	21930.405548
578.365216	21794.274230
578.719330	21672.976506
579.073389	21557.884443
579.427394	21725.311245
579.781344	21449.421498
580.135239	21351.572702
580.489080	21290.529370
580.842866	21086.649985
581.196597	21299.888272
581.550273	21250.893298
581.903895	21122.379163
582.257463	21442.517638
582.610975	20972.750155
582.964434	21305.299951
583.317837	20968.729835
583.671186	21063.422868
584.024481	21052.443235
584.377721	20818.800878
584.730906	20897.994884
585.084037	20879.120804
585.437113	20807.823766
585.790135	21020.159686
586.143103	20470.147116
586.496016	20504.739514
586.848874	20726.119265
587.201679	20634.007302
587.554428	20331.754840
587.907124	20678.145124
588.259765	20421.676422
588.612352	20499.801704
588.964884	20070.111394
589.317362	20235.698174
589.669786	20302.443051
590.022155	20291.425610
590.374470	20547.352388
590.726731	20296.323091
591.078937	20100.799418
591.431090	20172.275418
591.783188	19948.901891
592.135232	19898.286186
592.487222	19999.439458
592.839157	20004.762917
593.191038	19878.764317
593.542866	19777.416961
593.894639	19467.781730
594.246358	19697.875115
594.598022	19577.058822
594.949633	19334.975052
595.301190	19329.460030
595.652692	19493.252159
596.004141	19708.736281
596.355535	19045.791782
596.706876	19069.631399
597.058162	18966.151634
597.409395	19203.244661
597.760573	19240.327389
598.111698	19015.721300
598.462768	18968.243713
598.813785	18943.526935
599.164748	18737.399196
599.515657	18788.617319
599.866511	18589.915199
600.217312	18941.898643
600.568060	18446.428837
600.918753	18759.728987
601.269392	18662.578390
601.619978	18472.645358
601.970510	18654.036155
602.320988	18602.167723
602.671412	18790.056568
603.021783	18728.912413
603.372100	18434.766127
603.722363	18593.403677
604.072572	18537.686324
604.422728	18688.830199
604.772830	18430.692875
605.122878	18396.685251
605.472872	18368.444708
605.822813	18358.596813
606.172701	18338.969081
606.522534	18517.990536
606.872314	18551.773829
607.222041	18389.141165
607.571714	18603.904401
607.921333	18417.608560
608.270899	18495.615375
608.620411	18652.649838
608.969870	18457.095918
609.319276	18439.277960
609.668627	18471.296849
610.017926	18613.661554
610.367171	18714.396411
610.716362	18782.951062
611.065500	18581.839270
611.414585	18745.805320
611.763616	18724.962669
612.112594	18650.640938
612.461518	18633.528741
612.810389	18824.233071
613.159207	18672.948044
613.507971	18581.206606
613.856682	18829.652311
614.205340	18759.872660
614.553945	18917.897709
614.902496	18669.557868
615.250994	18861.157002
615.599439	18815.456422
615.947830	18805.853024
616.296169	18881.563593
616.644454	18835.374021
616.992686	18820.454726
617.340864	19036.659732
617.688990	18779.349157
618.037063	18948.691597
618.385082	18814.720413
618.733048	19078.506350
619.080961	18976.004569
619.428821	19009.349281
619.776628	18871.877016
620.124382	18799.430594
620.472083	18870.258805
620.819731	18864.627837
621.167326	18561.835972
621.514868	18596.342670
621.862357	18387.175115
622.209793	18377.241521
622.557176	18214.407211
622.904506	18046.052837
623.251783	17986.458837
623.599007	17729.791009
623.946179	17669.743305
624.293297	17592.643898
624.640363	17323.211869
624.987376	17352.649687
625.334336	17156.873957
625.681243	17000.842683
626.028097	17031.167744
626.374899	16932.691325
626.721647	16801.253320
627.068343	16645.794218
627.414987	16568.334369
627.761577	16542.735389
628.108115	16568.321766
628.454600	16298.438553
628.801032	16398.490334
629.147412	16337.825088
629.493739	16343.934967
629.840014	16156.991338
630.186236	16252.284269
630.532405	16019.640061
630.878521	16209.358844
631.224585	16116.074813
631.570597	15939.833554
631.916556	15966.528984
632.262462	15938.399346
632.608316	15859.838004
632.954117	15810.986703
633.299866	15791.820236
633.645562	15711.650766
633.991206	15478.618389
634.336797	15350.565519
634.682336	15316.131918
635.027823	15179.541854
635.373257	15041.066399
635.718639	14969.272807
636.063968	14912.476647
