Dividing Wavelength (nm)	Counts (n)	Blue Motor Position (mm): 10.600000	Red Motor Position (mm): 0.000000	
326.493990	2161.119969
326.888308	2161.119969
327.282561	2161.119969
327.676750	2118.887702
328.070874	2116.959461
328.464933	2117.370315
328.858929	2120.059771
329.252859	2125.385750
329.646726	2135.228603
330.040528	2145.603297
330.434265	2160.315905
330.827938	2178.479182
331.221547	2195.354444
331.615091	2213.399255
332.008571	2229.604044
332.401986	2251.795203
332.795338	2269.156937
333.188625	2287.547066
333.581847	2304.276135
333.975006	2323.745071
334.368100	2341.999089
334.761129	2359.945597
335.154095	2375.084182
335.546996	2395.669734
335.939833	2421.649320
336.332606	2433.594334
336.725315	2449.136211
337.117960	2461.623149
337.510540	2470.470374
337.903056	2480.915645
338.295508	2490.463591
338.687896	2500.503048
339.080220	2507.747187
339.472480	2511.434791
339.864676	2521.000380
340.256807	2523.904085
340.648875	2528.831812
341.040879	2532.453882
341.432818	2533.303316
341.824694	2538.089892
342.216506	2538.203317
342.608253	2541.162475
342.999937	2536.796836
343.391557	2538.614172
343.783113	2540.141641
344.174605	2539.957639
344.566033	2536.491846
344.957397	2537.553009
345.348697	2534.414890
345.739934	2532.789118
346.131106	2531.198634
346.522215	2529.051103
346.913260	2529.298119
347.304241	2524.632531
347.695159	2522.253107
348.086012	2523.621780
348.476802	2520.123219
348.867528	2515.727333
349.258191	2512.596777
349.648789	2514.698938
350.039324	2507.658966
350.429796	2510.139214
350.820203	2512.816067
351.210548	2507.621158
351.600828	2509.015037
351.991045	2506.328102
352.381198	2505.435817
352.771288	2506.139058
353.161314	2506.330622
353.551276	2505.234171
353.941175	2503.202586
354.331010	2504.745179
354.720782	2504.982114
355.110490	2506.451610
355.500135	2503.011023
355.889717	2504.987155
356.279235	2502.562360
356.668689	2502.670745
357.058080	2502.713594
357.447408	2502.874911
357.836672	2503.941115
358.225873	2504.672083
358.615010	2505.778616
359.004084	2507.033863
359.393095	2508.626868
359.782043	2509.231806
360.170927	2508.679800
360.559748	2508.689882
360.948505	2508.596621
361.337199	2512.150634
361.725830	2507.512773
362.114398	2511.013854
362.502903	2510.648371
362.891344	2512.019564
363.279722	2509.889677
363.668037	2513.889833
364.056289	2510.050994
364.444478	2513.564678
364.832603	2512.059894
365.220665	2515.150121
365.608665	2512.868999
365.996601	2515.984432
366.384474	2514.174658
366.772284	2514.388907
367.160031	2514.366222
367.547715	2516.299504
367.935336	2518.633558
368.322893	2516.211284
368.710388	2514.348578
369.097820	2517.842097
369.485189	2511.497805
369.872495	2518.568023
370.259738	2518.759587
370.646918	2516.733043
371.034035	2518.157169
371.421090	2517.663136
371.808081	2517.421161
372.195010	2521.721265
372.581875	2518.411747
372.968678	2518.898219
373.355418	2517.113650
373.742096	2522.863086
374.128710	2520.118178
374.515262	2520.307221
374.901751	2521.149094
375.288177	2524.103210
375.674540	2521.393590
376.060841	2521.708662
376.447079	2521.242355
376.833254	2522.805113
377.219367	2521.156656
377.605417	2522.185051
377.991404	2523.969620
378.377329	2523.026924
378.763191	2527.246370
379.148991	2524.395597
379.534727	2523.296626
379.920402	2523.649506
380.306013	2525.474404
380.691563	2525.471883
381.077049	2522.545494
381.462474	2524.267048
381.847835	2523.601615
382.233134	2524.503982
382.618371	2521.519619
383.003545	2523.710000
383.388657	2523.485669
383.773706	2527.430372
384.158693	2525.615556
384.543618	2526.303674
384.928480	2526.739734
385.313280	2527.004394
385.698017	2525.615556
386.082692	2526.233098
386.467305	2528.355423
386.851856	2528.970444
387.236344	2526.691843
387.620770	2523.785618
388.005133	2521.930473
388.389435	2525.943231
388.773674	2522.603467
389.157851	2527.122861
389.541965	2525.764270
389.926018	2529.023376
390.310008	2531.470857
390.693936	2529.179652
391.077802	2529.217461
391.461606	2530.344159
391.845348	2528.783922
392.229027	2527.924405
392.612645	2529.217461
392.996200	2530.835671
393.379694	2528.541946
393.763125	2529.199817
394.146494	2530.797862
394.529801	2531.770805
394.913047	2533.119314
395.296230	2533.560415
395.679351	2534.419932
396.062410	2528.539426
396.445408	2532.874818
396.828343	2531.276772
397.211217	2532.461443
397.594028	2533.250384
397.976778	2534.251053
398.359466	2535.103008
398.742092	2532.365661
399.124656	2532.330373
399.507158	2535.894469
399.889598	2536.050745
400.271977	2535.420601
400.654294	2532.859694
401.036549	2533.399098
401.418742	2535.544109
401.800874	2535.581917
402.182944	2534.669469
402.564952	2536.600231
402.946898	2538.500746
403.328783	2536.287679
403.710606	2535.211393
404.092367	2538.616692
404.474067	2535.788605
404.855705	2536.693492
405.237282	2536.328008
405.618797	2536.199459
406.000250	2535.909592
406.381642	2535.685261
406.762972	2535.302133
407.144240	2532.975641
407.525447	2537.358924
407.906593	2533.799870
408.287677	2537.701723
408.668700	2533.809952
409.049661	2540.363452
409.430560	2538.190715
409.811399	2539.594676
410.192176	2536.935467
410.572891	2537.242978
410.953545	2539.534182
411.334138	2539.662732
411.714669	2537.943698
412.095139	2538.384799
412.475547	2537.454706
412.855894	2540.166847
413.236180	2540.076106
413.616405	2538.120138
413.996568	2539.559388
414.376670	2540.875129
414.756711	2538.430169
415.136691	2540.035777
415.516609	2541.664070
415.896466	2541.124666
416.276262	2540.146682
416.655997	2541.333874
417.035670	2540.151723
417.415283	2541.769934
417.794834	2541.437218
418.174324	2543.143648
418.553753	2540.923020
418.933121	2541.870757
419.312428	2542.208514
419.691674	2539.773637
420.070859	2538.871270
420.449983	2542.788247
420.829045	2539.990407
421.208047	2544.587939
421.586988	2542.750438
421.965867	2543.993083
422.344686	2541.565767
422.723444	2541.434697
423.102141	2543.667928
423.480777	2541.107022
423.859352	2544.882846
424.237866	2542.780685
424.616319	2543.746066
424.994712	2543.930068
425.373044	2544.114070
425.751314	2541.079296
426.129524	2538.097453
426.507673	2540.204656
426.885762	2537.303472
427.263789	2545.238248
427.641756	2545.003834
428.019662	2545.056766
428.397508	2546.458207
428.775292	2546.049873
429.153016	2545.011396
429.530679	2543.060469
429.908282	2542.442928
430.285824	2543.065510
430.663305	2546.279246
431.040726	2543.483926
431.418086	2545.760007
431.795385	2545.107178
432.172624	2545.208001
432.549802	2544.164482
432.926920	2545.644061
433.303977	2545.233207
433.680974	2546.425439
434.057910	2546.705223
434.434786	2543.872095
434.811601	2543.214224
435.188355	2542.924358
435.565050	2545.392003
435.941683	2547.572302
436.318257	2545.399565
436.694770	2544.663556
437.071222	2546.364946
437.447614	2548.212528
437.823946	2549.583722
438.200218	2548.441901
438.576429	2545.192877
438.952580	2546.485933
439.328670	2544.615665
439.704700	2547.247147
440.080670	2545.996941
440.456580	2547.521890
440.832429	2548.905687
441.208218	2549.792930
441.583947	2546.780841
441.959616	2549.354350
442.335224	2546.632127
442.710773	2546.039791
443.086261	2547.189174
443.461689	2547.537014
443.837057	2548.028526
444.212365	2546.334699
444.587612	2547.113557
444.962800	2545.245809
445.337927	2547.363094
445.712995	2544.683721
446.088002	2547.753783
446.462949	2548.978784
446.837837	2548.187323
447.212664	2547.816798
447.587431	2549.659340
447.962139	2548.643547
448.336786	2553.162942
448.711374	2545.891077
449.085901	2550.481048
449.460369	2551.353167
449.834776	2548.262940
450.209124	2550.037426
450.583412	2551.327962
450.957640	2547.259750
451.331808	2550.029864
451.705917	2548.618341
452.079965	2552.363919
452.453954	2547.100954
452.827883	2548.010882
453.201752	2551.781665
453.575562	2550.556665
453.949311	2553.374670
454.323001	2552.585729
454.696632	2549.419885
455.070202	2549.306459
455.443713	2550.871737
455.817164	2551.297715
456.190556	2549.843342
456.563888	2550.448280
456.937160	2548.900646
457.310373	2549.223280
457.683526	2550.617159
458.056619	2549.929041
458.429653	2550.481048
458.802628	2552.169834
459.175542	2551.106151
459.548398	2554.405586
459.921194	2552.978939
460.293930	2550.710420
460.666607	2551.388455
461.039224	2550.660009
461.411782	2550.624721
461.784280	2549.490461
462.156719	2552.346275
462.529099	2554.027499
462.901419	2550.760832
463.273680	2550.712941
463.645882	2548.121788
464.018024	2549.561037
464.390106	2548.814946
464.762130	2553.762839
465.134094	2551.839639
465.505999	2550.743188
465.877845	2551.118754
466.249631	2554.483724
466.621358	2552.978939
466.993026	2554.297201
467.364634	2557.994888
467.736184	2552.525236
468.107674	2554.526574
468.479105	2555.287788
468.850477	2557.032027
469.221790	2553.586398
469.593043	2553.631769
469.964238	2553.694783
470.335373	2554.042623
470.706449	2554.881975
471.077467	2555.002963
471.448425	2553.888868
471.819324	2554.269475
472.190164	2556.227963
472.560945	2555.091183
472.931667	2554.382901
473.302330	2555.149156
473.672934	2553.972047
474.043479	2555.338199
474.413965	2559.043448
474.784393	2555.459187
475.154761	2556.245607
475.525070	2557.601677
475.895321	2556.142263
476.265513	2555.756615
476.635645	2557.316852
477.005719	2556.439692
477.375734	2556.709393
477.745691	2556.230484
478.115588	2559.378684
478.485427	2558.241904
478.855207	2557.387428
479.224928	2558.065464
479.594591	2555.136553
479.964194	2559.219888
480.333739	2557.019424
480.703226	2557.687377
481.072653	2560.994374
481.442022	2558.622511
481.811333	2560.638973
482.180584	2555.801986
482.549777	2557.127809
482.918912	2554.584547
483.287988	2558.340207
483.657005	2560.870866
484.025964	2559.295505
484.394864	2560.250804
484.763706	2560.419682
485.132489	2558.914898
485.501213	2559.908005
485.869879	2562.012687
486.238487	2564.419838
486.607036	2558.546894
486.975527	2562.194169
487.343959	2556.850546
487.712333	2562.952862
488.080648	2562.073181
488.448905	2563.424210
488.817104	2561.158212
489.185244	2561.909343
489.553326	2563.068809
489.921350	2561.896741
490.289315	2564.485373
490.657222	2564.281206
491.025070	2564.792883
491.392861	2564.739951
491.760593	2561.866494
492.128267	2562.320197
492.495883	2565.549057
492.863440	2562.441185
493.230939	2562.153839
493.598380	2564.248439
493.965763	2562.121072
494.333088	2563.996381
494.700354	2561.707697
495.067563	2561.193500
495.434713	2563.338511
495.801805	2565.034859
496.168839	2563.643500
496.535815	2559.963458
496.902733	2565.417987
497.269593	2563.782132
497.636395	2563.782132
498.003139	2563.257852
498.369825	2561.158212
498.736453	2560.520506
499.103023	2562.461350
499.469535	2567.855384
499.835989	2565.302040
500.202385	2561.745506
500.568723	2556.996739
500.935003	2561.460681
501.301226	2556.268292
501.667390	2564.238357
502.033497	2565.269272
502.399546	2563.298181
502.765537	2561.833726
503.131470	2563.441854
503.497345	2564.129972
503.863163	2565.851526
504.228923	2566.673234
504.594625	2565.743141
504.960269	2567.056362
505.325856	2562.184086
505.691385	2561.926987
506.056856	2561.735424
506.422270	2564.850857
506.787625	2564.450085
507.152924	2562.564693
507.518164	2564.901268
507.883347	2564.971844
508.248472	2564.132492
508.613540	2567.520148
508.978550	2563.083932
509.343503	2565.360013
509.708398	2564.497976
510.073236	2564.094684
510.438016	2566.826989
510.802738	2565.569221
511.167403	2564.981927
511.532010	2564.440003
511.896561	2566.411094
512.261053	2566.118707
512.625488	2565.014694
512.989866	2568.311609
513.354186	2568.203224
513.718449	2566.733728
514.082655	2565.864129
514.446803	2565.785991
514.810894	2566.015363
515.174927	2568.969479
515.538904	2567.021073
515.902822	2567.447051
516.266684	2568.835889
516.630488	2567.744479
516.994235	2568.082236
517.357925	2567.023594
517.721558	2572.452917
518.085133	2569.302196
518.448651	2564.374468
518.812112	2567.527709
519.175516	2567.671382
519.538863	2565.914540
519.902152	2571.910993
520.265385	2572.266394
520.628560	2569.410580
520.991678	2574.517269
521.354739	2571.913513
521.717743	2575.333936
522.080690	2572.236147
522.443580	2575.301169
522.806413	2578.134297
523.169189	2576.024574
523.531908	2575.923751
523.894569	2575.117167
524.257174	2576.526169
524.619722	2577.312589
524.982213	2576.659760
525.344647	2582.086562
525.707025	2580.349884
526.069345	2583.011613
526.431608	2580.644792
526.793815	2580.576736
527.155964	2585.580081
527.518057	2582.404154
527.880093	2583.392221
528.242072	2584.702921
528.603995	2586.260637
528.965860	2583.687128
529.327669	2588.395566
529.689421	2584.145873
530.051117	2586.558065
530.412755	2591.183324
530.774337	2589.769280
531.135862	2587.021851
531.497331	2589.945721
531.858743	2589.749116
532.220098	2590.354054
532.581396	2590.238107
532.942638	2591.798345
533.303824	2592.907398
533.664953	2595.022162
534.026025	2591.652151
534.387040	2594.187852
534.747999	2597.167173
535.108902	2597.623398
535.469748	2598.190528
535.830537	2598.016608
536.191270	2599.642380
536.551947	2593.582913
536.912567	2597.462081
537.273131	2599.856629
537.633638	2596.408480
537.994089	2602.402412
538.354483	2602.273862
538.714821	2605.895931
539.075103	2605.066662
539.435328	2602.367124
539.795497	2604.083637
540.155609	2607.723350
540.515665	2603.140941
540.875665	2606.263936
541.235609	2608.799636
541.595496	2606.936930
541.955328	2608.913062
542.315102	2610.964812
542.674821	2608.764348
543.034483	2609.581015
543.394090	2611.378186
543.753640	2612.071345
544.113134	2616.023609
544.472571	2612.038577
544.831953	2615.269957
545.191278	2613.074534
545.550548	2616.714247
545.909761	2615.063270
546.268918	2615.489247
546.628019	2617.483023
546.987064	2620.187602
547.346053	2618.156017
547.704986	2618.750874
548.063863	2621.384877
548.422684	2617.016717
548.781449	2618.957561
549.140158	2619.517129
549.498811	2622.312449
549.857408	2618.816409
550.215949	2621.624331
550.574434	2622.108282
550.932864	2622.143570
551.291237	2621.919239
551.649555	2622.468725
552.007817	2624.444857
552.366022	2623.824795
552.724173	2623.877727
553.082267	2621.248765
553.440305	2621.553755
553.798288	2624.717079
554.156215	2626.602471
554.514086	2624.563324
554.871902	2618.927314
555.229661	2619.554938
555.587365	2619.557458
555.945014	2622.587192
556.302606	2623.900412
556.660143	2625.216153
557.017625	2626.635238
557.375050	2627.099024
557.732421	2625.090125
558.089735	2626.436113
558.446994	2624.901081
558.804197	2628.664303
559.161345	2628.616412
559.518437	2622.430916
559.875474	2629.770836
560.232455	2627.459467
560.589381	2628.102214
560.946251	2628.684467
561.303065	2625.727831
561.659825	2628.102214
562.016528	2626.209261
562.373177	2626.607512
562.729770	2625.516102
563.086307	2628.291257
563.442789	2627.857718
563.799216	2627.630866
564.155587	2627.651031
564.511904	2628.011473
564.868164	2627.202368
565.224370	2628.964251
565.580520	2624.928808
565.936615	2628.560959
566.292654	2627.676237
566.648638	2629.037348
567.004567	2627.058695
567.360441	2630.519447
567.716260	2628.460136
568.072023	2627.764457
568.427732	2627.116668
568.783385	2624.654065
569.138982	2628.505506
569.494525	2628.603809
569.850013	2630.882410
570.205445	2627.774539
570.560823	2628.452574
570.916145	2626.274796
571.271412	2625.291771
571.626625	2630.098511
571.981782	2629.743110
572.336884	2627.769498
572.691931	2627.030969
573.046923	2625.233797
573.401860	2628.011473
573.756743	2629.090280
574.111570	2629.433079
574.466342	2629.652369
574.821059	2629.304529
575.175722	2630.025414
575.530330	2628.999539
575.884882	2629.460805
576.239380	2632.666979
576.593823	2632.974489
576.948211	2631.094139
577.302544	2629.985085
577.656823	2629.866618
578.011047	2630.983233
578.365216	2628.528192
578.719330	2632.157822
579.073389	2631.530199
579.427394	2632.810652
579.781344	2632.823255
580.135239	2631.711680
580.489080	2632.286372
580.842866	2628.807976
581.196597	2636.573873
581.550273	2634.504479
581.903895	2635.943729
582.257463	2636.838534
582.610975	2633.118162
582.964434	2637.433390
583.317837	2634.842237
583.671186	2638.464306
584.024481	2641.075623
584.377721	2638.567649
584.730906	2636.493215
585.084037	2638.469347
585.437113	2638.623102
585.790135	2642.587970
586.143103	2642.451858
586.496016	2644.707775
586.848874	2645.857158
587.201679	2642.237609
587.554428	2643.490336
587.907124	2645.930255
588.259765	2647.125008
588.612352	2650.671460
588.964884	2649.038126
589.317362	2648.133239
589.669786	2650.036274
590.022155	2650.076604
590.374470	2651.117602
590.726731	2651.866213
591.078937	2649.590132
591.431090	2657.028355
591.783188	2657.839981
592.135232	2657.010711
592.487222	2661.068840
592.839157	2662.601350
593.191038	2663.095383
593.542866	2663.191165
593.894639	2664.244767
594.246358	2667.667710
594.598022	2665.633604
594.949633	2668.229799
595.301190	2669.076712
595.652692	2670.276507
596.004141	2674.218689
596.355535	2672.474450
596.706876	2671.481343
597.058162	2675.456293
597.409395	2676.782116
597.760573	2678.859072
598.111698	2678.112981
598.462768	2681.823270
598.813785	2681.659432
599.164748	2682.430729
599.515657	2687.066070
599.866511	2682.705472
600.217312	2690.733509
600.568060	2690.546987
600.918753	2695.237780
601.269392	2696.412369
601.619978	2694.869776
601.970510	2700.067206
602.320988	2702.570139
602.671412	2708.286807
603.021783	2707.545757
603.372100	2710.346118
603.722363	2713.012889
604.072572	2716.748384
604.422728	2718.356512
604.772830	2720.869527
605.122878	2720.874568
605.472872	2723.576627
605.822813	2730.939232
606.172701	2732.285220
606.522534	2738.614389
606.872314	2741.744945
607.222041	2744.474730
607.571714	2745.798033
607.921333	2747.958167
608.270899	2757.392687
608.620411	2760.803027
608.969870	2760.624066
609.319276	2771.659152
609.668627	2780.206428
610.017926	2787.911832
610.367171	2798.926753
610.716362	2805.097126
611.065500	2803.115952
611.414585	2810.914617
611.763616	2813.233548
612.112594	2815.993580
612.461518	2819.716472
612.810389	2828.236022
613.159207	2829.743327
613.507971	2835.041579
613.856682	2850.684280
614.205340	2853.978674
614.553945	2870.052393
614.902496	2866.153060
615.250994	2882.486399
615.599439	2887.434291
615.947830	2894.628018
616.296169	2900.758061
616.644454	2913.360946
616.992686	2918.560896
617.340864	2937.404729
617.688990	2944.422015
618.037063	2964.672330
618.385082	2968.990078
618.733048	2985.895588
619.080961	2994.032010
619.428821	3011.015657
619.776628	3027.190199
620.124382	3027.409490
620.472083	3042.966490
620.819731	3056.212122
621.167326	3050.245917
621.514868	3056.996022
621.862357	3058.425189
622.209793	3068.399112
622.557176	3069.087229
622.904506	3067.446333
623.251783	3073.410018
623.599007	3081.503591
623.946179	3082.143818
624.293297	3093.252000
624.640363	3096.117896
624.987376	3101.970676
625.334336	3099.828185
625.681243	3110.351594
626.028097	3116.222017
626.374899	3135.622898
626.721647	3138.546767
627.068343	3141.377375
627.414987	3154.242400
627.761577	3174.797705
628.108115	3191.005014
628.454600	3185.626103
628.801032	3201.142775
629.147412	3216.230948
629.493739	3234.197620
629.840014	3242.001327
630.186236	3257.253337
630.532405	3267.098711
630.878521	3294.227680
631.224585	3304.652787
631.570597	3320.797082
631.916556	3329.157835
632.262462	3344.094774
632.608316	3370.480173
632.954117	3376.809342
633.299866	3400.265831
633.645562	3409.024836
633.991206	3407.993920
634.336797	3403.227509
634.682336	3422.772062
635.027823	3421.952875
635.373257	3439.095318
635.718639	3434.848146
636.063968	3444.335598
636.409245	3442.573715
636.754470	3459.738843
637.099642	3464.507775
637.444762	3460.066518
637.789829	3482.673573
638.134845	3484.926969
638.479808	3499.785770
638.824719	3512.189529
639.169577	3514.359745
639.514383	3534.463867
639.859137	3535.925802
640.203839	3559.450346
640.548489	3556.954975
640.893086	3585.689552
641.237632	3577.737132
641.582125	3618.494860
641.926566	3617.252216
642.270955	3632.988178
642.615292	3646.906803
642.959576	3664.671830
643.303809	3695.702652
643.647990	3701.038713
643.992118	3732.611460
644.336195	3720.878174
