Dividing Wavelength (nm)	Counts (n)	Blue Motor Position (mm): 8.500000	Red Motor Position (mm): 0.000000	
326.493990	2137.660959
326.888308	2137.660959
327.282561	2137.660959
327.676750	2107.575353
328.070874	2107.136773
328.464933	2109.881681
328.858929	2113.660026
329.252859	2125.668054
329.646726	2135.261370
330.040528	2150.203350
330.434265	2164.827737
330.827938	2183.500171
331.221547	2201.688654
331.615091	2221.757488
332.008571	2240.182905
332.401986	2260.198806
332.795338	2278.104985
333.188625	2299.580300
333.581847	2316.954637
333.975006	2333.676144
334.368100	2353.316480
334.761129	2372.664428
335.154095	2388.213867
335.546996	2409.477454
335.939833	2419.060688
336.332606	2437.730601
336.725315	2451.505554
337.117960	2458.353961
337.510540	2464.872173
337.903056	2479.375573
338.295508	2482.649802
338.687896	2495.073726
339.080220	2502.539675
339.472480	2509.229286
339.864676	2513.811695
340.256807	2517.708507
340.648875	2520.380318
341.040879	2523.069774
341.432818	2523.856194
341.824694	2526.714528
342.216506	2525.192099
342.608253	2524.556914
342.999937	2526.432223
343.391557	2526.399456
343.783113	2526.104548
344.174605	2523.241173
344.566033	2522.908457
344.957397	2519.389731
345.348697	2516.307066
345.739934	2516.874196
346.131106	2514.305728
346.522215	2515.155162
346.913260	2507.744666
347.304241	2511.891015
347.695159	2510.555109
348.086012	2508.168123
348.476802	2502.680827
348.867528	2502.332987
349.258191	2502.963132
349.648789	2501.896928
350.039324	2496.946514
350.429796	2499.179746
350.820203	2497.553973
351.210548	2498.128665
351.600828	2493.808396
351.991045	2493.967192
352.381198	2494.141112
352.771288	2493.747902
353.161314	2494.254538
353.551276	2492.432161
353.941175	2491.834784
354.331010	2491.988540
354.720782	2492.283447
355.110490	2494.007522
355.500135	2493.818478
355.889717	2490.088025
356.279235	2494.229333
356.668689	2495.759323
357.058080	2496.732265
357.447408	2493.556338
357.836672	2490.508961
358.225873	2493.735299
358.615010	2489.273878
359.004084	2494.940135
359.393095	2495.287975
359.782043	2496.996926
360.170927	2495.519868
360.559748	2499.557832
360.948505	2497.821155
361.337199	2499.474653
361.725830	2499.187307
362.114398	2500.185456
362.502903	2500.152688
362.891344	2497.853922
363.279722	2501.730569
363.668037	2500.714777
364.056289	2502.670745
364.444478	2502.451454
364.832603	2503.532782
365.220665	2504.888852
365.608665	2503.099243
365.996601	2504.659480
366.384474	2504.659480
366.772284	2504.740138
367.160031	2500.949191
367.547715	2505.135869
367.935336	2504.586383
368.322893	2504.394819
368.710388	2506.759120
369.097820	2510.217352
369.485189	2505.748369
369.872495	2508.480674
370.259738	2506.277690
370.646918	2507.137207
371.034035	2506.872546
371.421090	2508.510921
371.808081	2505.879439
372.195010	2508.163082
372.581875	2505.823986
372.968678	2508.921775
373.355418	2511.603669
373.742096	2511.326406
374.128710	2509.680469
374.515262	2509.463699
374.901751	2508.667197
375.288177	2507.341374
375.674540	2510.550068
376.060841	2510.855058
376.447079	2511.767507
376.833254	2511.792713
377.219367	2507.480005
377.605417	2508.473113
377.991404	2506.539830
378.377329	2508.863802
378.763191	2505.702999
379.148991	2515.860924
379.534727	2512.828670
379.920402	2510.005623
380.306013	2514.494771
380.691563	2511.250788
381.077049	2512.637106
381.462474	2513.693227
381.847835	2514.000738
382.233134	2515.603825
382.618371	2514.504853
383.003545	2517.005266
383.388657	2514.131808
383.773706	2515.555934
384.158693	2517.912673
384.543618	2516.654905
384.928480	2514.895543
385.313280	2515.392096
385.698017	2513.365553
386.082692	2516.309586
386.467305	2514.749349
386.851856	2518.240348
387.236344	2517.494257
387.620770	2515.989473
388.005133	2516.475944
388.389435	2516.279339
388.773674	2517.915194
389.157851	2516.735564
389.541965	2518.782272
389.926018	2518.817560
390.310008	2519.031809
390.693936	2515.896212
391.077802	2518.731861
391.461606	2517.995852
391.845348	2517.763959
392.229027	2519.843435
392.612645	2520.662623
392.996200	2520.781090
393.379694	2519.966943
393.763125	2521.146573
394.146494	2517.600122
394.529801	2520.720596
394.913047	2521.940555
395.296230	2518.676408
395.679351	2521.630524
396.062410	2521.202026
396.445408	2521.060874
396.828343	2523.394928
397.211217	2517.627848
397.594028	2519.026768
397.976778	2518.124402
398.359466	2522.023734
398.742092	2515.724813
399.124656	2520.922242
399.507158	2524.186389
399.889598	2523.619259
400.271977	2524.188910
400.654294	2523.881399
401.036549	2523.682274
401.418742	2524.435926
401.800874	2520.947448
402.182944	2523.848632
402.564952	2524.766122
402.946898	2525.408869
403.328783	2524.940042
403.710606	2526.603622
404.092367	2523.100021
404.474067	2526.447347
404.855705	2525.784435
405.237282	2525.431554
405.618797	2527.100176
406.000250	2524.778725
406.381642	2523.281502
406.762972	2525.829805
407.144240	2524.317459
407.525447	2527.231246
407.906593	2525.734023
408.287677	2525.058509
408.668700	2527.548839
409.049661	2526.885927
409.430560	2526.573376
409.811399	2528.698222
410.192176	2527.291740
410.572891	2525.834847
410.953545	2526.427182
411.334138	2528.310053
411.714669	2525.217305
412.095139	2529.330887
412.475547	2526.701925
412.855894	2527.266534
413.236180	2527.894158
413.616405	2532.370703
413.996568	2526.013808
414.376670	2532.607637
414.756711	2530.384488
415.136691	2530.467667
415.516609	2527.390043
415.896466	2533.081505
416.276262	2532.494211
416.655997	2526.001205
417.035670	2526.913653
417.415283	2529.421628
417.794834	2525.348375
418.174324	2528.602440
418.553753	2528.040351
418.933121	2528.680578
419.312428	2527.516071
419.691674	2532.065713
420.070859	2530.258459
420.449983	2531.208717
420.829045	2530.008922
421.208047	2532.668131
421.586988	2530.029087
421.965867	2533.968748
422.344686	2531.296937
422.723444	2531.869108
423.102141	2533.981351
423.480777	2531.851464
423.859352	2531.087729
424.237866	2531.869108
424.616319	2531.400280
424.994712	2531.765764
425.373044	2530.732327
425.751314	2535.017308
426.129524	2533.751979
426.507673	2531.173428
426.885762	2537.419418
427.263789	2533.159643
427.641756	2535.435724
428.019662	2533.313398
428.397508	2534.288862
428.775292	2535.970086
429.153016	2533.139478
429.530679	2534.445137
429.908282	2532.095960
430.285824	2533.681402
430.663305	2535.902031
431.040726	2534.490508
431.418086	2537.391692
431.795385	2535.362627
432.172624	2533.446989
432.549802	2533.809952
432.926920	2534.387164
433.303977	2535.586959
433.680974	2534.064530
434.057910	2536.368338
434.434786	2534.888759
434.811601	2537.129552
435.188355	2535.652494
435.565050	2535.728111
435.941683	2538.551157
436.318257	2532.461443
436.694770	2533.431865
437.071222	2532.257277
437.447614	2531.619571
437.823946	2534.888759
438.200218	2535.929757
438.576429	2532.990764
438.952580	2538.074768
439.328670	2536.854809
439.704700	2536.910262
440.080670	2536.970755
440.456580	2538.004192
440.832429	2535.143337
441.208218	2537.573173
441.583947	2538.062165
441.959616	2536.706095
442.335224	2537.106867
442.710773	2537.401774
443.086261	2537.696682
443.461689	2538.266332
443.837057	2538.031918
444.212365	2538.009233
444.587612	2537.686599
444.962800	2536.267514
445.337927	2535.919675
445.712995	2537.605941
446.088002	2539.183822
446.462949	2538.868750
446.837837	2537.369007
447.212664	2538.180632
447.587431	2541.238092
447.962139	2539.317413
448.336786	2538.523431
448.711374	2537.903369
449.085901	2537.996630
449.460369	2538.868750
449.834776	2542.886549
450.209124	2539.173740
450.583412	2539.715664
450.957640	2538.931764
451.331808	2539.362783
451.705917	2541.210366
452.079965	2537.893287
452.453954	2543.095757
452.827883	2540.318082
453.201752	2539.390509
453.575562	2540.733977
453.949311	2544.008206
454.323001	2538.979655
454.696632	2537.817669
455.070202	2541.104502
455.443713	2539.728267
455.817164	2539.188863
456.190556	2537.568132
456.563888	2536.340611
456.937160	2535.208872
457.310373	2540.751621
457.683526	2541.601055
458.056619	2540.179450
458.429653	2541.958977
458.802628	2541.175078
459.175542	2538.495704
459.548398	2540.844882
459.921194	2541.137269
460.293930	2540.771785
460.666607	2542.276570
461.039224	2540.005530
461.411782	2542.082485
461.784280	2544.005686
462.156719	2541.442259
462.529099	2541.878319
462.901419	2538.415046
463.273680	2543.544420
463.645882	2541.056611
464.018024	2539.859337
464.390106	2543.753628
464.762130	2542.107691
465.134094	2541.157434
465.505999	2542.453010
465.877845	2542.649615
466.249631	2543.932589
466.621358	2542.770603
466.993026	2542.901673
467.364634	2544.719009
467.736184	2543.927548
468.107674	2540.915458
468.479105	2541.434697
468.850477	2543.357897
469.221790	2542.826056
469.593043	2544.073741
469.964238	2542.027033
470.335373	2544.713968
470.706449	2542.095088
471.077467	2543.494008
471.448425	2544.991231
471.819324	2543.862013
472.190164	2543.531817
472.560945	2542.473175
472.931667	2541.056611
473.302330	2542.558874
473.672934	2543.614996
474.043479	2539.851775
474.413965	2543.073072
474.784393	2537.580735
475.154761	2541.895963
475.525070	2538.962011
475.895321	2540.214738
476.265513	2539.980324
476.635645	2544.313196
477.005719	2543.897301
477.375734	2545.555840
477.745691	2545.543238
478.115588	2545.298742
478.485427	2544.434184
478.855207	2544.726571
479.224928	2545.974256
479.594591	2542.737835
479.964194	2543.788916
480.333739	2547.801674
480.703226	2542.422763
481.072653	2544.469472
481.442022	2546.196067
481.811333	2546.415357
482.180584	2546.851417
482.549777	2544.945861
482.918912	2546.362425
483.287988	2544.529966
483.657005	2544.852599
484.025964	2548.043650
484.394864	2545.364277
484.763706	2545.830583
485.132489	2546.007024
485.501213	2544.270346
485.869879	2544.290511
486.238487	2545.434853
486.607036	2546.334699
486.975527	2547.557178
487.343959	2545.107178
487.712333	2546.682538
488.080648	2546.806047
488.448905	2545.593649
488.817104	2545.628937
489.185244	2543.463762
489.553326	2545.886036
489.921350	2548.404092
490.289315	2547.383259
490.657222	2544.663556
491.025070	2547.952909
491.392861	2548.396531
491.760593	2546.465769
492.128267	2546.909390
492.495883	2548.799823
492.863440	2544.950902
493.230939	2547.284956
493.598380	2546.070038
493.965763	2543.804039
494.333088	2543.985521
494.700354	2542.412681
495.067563	2544.890408
495.434713	2538.457896
495.801805	2545.651622
496.168839	2547.829401
496.535815	2548.310831
496.902733	2549.256047
497.269593	2547.562220
497.636395	2544.532486
498.003139	2545.502908
498.369825	2544.293031
498.736453	2548.714123
499.103023	2546.284287
499.469535	2548.157076
499.835989	2542.992414
500.202385	2549.049360
500.568723	2546.296890
500.935003	2548.053732
501.301226	2546.178423
501.667390	2547.161448
502.033497	2547.529452
502.399546	2546.052394
502.765537	2546.566592
503.131470	2547.216901
503.497345	2547.655481
503.863163	2548.104144
504.228923	2548.656150
504.594625	2546.647250
504.960269	2547.552137
505.325856	2547.547096
505.691385	2547.504246
506.056856	2547.791592
506.422270	2547.418547
506.787625	2549.419885
507.152924	2547.436191
507.518164	2548.588094
507.883347	2548.545245
508.248472	2547.494164
508.613540	2548.570450
508.978550	2550.803682
509.343503	2548.038609
509.708398	2547.927703
510.073236	2548.283105
510.438016	2549.124977
510.802738	2550.052550
511.167403	2547.784030
511.532010	2546.906870
511.896561	2547.663043
512.261053	2548.215049
512.625488	2547.602549
512.989866	2544.721529
513.354186	2544.426622
513.718449	2544.325799
514.082655	2549.485420
514.446803	2546.732950
514.810894	2553.495658
515.174927	2550.997766
515.538904	2548.741850
515.902822	2545.684390
516.266684	2547.126160
516.630488	2547.741181
516.994235	2548.076417
517.357925	2549.498023
517.721558	2546.410316
518.085133	2550.153373
518.448651	2548.260419
518.812112	2551.990873
519.175516	2548.429298
519.538863	2549.583722
519.902152	2547.869730
520.265385	2548.623383
520.628560	2549.225800
520.991678	2549.061963
521.354739	2551.476676
521.717743	2549.130018
522.080690	2550.642365
522.443580	2547.635316
522.806413	2549.225800
523.169189	2548.525080
523.531908	2549.495502
523.894569	2547.065666
524.257174	2548.746891
524.619722	2548.361243
524.982213	2549.974412
525.344647	2550.705379
525.707025	2548.600697
526.069345	2550.672612
526.431608	2547.842004
526.793815	2549.195553
527.155964	2551.746377
527.518057	2547.519370
527.880093	2551.123795
528.242072	2550.478527
528.603995	2549.316541
528.965860	2551.179247
529.327669	2548.464586
529.689421	2551.010369
530.051117	2550.463404
530.412755	2549.795451
530.774337	2550.566747
531.135862	2550.365101
531.497331	2550.667570
531.858743	2547.766386
532.220098	2548.671273
532.581396	2544.305634
532.942638	2546.730429
533.303824	2548.764535
533.664953	2553.740154
534.026025	2552.202602
534.387040	2550.274360
534.747999	2551.590102
535.108902	2550.652447
535.469748	2551.060780
535.830537	2553.316697
536.191270	2551.834598
536.551947	2549.676984
536.912567	2552.381563
537.273131	2552.318548
537.633638	2553.909032
537.994089	2553.460370
538.354483	2551.050698
538.714821	2552.547921
539.075103	2554.561862
539.435328	2552.769732
539.795497	2552.631100
540.155609	2553.717468
540.515665	2551.716130
540.875665	2554.955072
541.235609	2555.272664
541.595496	2554.803837
541.955328	2555.282747
542.315102	2557.062274
542.674821	2553.523384
543.034483	2555.565051
543.394090	2551.670760
543.753640	2557.319373
544.113134	2555.428940
544.472571	2555.938097
544.831953	2556.527912
545.191278	2554.226625
545.550548	2554.728220
545.909761	2555.799465
546.268918	2556.976574
546.628019	2556.958930
546.987064	2556.396842
547.346053	2555.623025
547.704986	2556.502706
548.063863	2554.264434
548.422684	2556.908519
548.781449	2555.431461
549.140158	2553.755277
549.498811	2559.875238
549.857408	2555.113868
550.215949	2555.915412
550.574434	2552.416851
550.932864	2554.030020
551.291237	2552.056408
551.649555	2556.540515
552.007817	2556.732078
552.366022	2557.153015
552.724173	2557.306770
553.082267	2555.872562
553.440305	2556.323745
553.798288	2557.677295
554.156215	2556.628735
554.514086	2557.833571
554.871902	2557.324414
555.229661	2558.564538
555.587365	2557.974723
555.945014	2557.841132
556.302606	2558.567058
556.660143	2558.393139
557.017625	2558.128478
557.375050	2558.589744
557.732421	2556.207798
558.089735	2561.760629
558.446994	2557.299208
558.804197	2557.170659
559.161345	2559.149312
559.518437	2555.179403
559.875474	2557.876420
560.232455	2558.143602
560.589381	2558.098231
560.946251	2562.748696
561.303065	2555.686039
561.659825	2558.317521
562.016528	2557.074877
562.373177	2559.088818
562.729770	2555.244938
563.086307	2557.861297
563.442789	2554.493806
563.799216	2557.218550
564.155587	2556.059084
564.511904	2559.645865
564.868164	2556.711914
565.224370	2558.403221
565.580520	2557.440361
565.936615	2554.813919
566.292654	2558.118396
566.648638	2560.301215
567.004567	2556.631255
567.360441	2556.008673
567.716260	2555.517160
568.072023	2555.595298
568.427732	2552.840308
568.783385	2552.489948
569.138982	2555.040771
569.494525	2555.539846
569.850013	2553.205791
570.205445	2558.128478
570.560823	2556.966492
570.916145	2560.074363
571.271412	2556.931204
571.626625	2558.307439
571.981782	2557.672254
572.336884	2554.781152
572.691931	2557.989846
573.046923	2555.723848
573.401860	2554.229146
573.756743	2559.350958
574.111570	2555.363405
574.466342	2555.741492
574.821059	2556.341389
575.175722	2558.519168
575.530330	2556.464897
575.884882	2558.499003
576.239380	2556.669064
576.593823	2557.314332
576.948211	2557.064795
577.302544	2555.847356
577.656823	2556.026317
578.011047	2556.326266
578.365216	2554.695452
578.719330	2555.706204
579.073389	2556.013714
579.427394	2553.576316
579.781344	2553.382232
580.135239	2555.262582
580.489080	2557.906667
580.842866	2555.625545
581.196597	2559.613098
581.550273	2558.269630
581.903895	2555.433981
582.257463	2555.880123
582.610975	2555.486913
582.964434	2554.065308
583.317837	2554.536656
583.671186	2554.362736
584.024481	2555.698642
584.377721	2557.263920
584.730906	2555.504557
585.084037	2555.239897
585.437113	2553.881306
585.790135	2554.390463
586.143103	2553.442726
586.496016	2555.192006
586.848874	2549.205636
587.201679	2549.876109
587.554428	2551.837118
587.907124	2550.859134
588.259765	2548.706562
588.612352	2554.332489
588.964884	2553.319217
589.317362	2554.917263
589.669786	2552.260575
590.022155	2553.835936
590.374470	2555.930535
590.726731	2554.113199
591.078937	2551.980791
591.431090	2555.738971
591.783188	2553.535987
592.135232	2554.977757
592.487222	2556.568241
592.839157	2553.924156
593.191038	2553.233518
593.542866	2554.443395
593.894639	2553.130174
594.246358	2556.666543
594.598022	2556.225442
594.949633	2555.474311
595.301190	2550.891902
595.652692	2552.129505
596.004141	2555.285267
596.355535	2552.729402
596.706876	2552.633620
597.058162	2554.816440
597.409395	2555.542366
597.760573	2554.758467
598.111698	2552.986501
598.462768	2554.758467
598.813785	2552.608415
599.164748	2553.223435
599.515657	2550.503733
599.866511	2557.546225
600.217312	2553.669577
600.568060	2551.741336
600.918753	2555.098745
601.269392	2554.113199
601.619978	2552.343754
601.970510	2555.381049
602.320988	2553.518343
602.671412	2551.847200
603.021783	2552.797458
603.372100	2554.960113
603.722363	2553.457849
604.072572	2554.229146
604.422728	2553.309135
604.772830	2549.482899
605.122878	2549.513146
605.472872	2552.797458
605.822813	2548.353681
606.172701	2553.548590
606.522534	2552.933569
606.872314	2553.631769
607.222041	2555.804506
607.571714	2555.207129
607.921333	2552.671429
608.270899	2552.742005
608.620411	2555.781821
608.969870	2555.320555
609.319276	2555.176882
609.668627	2556.832902
610.017926	2559.509754
610.367171	2560.964127
610.716362	2560.646534
611.065500	2559.595454
611.414585	2559.078736
611.763616	2560.351627
612.112594	2558.715772
612.461518	2558.312480
612.810389	2556.532953
613.159207	2555.938097
613.507971	2556.283416
613.856682	2555.610422
614.205340	2557.205947
614.553945	2557.629404
614.902496	2559.028324
615.250994	2555.925494
615.599439	2555.917932
615.947830	2554.521533
616.296169	2555.204609
616.644454	2557.279044
616.992686	2554.599670
617.340864	2558.655279
617.688990	2553.006666
618.037063	2554.287119
618.385082	2557.006821
618.733048	2555.149156
619.080961	2555.224773
619.428821	2555.030689
619.776628	2556.351471
620.124382	2555.733930
620.472083	2556.724517
620.819731	2556.787531
621.167326	2554.445915
621.514868	2555.905329
621.862357	2559.078736
622.209793	2558.814075
622.557176	2556.752243
622.904506	2555.945658
623.251783	2551.643034
623.599007	2552.971378
623.946179	2552.431974
624.293297	2554.307283
624.640363	2553.578837
624.987376	2555.353323
625.334336	2556.406924
625.681243	2560.366750
626.028097	2555.118909
626.374899	2557.775597
626.721647	2553.510781
627.068343	2556.187634
627.414987	2556.709393
627.761577	2556.767367
628.108115	2557.871379
628.454600	2554.793755
628.801032	2554.944989
629.147412	2556.502706
629.493739	2558.504044
629.840014	2556.709393
630.186236	2556.389280
630.532405	2559.255176
630.878521	2559.103941
631.224585	2558.083108
631.570597	2559.051009
631.916556	2558.912377
632.262462	2558.463715
632.608316	2559.018242
632.954117	2558.216698
633.299866	2558.917419
633.645562	2557.263920
633.991206	2558.650237
634.336797	2556.389280
634.682336	2557.039589
635.027823	2556.336348
635.373257	2557.347099
635.718639	2556.721996
636.063968	2558.995557
636.409245	2555.660833
636.754470	2558.519168
637.099642	2558.375495
637.444762	2560.059240
637.789829	2559.003118
638.134845	2558.940104
638.479808	2557.372305
638.824719	2558.188972
639.169577	2558.493962
639.514383	2559.514795
639.859137	2559.809703
640.203839	2561.165773
640.548489	2557.946997
640.893086	2555.244938
641.237632	2556.263251
641.582125	2555.965823
641.926566	2554.824002
642.270955	2559.703839
642.615292	2559.247614
642.959576	2560.775084
643.303809	2562.514282
643.647990	2562.526885
643.992118	2558.861966
644.336195	2561.604354
