Dividing Wavelength (nm)	Counts (n)	Blue Motor Position (mm): 21.000000	Red Motor Position (mm): 0.000000	
326.493990	2102.287183
326.888308	2102.287183
327.282561	2102.287183
327.676750	2078.313976
328.070874	2080.345561
328.464933	2088.164390
328.858929	2096.555391
329.252859	2108.613831
329.646726	2122.524895
330.040528	2141.630868
330.434265	2158.919505
330.827938	2181.045129
331.221547	2199.004240
331.615091	2218.606767
332.008571	2242.395972
332.401986	2260.715525
332.795338	2280.726385
333.188625	2300.069292
333.581847	2316.750470
333.975006	2336.123624
334.368100	2355.895030
334.761129	2372.309027
335.154095	2390.293343
335.546996	2427.262645
335.939833	2494.428458
336.332606	2506.373472
336.725315	2519.712365
337.117960	2526.165042
337.510540	2535.148378
337.903056	2546.173382
338.295508	2550.344937
338.687896	2558.146122
339.080220	2565.065106
339.472480	2570.814542
339.864676	2573.468709
340.256807	2578.933320
340.648875	2580.536407
341.040879	2578.330902
341.432818	2581.032961
341.824694	2582.005903
342.216506	2580.266705
342.608253	2581.746284
342.999937	2578.787127
343.391557	2578.509863
343.783113	2573.546847
344.174605	2575.535582
344.566033	2570.214644
344.957397	2571.767320
345.348697	2572.107598
345.739934	2569.403019
346.131106	2567.918399
346.522215	2566.779098
346.913260	2567.452092
347.304241	2562.579817
347.695159	2561.599312
348.086012	2559.119065
348.476802	2556.290978
348.867528	2558.637635
349.258191	2553.518343
349.648789	2554.894578
350.039324	2553.230997
350.429796	2552.535318
350.820203	2552.326110
351.210548	2552.757129
351.600828	2549.475337
351.991045	2549.051881
352.381198	2550.231511
352.771288	2548.494833
353.161314	2549.228321
353.551276	2547.390820
353.941175	2546.659853
354.331010	2548.530121
354.720782	2553.982129
355.110490	2550.944834
355.500135	2549.886192
355.889717	2549.840821
356.279235	2551.668239
356.668689	2550.188661
357.058080	2549.954247
357.447408	2550.024823
357.836672	2549.114895
358.225873	2547.975594
358.615010	2550.544062
359.004084	2551.398538
359.393095	2551.879968
359.782043	2555.668395
360.170927	2555.446584
360.559748	2558.100752
360.948505	2552.371480
361.337199	2559.698798
361.725830	2555.890206
362.114398	2557.117727
362.502903	2558.733417
362.891344	2558.993036
363.279722	2557.198385
363.668037	2559.529919
364.056289	2560.351627
364.444478	2561.861452
364.832603	2560.822975
365.220665	2559.756771
365.608665	2561.841288
365.996601	2564.187945
366.384474	2561.889179
366.772284	2561.599312
367.160031	2564.082081
367.547715	2562.650393
367.935336	2562.829354
368.322893	2567.946125
368.710388	2564.787842
369.097820	2565.503686
369.485189	2566.668193
369.872495	2566.685837
370.259738	2565.617112
370.646918	2562.305074
371.034035	2566.549726
371.421090	2568.566187
371.808081	2564.213151
372.195010	2567.217678
372.581875	2568.223389
372.968678	2566.401012
373.355418	2569.271949
373.742096	2566.658110
374.128710	2570.055848
374.515262	2568.944274
374.901751	2568.356979
375.288177	2569.450910
375.674540	2568.009140
376.060841	2570.469223
376.447079	2570.943091
376.833254	2571.621126
377.219367	2566.058213
377.605417	2570.784295
377.991404	2567.497462
378.377329	2568.707339
378.763191	2569.307237
379.148991	2572.941909
379.534727	2572.712536
379.920402	2574.910479
380.306013	2574.287897
380.691563	2575.603638
381.077049	2575.288566
381.462474	2575.545665
381.847835	2573.521641
382.233134	2576.979873
382.618371	2574.870150
383.003545	2575.908628
383.388657	2575.616241
383.773706	2575.470047
384.158693	2578.033474
384.543618	2576.931982
384.928480	2581.388362
385.313280	2578.315779
385.698017	2576.760583
386.082692	2575.195304
386.467305	2577.748649
386.851856	2578.446849
387.236344	2580.400296
387.620770	2578.560275
388.005133	2582.162179
388.389435	2581.995821
388.773674	2579.215625
389.157851	2581.254771
389.541965	2581.544638
389.926018	2579.651684
390.310008	2578.736715
390.693936	2582.197467
391.077802	2580.889288
391.461606	2583.785431
391.845348	2582.555389
392.229027	2583.490523
392.612645	2583.457756
392.996200	2586.490010
393.379694	2584.453383
393.763125	2585.411203
394.146494	2583.823239
394.529801	2586.865576
394.913047	2586.835329
395.296230	2588.055288
395.679351	2585.000349
396.062410	2585.370873
396.445408	2585.149063
396.828343	2585.363312
397.211217	2584.660071
397.594028	2584.423137
397.976778	2585.680904
398.359466	2583.790472
398.742092	2582.510019
399.124656	2588.700556
399.507158	2591.563931
399.889598	2590.202819
400.271977	2589.000504
400.654294	2587.341965
401.036549	2589.993612
401.418742	2591.175762
401.800874	2589.393714
402.182944	2591.700042
402.564952	2589.736513
402.946898	2588.151070
403.328783	2592.536874
403.710606	2588.766091
404.092367	2591.863880
404.474067	2594.129878
404.855705	2590.434712
405.237282	2592.927563
405.618797	2591.465628
406.000250	2593.900506
406.381642	2596.411000
406.762972	2597.295723
407.144240	2593.535022
407.525447	2592.917481
407.906593	2594.873448
408.287677	2595.795980
408.668700	2593.918150
409.049661	2595.647266
409.430560	2594.104672
409.811399	2596.761361
410.192176	2596.950404
410.572891	2597.179776
410.953545	2597.235229
411.334138	2597.572986
411.714669	2597.237750
412.095139	2596.665579
412.475547	2597.507451
412.855894	2596.678182
413.236180	2597.525095
413.616405	2600.227154
413.996568	2599.458378
414.376670	2598.969386
414.756711	2596.607605
415.136691	2600.128851
415.516609	2600.310333
415.896466	2600.055755
416.276262	2603.229161
416.655997	2598.082143
417.035670	2600.244798
417.415283	2597.729262
417.794834	2598.571135
418.174324	2597.782194
418.553753	2599.841506
418.933121	2601.129520
419.312428	2602.228492
419.691674	2602.634305
420.070859	2601.978955
420.449983	2602.157916
420.829045	2605.303596
421.208047	2600.917792
421.586988	2607.216714
421.965867	2607.912393
422.344686	2603.062803
422.723444	2605.941302
423.102141	2605.958946
423.480777	2608.303082
423.859352	2606.926847
424.237866	2608.882815
424.616319	2604.053390
424.994712	2608.449276
425.373044	2608.502208
425.751314	2610.012033
426.129524	2605.001127
426.507673	2609.565891
426.885762	2607.073041
427.263789	2607.010026
427.641756	2610.480861
428.019662	2606.800818
428.397508	2611.204266
428.775292	2610.606890
429.153016	2609.722167
429.530679	2612.479678
429.908282	2612.867847
430.285824	2610.740480
430.663305	2609.631426
431.040726	2610.067486
431.418086	2612.192332
431.795385	2611.778958
432.172624	2612.822477
432.549802	2614.649895
432.926920	2614.947323
433.303977	2613.737446
433.680974	2613.160234
434.057910	2615.567385
434.434786	2614.170985
434.811601	2616.041253
435.188355	2617.518312
435.565050	2617.369597
435.941683	2616.492437
436.318257	2618.143415
436.694770	2615.834566
437.071222	2613.107302
437.447614	2615.146449
437.823946	2614.332302
438.200218	2616.618466
438.576429	2618.425719
438.952580	2620.457304
439.328670	2620.217849
439.704700	2617.377159
440.080670	2617.195678
440.456580	2616.285749
440.832429	2622.037706
441.208218	2619.360853
441.583947	2619.547376
441.959616	2618.639968
442.335224	2617.493106
442.710773	2620.185082
443.086261	2622.314969
443.461689	2621.606687
443.837057	2623.066101
444.212365	2622.456122
444.587612	2625.347223
444.962800	2623.187089
445.337927	2626.262193
445.712995	2621.034516
446.088002	2626.027779
446.462949	2628.147584
446.837837	2628.818058
447.212664	2627.303191
447.587431	2631.769653
447.962139	2632.873666
448.336786	2634.789305
448.711374	2635.772330
449.085901	2631.777215
449.460369	2632.997174
449.834776	2632.661938
450.209124	2637.657721
450.583412	2638.234933
450.957640	2638.199645
451.331808	2637.698050
451.705917	2637.693009
452.079965	2639.318781
452.453954	2638.721405
452.827883	2639.502783
453.201752	2638.529841
453.575562	2642.280459
453.949311	2642.832466
454.323001	2647.429998
454.696632	2645.058135
455.070202	2649.317910
455.443713	2652.307314
455.817164	2650.701707
456.190556	2652.884526
456.563888	2653.270175
456.937160	2655.064825
457.310373	2658.308808
457.683526	2657.300577
458.056619	2658.482728
458.429653	2658.505413
458.802628	2662.923984
459.175542	2662.649241
459.548398	2669.326250
459.921194	2672.655932
460.293930	2678.591890
460.666607	2686.435926
461.039224	2686.763601
461.411782	2688.575896
461.784280	2691.809796
462.156719	2690.083201
462.529099	2692.346679
462.901419	2691.063705
463.273680	2690.279806
463.645882	2691.232584
464.018024	2695.643593
464.390106	2701.163657
464.762130	2709.509287
465.134094	2723.601832
465.505999	2741.450038
465.877845	2759.963675
466.249631	2764.987185
466.621358	2763.585744
466.993026	2767.056579
467.364634	2759.792276
467.736184	2754.962851
468.107674	2752.769949
468.479105	2751.938158
468.850477	2755.237593
469.221790	2753.384969
469.593043	2749.261306
469.964238	2749.893970
470.335373	2752.225504
470.706449	2764.251177
471.077467	2779.687190
471.448425	2804.192238
471.819324	2819.426605
472.190164	2816.333857
472.560945	2804.948412
472.931667	2795.387863
473.302330	2797.064047
473.672934	2797.721917
474.043479	2808.489822
474.413965	2807.496715
474.784393	2810.715492
475.154761	2822.829384
475.525070	2828.871207
475.895321	2835.752382
476.265513	2843.916531
476.635645	2859.992770
477.005719	2871.927702
477.375734	2884.018910
477.745691	2901.728483
478.115588	2921.797317
478.485427	2952.286215
478.855207	2997.719614
479.224928	3040.592107
479.594591	3071.199473
479.964194	3078.108374
480.333739	3098.542691
480.703226	3120.247379
481.072653	3155.976557
481.442022	3189.585929
481.811333	3217.150959
482.180584	3227.931466
482.549777	3250.044488
482.918912	3273.410236
483.287988	3302.013743
483.657005	3316.837255
484.025964	3342.489167
484.394864	3375.511245
484.763706	3406.264804
485.132489	3426.230294
485.501213	3464.946355
485.869879	3511.718181
486.238487	3544.962070
486.607036	3597.584154
486.975527	3635.536481
487.343959	3687.795602
487.712333	3746.542689
488.080648	3799.807520
488.448905	3874.482132
488.817104	3930.328034
489.185244	4028.423847
489.553326	4177.624357
489.921350	4370.385477
490.289315	4585.143672
490.657222	4699.207340
491.025070	4804.512002
491.392861	4849.153940
491.760593	4879.350452
492.128267	4891.703799
492.495883	4907.162497
492.863440	4939.516623
493.230939	4970.741530
493.598380	5014.077809
493.965763	5103.853197
494.333088	5167.699411
494.700354	5247.079940
495.067563	5350.562225
495.434713	5456.053411
495.801805	5586.059727
496.168839	5681.264438
496.535815	5784.968534
496.902733	5916.761940
497.269593	6020.680285
497.636395	6146.000849
498.003139	6314.055275
498.369825	6408.052629
498.736453	6581.337252
499.103023	6683.150915
499.469535	6816.905330
499.835989	6977.584547
500.202385	7097.017043
500.568723	7258.994357
500.935003	7451.415200
501.301226	7594.490708
501.667390	7842.379366
502.033497	8047.960140
502.399546	8144.236096
502.765537	8212.609266
503.131470	8451.242365
503.497345	8694.861166
503.863163	8670.978700
504.228923	8949.598232
504.594625	9209.452068
504.960269	9280.529817
505.325856	9605.293551
505.691385	9686.057877
506.056856	9913.741590
506.422270	10200.003511
506.787625	10326.962450
507.152924	10575.133413
507.518164	10810.668723
507.883347	10849.528458
508.248472	11117.944694
508.613540	11448.601537
508.978550	11737.915877
509.343503	11921.227354
509.708398	12194.105012
510.073236	12555.654045
510.438016	12814.121564
510.802738	12916.900609
511.167403	13329.687930
511.532010	13635.822080
511.896561	13966.791474
512.261053	14461.585765
512.625488	14588.484210
512.989866	14808.666687
513.354186	15019.374314
513.718449	15263.938332
514.082655	15756.743887
514.446803	15908.061682
514.810894	16360.669077
515.174927	16590.278511
515.538904	16834.711458
515.902822	17339.683839
516.266684	17416.662258
516.630488	17864.251185
516.994235	18088.461543
517.357925	18589.280013
517.721558	18950.118244
518.085133	19360.821048
518.448651	19700.788902
518.812112	19883.192971
519.175516	20212.007272
519.538863	20646.496760
519.902152	20919.608832
520.265385	21424.140111
520.628560	21719.453424
520.991678	21911.680182
521.354739	22315.872336
521.717743	22768.472169
522.080690	22986.660869
522.443580	23564.235948
522.806413	23872.704152
523.169189	24147.293281
523.531908	24529.765623
523.894569	24731.031170
524.257174	25115.308246
524.619722	25575.119450
524.982213	25844.145666
525.344647	26079.149135
525.707025	26393.376857
526.069345	26909.006237
526.431608	27137.927553
526.793815	27608.128576
527.155964	27616.864895
527.518057	27996.055446
527.880093	28144.257808
528.242072	28740.885927
528.603995	28840.473921
528.965860	29103.259189
529.327669	29446.637383
529.689421	29653.906944
530.051117	29886.702388
530.412755	30252.319632
530.774337	30558.005119
531.135862	30690.204338
531.497331	31079.184809
531.858743	31265.226072
532.220098	31749.844794
532.581396	31804.332105
532.942638	31816.428354
533.303824	32291.995684
533.664953	32506.375792
534.026025	32546.326937
534.387040	33135.448778
534.747999	33338.471167
535.108902	33690.293294
535.469748	33562.799992
535.830537	33871.328690
536.191270	34262.907877
536.551947	34235.695728
536.912567	34680.973286
537.273131	35009.558214
537.633638	34828.789999
537.994089	35302.396321
538.354483	35200.547369
538.714821	35862.720571
539.075103	36343.606318
539.435328	36359.412856
539.795497	36463.968908
540.155609	36666.716553
540.515665	37255.616584
540.875665	37004.183995
541.235609	37452.743343
541.595496	37636.379975
541.955328	38396.926253
542.315102	38055.592247
542.674821	38056.907988
543.034483	38260.419369
543.394090	38438.835886
543.753640	38581.016589
544.113134	39619.642995
544.472571	38936.528840
544.831953	40186.858502
545.191278	39671.697950
545.550548	39598.039130
545.909761	40180.269714
546.268918	40510.243480
546.628019	40954.172529
546.987064	40715.796528
547.346053	40243.334549
547.704986	41175.529595
548.063863	40935.462287
548.422684	41245.689853
548.781449	41228.365928
549.140158	41745.174938
549.498811	41750.342121
549.857408	41390.512121
550.215949	42286.123513
550.574434	42340.525125
550.932864	42260.484205
551.291237	43058.309815
551.649555	42824.420442
552.007817	43186.438302
552.366022	42973.885612
552.724173	43261.990075
553.082267	43756.000467
553.440305	44129.731448
553.798288	43603.273670
554.156215	44021.805385
554.514086	44329.156974
554.871902	44200.998240
555.229661	44324.738402
555.587365	44286.859172
555.945014	44481.505684
556.302606	44518.069173
556.660143	44822.517057
557.017625	44999.302760
557.375050	44896.201082
557.732421	45312.650801
558.089735	45402.106076
558.446994	45411.036480
558.804197	45960.295397
559.161345	45981.127966
559.518437	45339.260532
559.875474	45722.877216
560.232455	45970.720503
560.589381	46222.563947
560.946251	46028.051026
561.303065	46749.306550
561.659825	46621.409957
562.016528	46386.963535
562.373177	46187.452310
562.729770	46720.163640
563.086307	46334.807758
563.442789	46836.586568
563.799216	46939.375694
564.155587	46795.082748
564.511904	46887.368631
564.868164	47043.977116
565.224370	47320.590269
565.580520	47122.359497
565.936615	47404.343999
566.292654	47163.646547
566.648638	47468.651478
567.004567	47485.829210
567.360441	47579.035103
567.716260	47482.476842
568.072023	47817.408583
568.427732	47832.995831
568.783385	47422.197245
569.138982	47866.113691
569.494525	47860.507928
569.850013	47653.964293
570.205445	47676.246193
570.560823	47655.471598
570.916145	47580.885207
571.271412	47645.906009
571.626625	47420.478212
571.981782	47509.878034
572.336884	47234.076507
572.691931	47573.063856
573.046923	47216.618991
573.401860	47087.540247
573.756743	47093.340095
574.111570	47219.013539
574.466342	47102.862834
574.821059	47254.047038
575.175722	46793.116698
575.530330	46828.656832
575.884882	46556.837817
576.239380	46558.738332
576.593823	46538.639252
576.948211	46485.969276
577.302544	46030.395162
577.656823	46068.004690
578.011047	46299.391131
578.365216	46049.526341
578.719330	45845.672162
579.073389	45729.211426
579.427394	45800.621890
579.781344	45790.784079
580.135239	45451.317820
580.489080	45541.677982
580.842866	45041.585438
581.196597	45485.625392
581.550273	45452.084075
581.903895	45335.328432
582.257463	45747.793119
582.610975	45118.337005
582.964434	45431.422906
583.317837	45069.843626
583.671186	44914.228248
584.024481	45143.658721
584.377721	44663.912274
584.730906	44955.215349
585.084037	45016.914031
585.437113	44723.965019
585.790135	44749.027116
586.143103	44367.991502
586.496016	44496.296429
586.848874	44515.112536
587.201679	44527.390266
587.554428	44005.174619
587.907124	44205.545361
588.259765	43971.197242
588.612352	44217.923914
588.964884	43605.937919
589.317362	43883.982760
589.669786	43822.609232
590.022155	43599.092032
590.374470	44020.371177
590.726731	43553.149477
591.078937	43071.068976
591.431090	43188.313611
591.783188	42821.622601
592.135232	42505.176771
592.487222	42779.818833
592.839157	42846.888864
593.191038	42498.295596
593.542866	42266.742797
593.894639	41658.139417
594.246358	41952.930970
594.598022	41926.858123
594.949633	41528.579243
595.301190	41486.697336
595.652692	41329.496515
596.004141	41637.846252
596.355535	40666.975474
596.706876	40621.887394
597.058162	40436.206574
597.409395	40909.495303
597.760573	40992.071924
598.111698	40588.139390
598.462768	40592.152148
598.813785	40614.149223
599.164748	40069.066902
599.515657	40464.863013
599.866511	39958.925252
600.217312	40576.771588
600.568060	39552.600690
600.918753	40300.506275
601.269392	40246.850754
601.619978	39895.066435
601.970510	40097.093196
602.320988	40279.782091
602.671412	40591.534607
603.021783	40354.015602
603.372100	40005.039207
603.722363	40094.963309
604.072572	40168.967447
604.422728	40201.046830
604.772830	40007.383343
605.122878	40108.826482
605.472872	40041.978261
605.822813	40312.723511
606.172701	40124.486826
606.522534	40400.298436
606.872314	40640.663172
607.222041	40405.926884
607.571714	40794.761162
607.921333	40236.745761
608.270899	40516.882680
608.620411	40867.341175
608.969870	40660.628661
609.319276	40666.499085
609.668627	40725.841027
610.017926	41193.513911
610.367171	41353.041224
610.716362	41421.411873
611.065500	41368.484799
611.414585	41569.730181
611.763616	41863.513504
612.112594	41793.290231
612.461518	42015.274920
612.810389	42320.834378
613.159207	42194.245964
613.507971	42255.392639
613.856682	42728.630957
614.205340	42611.451856
614.553945	43314.281964
614.902496	42771.243830
615.250994	43244.310748
615.599439	43306.304338
615.947830	43490.371988
616.296169	43568.623299
616.644454	43690.205847
616.992686	43851.268192
617.340864	44374.600455
617.688990	44087.224439
618.037063	44686.584864
618.385082	44641.103574
618.733048	44917.988949
619.080961	44952.719978
619.428821	44968.042565
619.776628	45080.036839
620.124382	44918.593887
620.472083	45035.513368
620.819731	45178.480491
621.167326	44837.204458
621.514868	44835.883676
621.862357	44390.157456
622.209793	44426.559628
622.557176	44083.418368
622.904506	43831.358155
623.251783	43486.533149
623.599007	43262.736166
623.946179	43043.680387
624.293297	42992.101821
624.640363	42407.582553
624.987376	42380.292267
625.334336	42133.442087
625.681243	41794.071610
626.028097	41757.382092
626.374899	41606.908691
626.721647	41589.672986
627.068343	41476.289874
627.414987	41244.442168
627.761577	41003.109530
628.108115	41349.847653
628.454600	40784.905707
628.801032	40979.322846
629.147412	40922.120873
629.493739	40933.017327
629.840014	40582.203431
630.186236	40916.915882
630.532405	40498.968940
630.878521	40725.215924
631.224585	40597.725144
631.570597	40288.742742
631.916556	40456.071241
632.262462	40413.460888
632.608316	40421.884656
632.954117	40308.350310
633.299866	40307.783180
633.645562	40208.570752
633.991206	39744.083878
634.336797	39295.154004
634.682336	39285.830390
635.027823	39057.350174
635.373257	38872.236485
635.718639	38624.166345
636.063968	38494.805296
636.409245	37916.426154
636.754470	37950.663150
637.099642	37719.191009
637.444762	37237.861640
637.789829	37370.902731
638.134845	37041.838893
638.479808	36974.161403
638.824719	36883.405510
