Dividing Wavelength (nm)	Counts (n)	Blue Motor Position (mm): 32.600000	Red Motor Position (mm): 0.000000	
326.493990	2218.878989
326.888308	2218.878989
327.282561	2218.878989
327.676750	2180.064625
328.070874	2177.100426
328.464933	2176.190498
328.858929	2182.529749
329.252859	2186.857580
329.646726	2195.321677
330.040528	2206.699561
330.434265	2220.678681
330.827938	2236.273490
331.221547	2256.274268
331.615091	2270.815476
332.008571	2290.407921
332.401986	2311.101857
332.795338	2326.623570
333.188625	2346.858762
333.581847	2366.698223
333.975006	2386.293187
334.368100	2405.063924
334.761129	2421.125040
335.154095	2442.436518
335.546996	2466.513069
335.939833	2503.900786
336.332606	2520.176151
336.725315	2534.535878
337.117960	2547.332847
337.510540	2557.180741
337.903056	2568.470405
338.295508	2575.621282
338.687896	2586.583271
339.080220	2593.381267
339.472480	2600.758996
339.864676	2605.858123
340.256807	2611.098402
340.648875	2612.575460
341.040879	2614.362549
341.432818	2617.964454
341.824694	2622.050309
342.216506	2624.094497
342.608253	2624.336472
342.999937	2622.745988
343.391557	2624.074332
343.783113	2622.690535
344.174605	2621.619290
344.566033	2623.275309
344.957397	2621.768004
345.348697	2618.145935
345.739934	2621.553755
346.131106	2616.860441
346.522215	2615.348095
346.913260	2613.931531
347.304241	2613.865996
347.695159	2609.394492
348.086012	2610.317023
348.476802	2604.025663
348.867528	2599.942329
349.258191	2600.141454
349.648789	2597.923347
350.039324	2596.204313
350.429796	2597.376381
350.820203	2596.161463
351.210548	2595.412852
351.600828	2595.211206
351.991045	2594.147522
352.381198	2594.437389
352.771288	2592.672985
353.161314	2591.896647
353.551276	2591.788262
353.941175	2592.186513
354.331010	2592.209199
354.720782	2591.447984
355.110490	2590.785073
355.500135	2589.938159
355.889717	2588.798858
356.279235	2592.055443
356.668689	2591.732810
357.058080	2590.507809
357.447408	2591.773139
357.836672	2592.441092
358.225873	2589.239959
358.615010	2592.148705
359.004084	2592.914960
359.393095	2594.593664
359.782043	2595.785897
360.170927	2593.429158
360.559748	2595.717842
360.948505	2597.809921
361.337199	2594.346648
361.725830	2593.358582
362.114398	2596.312698
362.502903	2594.568459
362.891344	2597.837647
363.279722	2597.336052
363.668037	2597.525095
364.056289	2597.245311
364.444478	2602.861157
364.832603	2600.948039
365.220665	2599.818820
365.608665	2601.003492
365.996601	2601.159767
366.384474	2600.138934
366.772284	2603.607247
367.160031	2601.994078
367.547715	2606.004316
367.935336	2600.559870
368.322893	2601.651280
368.710388	2600.222113
369.097820	2601.951228
369.485189	2600.295209
369.872495	2602.677155
370.259738	2602.692278
370.646918	2606.029522
371.034035	2606.513473
371.421090	2606.072372
371.808081	2606.256374
372.195010	2608.108998
372.581875	2607.735953
372.968678	2606.039604
373.355418	2608.877774
373.742096	2608.436673
374.128710	2607.428442
374.515262	2608.066148
374.901751	2608.083792
375.288177	2610.816097
375.674540	2608.779471
376.060841	2609.812908
376.447079	2609.964142
376.833254	2610.238885
377.219367	2607.380551
377.605417	2613.389607
377.991404	2612.199894
378.377329	2613.571088
378.763191	2611.186622
379.148991	2613.346757
379.534727	2611.398351
379.920402	2611.047991
380.306013	2612.915738
380.691563	2613.387086
381.077049	2613.329113
381.462474	2616.550410
381.847835	2612.409102
382.233134	2614.791047
382.618371	2616.411778
383.003545	2615.940430
383.388657	2614.256685
383.773706	2617.099896
384.158693	2616.694083
384.543618	2616.651233
384.928480	2618.334978
385.313280	2615.358177
385.698017	2617.823301
386.082692	2620.127109
386.467305	2619.907818
386.851856	2619.393621
387.236344	2619.050822
387.620770	2618.700462
388.005133	2618.455966
388.389435	2618.166100
388.773674	2616.537807
389.157851	2621.851183
389.541965	2619.900257
389.926018	2622.614918
390.310008	2622.443519
390.693936	2621.188272
391.077802	2623.630711
391.461606	2623.499641
391.845348	2624.112141
392.229027	2628.480301
392.612645	2627.300671
392.996200	2624.863273
393.379694	2626.153808
393.763125	2627.177162
394.146494	2627.799745
394.529801	2629.891824
394.913047	2628.389560
395.296230	2629.992647
395.679351	2629.821247
396.062410	2629.312091
396.445408	2629.112965
396.828343	2633.823924
397.211217	2631.124386
397.594028	2633.042545
397.976778	2635.288379
398.359466	2633.536578
398.742092	2637.831641
399.124656	2634.524644
399.507158	2634.010446
399.889598	2637.110756
400.271977	2636.286527
400.654294	2639.533030
401.036549	2637.859367
401.418742	2637.813997
401.800874	2637.690489
402.182944	2639.349028
402.564952	2640.614358
402.946898	2642.227527
403.328783	2640.468164
403.710606	2643.661735
404.092367	2643.102167
404.474067	2644.790954
404.855705	2645.998310
405.237282	2645.476551
405.618797	2645.252219
406.000250	2646.305821
406.381642	2647.223311
406.762972	2648.660039
407.144240	2646.842703
407.525447	2648.181130
407.906593	2646.605769
408.287677	2653.280257
408.668700	2654.704383
409.049661	2653.081131
409.430560	2654.729589
409.811399	2655.599188
410.192176	2663.828871
410.572891	2660.365599
410.953545	2663.768377
411.334138	2666.704850
411.714669	2667.153512
412.095139	2671.435973
412.475547	2676.023422
412.855894	2683.549865
413.236180	2694.206864
413.616405	2699.159798
413.996568	2713.665718
414.376670	2725.046123
414.756711	2739.678072
415.136691	2754.224322
415.516609	2778.404216
415.896466	2801.480098
416.276262	2832.465550
416.655997	2865.190200
417.035670	2908.251736
417.415283	2965.622588
417.794834	3008.663959
418.174324	3045.852551
418.553753	3091.532967
418.933121	3172.473733
419.312428	3239.115266
419.691674	3275.038528
420.070859	3406.834454
420.449983	3441.590690
420.829045	3568.398394
421.208047	3615.346660
421.586988	3753.547372
421.965867	3840.217409
422.344686	3949.164306
422.723444	4055.787230
423.102141	3994.259947
423.480777	4272.738327
423.859352	4236.870518
424.237866	4518.802088
424.616319	4580.233588
424.994712	4810.276562
425.373044	4786.368890
425.751314	5056.231937
426.129524	5117.403819
426.507673	5284.165188
426.885762	5459.894770
427.263789	5532.668867
427.641756	5611.822544
428.019662	5780.723883
428.397508	6006.779304
428.775292	5969.363860
429.153016	6293.840248
429.530679	6316.162477
429.908282	6455.807480
430.285824	6403.520632
430.663305	6899.915489
431.040726	6706.073042
431.418086	6798.394213
431.795385	7109.839218
432.172624	7268.275122
432.549802	7325.537588
432.926920	7491.835171
433.303977	7501.085688
433.680974	7748.220694
434.057910	7917.976509
434.434786	8057.387098
434.811601	8053.649082
435.188355	8570.584121
435.565050	8454.438457
435.941683	8489.996236
436.318257	8976.712078
436.694770	9159.509357
437.071222	9314.910486
437.447614	9274.742573
437.823946	9258.777238
438.200218	9474.402512
438.576429	9373.556750
438.952580	9651.548658
439.328670	9777.582545
439.704700	9630.635431
440.080670	9682.871867
440.456580	10260.968705
440.832429	10077.992465
441.208218	9765.735834
441.583947	10122.984763
441.959616	10295.863572
442.335224	10156.122787
442.710773	10334.713224
443.086261	10554.467203
443.461689	9919.281818
443.837057	10545.877077
444.212365	10863.898267
444.587612	10546.177025
444.962800	10808.717797
445.337927	10613.322674
445.712995	10200.006032
446.088002	11291.330140
446.462949	10966.768052
446.837837	10946.515217
447.212664	10979.885135
447.587431	11474.750002
447.962139	12171.482834
448.336786	14395.213933
448.711374	14986.851310
449.085901	12885.784087
449.460369	12498.948626
449.834776	11969.188892
450.209124	12808.939258
450.583412	13215.415055
450.957640	14170.839737
451.331808	13378.977812
451.705917	12342.824091
452.079965	11683.574759
452.453954	12573.237590
452.827883	12208.628576
453.201752	12485.113179
453.575562	11996.448931
453.949311	12423.545567
454.323001	12372.365253
454.696632	12603.066097
455.070202	12887.140157
455.443713	13149.549859
455.817164	13595.104680
456.190556	13605.955764
456.563888	13959.073467
456.937160	14142.402588
457.310373	13476.894663
457.683526	13552.688412
458.056619	13113.898819
458.429653	13242.196184
458.802628	12703.906818
459.175542	13051.287688
459.548398	14006.719933
459.921194	14329.966279
460.293930	14393.890630
460.666607	15293.350944
461.039224	16317.141234
461.411782	17011.802152
461.784280	16908.191317
462.156719	16956.583873
462.529099	16639.283568
462.901419	15567.435958
463.273680	15354.674060
463.645882	15220.614655
464.018024	14960.037413
464.390106	15180.308110
464.762130	15899.516926
465.134094	16651.208417
465.505999	18625.291496
465.877845	21879.860419
466.249631	24704.791964
466.621358	24438.992087
466.993026	22986.650787
467.364634	22424.534407
467.736184	20964.936366
468.107674	20166.813328
468.479105	20301.162598
468.850477	19759.415000
469.221790	19338.362708
469.593043	18669.464607
469.964238	18105.372094
470.335373	17777.742464
470.706449	18197.171506
471.077467	17742.875324
471.448425	19578.130067
471.819324	23554.667838
472.190164	25640.160417
472.560945	22130.360395
472.931667	19737.186032
473.302330	19086.231918
473.672934	18590.520137
474.043479	18935.609803
474.413965	18771.782386
474.784393	18392.801042
475.154761	19058.581190
475.525070	19082.509026
475.895321	18722.941167
476.265513	19301.234609
476.635645	19886.477283
477.005719	19676.752680
477.375734	19876.631909
477.745691	20349.875268
478.115588	20855.455108
478.485427	21372.611957
478.855207	22422.142379
479.224928	24182.387274
479.594591	26407.630719
479.964194	26474.158827
480.333739	26668.086974
480.703226	26232.566570
481.072653	25901.501394
481.442022	26459.368081
481.811333	27376.371610
482.180584	27312.323750
482.549777	26357.851846
482.918912	25984.057850
483.287988	26113.754135
483.657005	25789.509640
484.025964	25524.677664
484.394864	25452.823578
484.763706	25157.419524
485.132489	24574.127777
485.501213	24746.741926
485.869879	24673.841800
486.238487	24464.402023
486.607036	24616.118068
486.975527	24303.982425
487.343959	24626.679286
487.712333	24588.374078
488.080648	24263.610344
488.448905	24731.757096
488.817104	24473.153466
489.185244	25136.148376
489.553326	25124.495748
489.921350	26097.410714
490.289315	28369.889772
490.657222	30166.922486
491.025070	30648.559366
491.392861	30449.148963
491.760593	29610.217784
492.128267	28710.742348
492.495883	27669.814655
492.863440	26805.564280
493.230939	25920.478817
493.598380	25769.952484
493.965763	25369.737801
494.333088	24924.936632
494.700354	24847.890158
495.067563	24727.651077
495.434713	24479.225536
495.801805	24633.459637
496.168839	24448.096411
496.535815	24275.802375
496.902733	24489.653162
497.269593	24167.135263
497.636395	24344.898950
498.003139	24319.486494
498.369825	24082.819444
498.736453	24269.342136
499.103023	24152.198324
499.469535	24169.948227
499.835989	24370.848290
500.202385	24397.140427
500.568723	23904.153390
500.935003	24157.357945
501.301226	23764.715075
501.667390	24594.184008
502.033497	24824.778988
502.399546	24559.861312
502.765537	24142.519308
503.131470	24523.126424
503.497345	24648.941021
503.863163	23870.382700
504.228923	24479.759898
504.594625	24675.578478
504.960269	24192.867832
505.325856	24696.670666
505.691385	24100.871816
506.056856	24715.116247
506.422270	24676.037223
506.787625	24249.790021
507.152924	24660.475181
507.518164	24685.398646
507.883347	24498.195397
508.248472	24182.301574
508.613540	24962.478105
508.978550	24749.486834
509.343503	24738.597942
509.708398	25012.146073
510.073236	25160.451778
510.438016	25362.533992
510.802738	25050.438678
511.167403	25285.046416
511.532010	24998.645863
511.896561	25775.712002
512.261053	25737.709264
512.625488	25579.515336
512.989866	25463.974610
513.354186	25313.463400
513.718449	25421.434833
514.082655	25803.478678
514.446803	25532.899786
514.810894	26006.927044
515.174927	25477.154707
515.538904	25521.789083
515.902822	26015.799475
516.266684	25762.156340
516.630488	25675.017475
516.994235	25641.329964
517.357925	25946.541583
517.721558	26124.980785
518.085133	26221.904529
518.448651	26137.457641
518.812112	25866.155343
519.175516	26066.785705
519.538863	26214.425977
519.902152	26006.165830
520.265385	26292.256352
520.628560	26077.185605
520.991678	26098.368534
521.354739	26175.291500
521.717743	26223.744550
522.080690	26026.285075
522.443580	26355.782452
522.806413	26339.693609
523.169189	26441.754290
523.531908	26485.687945
523.894569	26099.933812
524.257174	26168.443093
524.619722	26360.816044
524.982213	26043.581274
525.344647	26109.229700
525.707025	26238.525213
526.069345	26225.977782
526.431608	26180.120926
526.793815	26366.194955
527.155964	25831.041186
527.518057	26012.489957
527.880093	25913.025471
528.242072	26154.438767
528.603995	25866.876228
528.965860	25666.520610
529.327669	25711.119698
529.689421	25695.035897
530.051117	25524.128178
530.412755	25697.385074
530.774337	25512.551169
531.135862	25373.788368
531.497331	25583.210502
531.858743	25132.675021
532.220098	25611.249399
532.581396	25290.780729
532.942638	25230.034825
533.303824	25322.895399
533.664953	25351.017476
534.026025	24999.149979
534.387040	25241.972277
534.747999	25303.328161
535.108902	25460.385309
535.469748	24953.184738
535.830537	25142.679190
536.191270	25259.460040
536.551947	25129.955318
536.912567	24791.711539
537.273131	25135.550999
537.633638	24836.441697
537.994089	25043.343254
538.354483	24588.396763
538.714821	25092.060965
539.075103	25127.391891
539.435328	24916.908595
539.795497	24483.457584
540.155609	24860.301478
540.515665	25164.474619
540.875665	24399.149327
541.235609	24692.282341
541.595496	24656.424614
541.955328	25016.524315
542.315102	24942.678973
542.674821	24474.267561
543.034483	24355.503017
543.394090	24515.957903
543.753640	24323.151413
544.113134	24951.841270
544.472571	24554.157246
544.831953	24831.057745
545.191278	24461.662156
545.550548	24379.204002
545.909761	24593.175777
546.268918	24814.159797
546.628019	24791.146930
546.987064	24484.019673
547.346053	24243.549073
547.704986	24361.179357
548.063863	24518.483521
548.422684	24522.587020
548.781449	24055.443458
549.140158	24463.083761
549.498811	24038.311097
549.857408	23782.001191
550.215949	24202.491395
550.574434	23890.184353
550.932864	24106.122178
551.291237	24266.998000
551.649555	24135.978411
552.007817	24179.087838
552.366022	24043.563979
552.724173	24084.692233
553.082267	24020.107490
553.440305	24509.535473
553.798288	23760.263736
554.156215	24278.252376
554.514086	24376.348188
554.871902	23743.370829
555.229661	24033.108626
555.587365	23892.283993
555.945014	23764.122739
556.302606	24000.862885
556.660143	23954.670793
557.017625	24207.608166
557.375050	23731.294745
557.732421	24123.070537
558.089735	23945.561428
558.446994	23996.177133
558.804197	24024.173181
559.161345	23969.774090
559.518437	23729.661411
559.875474	23929.550723
560.232455	24105.118988
560.589381	23916.047992
560.946251	23909.726386
561.303065	24231.215890
561.659825	24317.996833
562.016528	23916.668054
562.373177	23665.147245
562.729770	24014.111038
563.086307	23880.880903
563.442789	24045.091449
563.799216	23878.274627
564.155587	23874.791189
564.511904	23867.264747
564.868164	23808.063957
565.224370	23783.092601
565.580520	23698.691083
565.936615	23821.909486
566.292654	23511.679398
566.648638	23804.807371
567.004567	23624.651656
567.360441	23588.546912
567.716260	23308.641886
568.072023	23632.833449
568.427732	23388.730697
568.783385	23185.841899
569.138982	23408.948245
569.494525	23449.348052
569.850013	23189.736190
570.205445	23297.458086
570.560823	23100.316203
570.916145	22864.838866
571.271412	23032.711810
571.626625	22796.488382
571.981782	22907.265217
572.336884	22712.560732
572.691931	22848.457637
573.046923	22594.038164
573.401860	22468.415131
573.756743	22478.638591
574.111570	22373.505327
574.466342	22307.745996
574.821059	22405.809041
575.175722	22100.347885
575.530330	22084.871543
575.884882	22107.960028
576.239380	22011.457220
576.593823	21901.739027
576.948211	21895.533366
577.302544	21733.208213
577.656823	21598.443047
578.011047	21705.610416
578.365216	21573.191907
578.719330	21450.018875
579.073389	21342.354952
579.427394	21496.460504
579.781344	21265.931060
580.135239	21144.235085
580.489080	21118.038729
580.842866	20878.992255
581.196597	21082.077658
581.550273	21054.575643
581.903895	20949.177719
582.257463	21262.666912
582.610975	20791.669388
582.964434	21104.651945
583.317837	20792.728030
583.671186	20886.349819
584.024481	20858.772187
584.377721	20627.421034
584.730906	20689.633914
585.084037	20714.965712
585.437113	20618.047008
585.790135	20825.114923
586.143103	20288.990732
586.496016	20296.802000
586.848874	20539.702437
587.201679	20463.868359
587.554428	20150.812705
587.907124	20482.019034
588.259765	20247.116388
588.612352	20334.708957
588.964884	19905.550488
589.317362	20072.019471
589.669786	20129.460898
590.022155	20166.606640
590.374470	20358.477997
590.726731	20146.976387
591.078937	19924.205278
591.431090	20021.807058
591.783188	19760.740824
592.135232	19737.773327
592.487222	19841.608493
592.839157	19849.812971
593.191038	19724.429393
593.542866	19618.678588
593.894639	19330.231326
594.246358	19555.560821
594.598022	19457.046593
594.949633	19208.550475
595.301190	19174.903294
595.652692	19351.782259
596.004141	19581.638710
596.355535	18908.611904
596.706876	18914.925949
597.058162	18814.995156
597.409395	19043.631648
597.760573	19124.191807
598.111698	18895.923320
598.462768	18833.229010
598.813785	18800.249781
599.164748	18616.776987
599.515657	18652.458274
599.866511	18447.986553
600.217312	18800.537127
600.568060	18322.119024
600.918753	18639.091655
601.269392	18542.518270
601.619978	18316.684660
601.970510	18527.440179
602.320988	18479.193816
602.671412	18678.425258
603.021783	18592.324870
603.372100	18314.839598
603.722363	18458.071382
604.072572	18393.161485
604.422728	18545.991625
604.772830	18296.888049
605.122878	18255.149816
605.472872	18237.117609
605.822813	18229.989417
606.172701	18194.603038
606.522534	18392.269201
606.872314	18420.388757
607.222041	18247.525071
607.571714	18472.458835
607.921333	18296.363769
608.270899	18371.565182
608.620411	18547.261996
608.969870	18317.221543
609.319276	18316.498138
609.668627	18351.226647
610.017926	18484.245052
610.367171	18596.859388
610.716362	18650.681267
611.065500	18449.768601
611.414585	18596.675386
611.763616	18578.922963
612.112594	18522.419190
612.461518	18488.404004
612.810389	18673.305966
613.159207	18544.446512
613.507971	18456.866546
613.856682	18721.905209
614.205340	18648.533736
614.553945	18799.566705
614.902496	18545.719403
615.250994	18777.698180
615.599439	18721.194407
615.947830	18701.811170
616.296169	18767.008413
616.644454	18718.744406
616.992686	18703.479792
617.340864	18907.644002
617.688990	18667.518721
618.037063	18846.184775
618.385082	18690.793728
618.733048	18973.829311
619.080961	18833.445779
619.428821	18875.549496
619.776628	18763.252753
620.124382	18690.670220
620.472083	18722.762206
620.819731	18744.771883
621.167326	18436.800233
621.514868	18480.444022
621.862357	18252.069671
622.209793	18261.869674
622.557176	18092.920444
622.904506	17915.842353
623.251783	17826.313982
623.599007	17592.026357
623.946179	17542.058440
624.293297	17482.580386
624.640363	17224.977425
624.987376	17249.585817
625.334336	17045.817337
625.681243	16888.465282
626.028097	16896.561375
626.374899	16829.196436
626.721647	16689.455652
627.068343	16517.005340
627.414987	16454.978983
627.761577	16434.680777
628.108115	16475.403218
628.454600	16196.072883
628.801032	16289.603931
629.147412	16218.793364
629.493739	16227.272585
629.840014	16039.784511
630.186236	16146.629247
630.532405	15907.872639
630.878521	16103.507217
631.224585	16007.775705
631.570597	15824.184444
631.916556	15859.008734
632.262462	15828.454301
632.608316	15746.956487
632.954117	15692.348188
633.299866	15681.522310
633.645562	15610.600838
633.991206	15350.749521
634.336797	15237.174846
634.682336	15205.211410
635.027823	15084.364870
635.373257	14961.998422
635.718639	14872.036511
636.063968	14816.377131
636.409245	14557.130754
