Dividing Wavelength (nm)	Counts (n)	Blue Motor Position (mm): 14.000000	Red Motor Position (mm): 0.000000	
326.493990	2157.971768
326.888308	2157.971768
327.282561	2157.971768
327.676750	2132.597120
328.070874	2133.549898
328.464933	2142.639099
328.858929	2150.284008
329.252859	2161.288847
329.646726	2174.814263
330.040528	2189.370595
330.434265	2207.087730
330.827938	2226.362582
331.221547	2244.230952
331.615091	2266.245670
332.008571	2289.097221
332.401986	2306.582463
332.795338	2327.324290
333.188625	2345.671570
333.581847	2368.457585
333.975006	2385.045502
334.368100	2402.840775
334.761129	2422.140833
335.154095	2437.493667
335.546996	2460.148612
335.939833	2484.020996
336.332606	2498.776453
336.725315	2509.637619
337.117960	2517.781603
337.510540	2524.456091
337.903056	2534.669469
338.295508	2544.650953
338.687896	2548.320913
339.080220	2557.221070
339.472480	2563.570404
339.864676	2565.158367
340.256807	2567.731876
340.648875	2571.641291
341.040879	2571.560632
341.432818	2574.572722
341.824694	2575.069276
342.216506	2576.211097
342.608253	2572.707495
342.999937	2573.637588
343.391557	2572.299162
343.783113	2574.633216
344.174605	2570.827145
344.566033	2572.445355
344.957397	2567.784808
345.348697	2565.453275
345.739934	2564.550908
346.131106	2561.884138
346.522215	2561.629559
346.913260	2558.320042
347.304241	2555.602860
347.695159	2554.647561
348.086012	2554.796275
348.476802	2552.230328
348.867528	2551.186809
349.258191	2549.306459
349.648789	2549.049360
350.039324	2544.653474
350.429796	2550.526418
350.820203	2544.933258
351.210548	2544.688762
351.600828	2541.185160
351.991045	2541.099460
352.381198	2543.277239
352.771288	2542.463093
353.161314	2542.904193
353.551276	2540.698689
353.941175	2543.126004
354.331010	2541.477547
354.720782	2540.658359
355.110490	2544.469472
355.500135	2543.791437
355.889717	2545.142466
356.279235	2544.366128
356.668689	2544.497198
357.058080	2543.670449
357.447408	2539.992927
357.836672	2541.396888
358.225873	2542.289173
358.615010	2542.324461
359.004084	2547.647919
359.393095	2545.376879
359.782043	2549.150183
360.170927	2545.339071
360.559748	2545.674307
360.948505	2550.783517
361.337199	2548.759494
361.725830	2546.856458
362.114398	2549.732436
362.502903	2550.725544
362.891344	2551.101110
363.279722	2550.334854
363.668037	2550.710420
364.056289	2549.245965
364.444478	2551.703527
364.832603	2550.226469
365.220665	2553.344423
365.608665	2554.513971
365.996601	2554.904660
366.384474	2553.036913
366.772284	2554.332489
367.160031	2553.215874
367.547715	2556.525391
367.935336	2554.753426
368.322893	2557.498334
368.710388	2557.074877
369.097820	2558.899775
369.485189	2556.248128
369.872495	2552.646223
370.259738	2557.067315
370.646918	2558.246945
371.034035	2554.655123
371.421090	2556.822819
371.808081	2555.050854
372.195010	2558.007490
372.581875	2557.684857
372.968678	2558.529250
373.355418	2557.694939
373.742096	2559.368602
374.128710	2559.527398
374.515262	2559.504713
374.901751	2559.454302
375.288177	2558.642676
375.674540	2562.116031
376.060841	2563.608212
376.447079	2562.718449
376.833254	2562.819272
377.219367	2555.839794
377.605417	2557.268961
377.991404	2557.750392
378.377329	2559.779456
378.763191	2559.381205
379.148991	2561.080074
379.534727	2560.460012
379.920402	2562.093346
380.306013	2559.877758
380.691563	2564.717266
381.077049	2564.243398
381.462474	2565.070147
381.847835	2563.830023
382.233134	2563.199879
382.618371	2565.665003
383.003545	2566.990827
383.388657	2565.155847
383.773706	2562.143757
384.158693	2565.231464
384.543618	2567.288255
384.928480	2564.533264
385.313280	2564.624005
385.698017	2566.280024
386.082692	2567.903275
386.467305	2567.789849
386.851856	2565.924623
387.236344	2564.071998
387.620770	2570.007957
388.005133	2566.027966
388.389435	2567.323543
388.773674	2566.151474
389.157851	2568.157854
389.541965	2569.660117
389.926018	2569.823955
390.310008	2568.800601
390.693936	2568.583831
391.077802	2568.135168
391.461606	2567.323543
391.845348	2570.010478
392.229027	2565.939746
392.612645	2568.694737
392.996200	2571.255643
393.379694	2569.597103
393.763125	2571.353945
394.146494	2571.154820
394.529801	2572.412587
394.913047	2569.072823
395.296230	2573.662794
395.679351	2570.791857
396.062410	2571.653894
396.445408	2570.365879
396.828343	2572.425190
397.211217	2568.548543
397.594028	2572.745304
397.976778	2566.524520
398.359466	2570.275138
398.742092	2568.525858
399.124656	2573.516600
399.507158	2572.490725
399.889598	2575.112125
400.271977	2573.327557
400.654294	2575.830490
401.036549	2571.835375
401.418742	2571.195149
401.800874	2574.272773
402.182944	2573.067938
402.564952	2574.849985
402.946898	2575.361662
403.328783	2573.415777
403.710606	2573.965263
404.092367	2574.958370
404.474067	2576.044739
404.855705	2575.424677
405.237282	2576.558937
405.618797	2573.877043
406.000250	2575.359142
406.381642	2575.875860
406.762972	2574.580284
407.144240	2577.819225
407.525447	2575.071796
407.906593	2578.769482
408.287677	2579.021540
408.668700	2578.008268
409.049661	2577.408371
409.430560	2575.333936
409.811399	2579.402147
410.192176	2578.298135
410.572891	2579.016499
410.953545	2576.296797
411.334138	2578.782085
411.714669	2579.719740
412.095139	2578.184709
412.475547	2578.121694
412.855894	2579.414750
413.236180	2578.275449
413.616405	2579.641602
413.996568	2580.536407
414.376670	2583.616552
414.756711	2579.500450
415.136691	2581.158989
415.516609	2580.874164
415.896466	2580.922055
416.276262	2584.191243
416.655997	2576.319482
417.035670	2575.739749
417.415283	2576.226220
417.794834	2576.006930
418.174324	2577.700758
418.553753	2580.518763
418.933121	2582.010944
419.312428	2581.186716
419.691674	2580.304514
420.070859	2582.550348
420.449983	2578.633371
420.829045	2579.881057
421.208047	2581.506829
421.586988	2583.540935
421.965867	2581.254771
422.344686	2582.323496
422.723444	2582.313414
423.102141	2582.966243
423.480777	2580.901891
423.859352	2582.038671
424.237866	2583.283836
424.616319	2582.232755
424.994712	2584.203846
425.373044	2581.862230
425.751314	2582.925914
426.129524	2582.658733
426.507673	2582.598239
426.885762	2583.467838
427.263789	2585.174268
427.641756	2584.662591
428.019662	2584.899526
428.397508	2583.767787
428.775292	2584.874320
429.153016	2585.053281
429.530679	2587.694845
429.908282	2583.402303
430.285824	2584.904567
430.663305	2582.517580
431.040726	2583.830801
431.418086	2584.531521
431.795385	2587.417582
432.172624	2586.931111
432.549802	2589.665937
432.926920	2586.545462
433.303977	2587.606625
433.680974	2586.671491
434.057910	2586.674012
434.434786	2587.974629
434.811601	2586.731985
435.188355	2585.151583
435.565050	2586.454722
435.941683	2588.065370
436.318257	2581.665625
436.694770	2583.732498
437.071222	2583.016655
437.447614	2583.210739
437.823946	2584.508836
438.200218	2586.898343
438.576429	2584.934814
438.952580	2586.404310
439.328670	2586.202664
439.704700	2587.412541
440.080670	2587.160483
440.456580	2588.995463
440.832429	2587.959506
441.208218	2586.984043
441.583947	2587.684763
441.959616	2586.646285
442.335224	2589.567634
442.710773	2586.968919
443.086261	2584.685277
443.461689	2586.989084
443.837057	2589.638210
444.212365	2586.779876
444.587612	2588.151070
444.962800	2588.244331
445.337927	2588.105699
445.712995	2588.035123
446.088002	2587.977150
446.462949	2588.819023
446.837837	2590.805237
447.212664	2588.456060
447.587431	2588.748447
447.962139	2589.451688
448.336786	2590.820361
448.711374	2590.205340
449.085901	2592.920001
449.460369	2587.704928
449.834776	2590.205340
450.209124	2588.761049
450.583412	2587.717531
450.957640	2589.368508
451.331808	2592.846905
451.705917	2589.824733
452.079965	2592.370516
452.453954	2590.182655
452.827883	2590.026379
453.201752	2588.493868
453.575562	2589.323138
453.949311	2592.892275
454.323001	2592.347830
454.696632	2589.849939
455.070202	2593.202306
455.443713	2593.164497
455.817164	2587.997315
456.190556	2588.085535
456.563888	2588.718200
456.937160	2586.323652
457.310373	2590.089393
457.683526	2591.934456
458.056619	2591.566452
458.429653	2593.078798
458.802628	2590.470001
459.175542	2591.410176
459.548398	2591.382449
459.921194	2593.466967
460.293930	2591.765577
460.666607	2594.679364
461.039224	2596.582400
461.411782	2593.386308
461.784280	2592.693149
462.156719	2592.541915
462.529099	2595.526278
462.901419	2593.963520
463.273680	2591.730289
463.645882	2591.067377
464.018024	2594.497883
464.390106	2592.509147
464.762130	2592.524271
465.134094	2592.720876
465.505999	2592.582244
465.877845	2594.021493
466.249631	2596.315218
466.621358	2595.473346
466.993026	2597.578027
467.364634	2596.577358
467.736184	2598.273707
468.107674	2594.709611
468.479105	2592.854466
468.850477	2595.806062
469.221790	2594.702049
469.593043	2593.630804
469.964238	2595.186000
470.335373	2594.805393
470.706449	2594.644076
471.077467	2594.313880
471.448425	2594.833119
471.819324	2595.788418
472.190164	2597.368820
472.560945	2595.823706
472.931667	2593.915629
473.302330	2598.561052
473.672934	2595.163315
474.043479	2594.429827
474.413965	2596.567276
474.784393	2591.170721
475.154761	2594.553335
475.525070	2592.357913
475.895321	2592.052923
476.265513	2592.257090
476.635645	2597.966196
477.005719	2597.507451
477.375734	2596.559714
477.745691	2597.691453
478.115588	2598.336721
478.485427	2597.734303
478.855207	2599.667586
479.224928	2598.009046
479.594591	2601.006012
479.964194	2598.538367
480.333739	2598.402256
480.703226	2598.924016
481.072653	2600.058275
481.442022	2601.812597
481.811333	2598.326639
482.180584	2597.726742
482.549777	2598.924016
482.918912	2598.825713
483.287988	2599.962493
483.657005	2597.358737
484.025964	2600.403594
484.394864	2602.483070
484.763706	2603.571959
485.132489	2598.124993
485.501213	2601.363934
485.869879	2599.957452
486.238487	2596.453850
486.607036	2602.233533
486.975527	2599.178594
487.343959	2602.515838
487.712333	2603.362752
488.080648	2600.015425
488.448905	2602.480550
488.817104	2600.791763
489.185244	2601.777309
489.553326	2600.612802
489.921350	2605.094388
490.289315	2604.928030
490.657222	2605.792588
491.025070	2606.004316
491.392861	2604.433997
491.760593	2604.484408
492.128267	2606.654625
492.495883	2604.345777
492.863440	2605.648915
493.230939	2605.207814
493.598380	2606.331991
493.965763	2600.892586
494.333088	2602.140272
494.700354	2602.190683
495.067563	2605.764861
495.434713	2601.318564
495.801805	2609.250819
496.168839	2605.827876
496.535815	2605.535489
496.902733	2604.663369
497.269593	2606.934409
497.636395	2607.136055
498.003139	2606.526076
498.369825	2608.877774
498.736453	2607.766199
499.103023	2607.740994
499.469535	2607.622527
499.835989	2608.340891
500.202385	2611.292487
500.568723	2608.189656
500.935003	2611.020264
501.301226	2611.806684
501.667390	2607.350304
502.033497	2614.647374
502.399546	2609.454986
502.765537	2612.862806
503.131470	2612.968670
503.497345	2613.571088
503.863163	2613.019082
504.228923	2610.029678
504.594625	2610.866509
504.960269	2613.182919
505.325856	2613.019082
505.691385	2614.193671
506.056856	2616.129474
506.422270	2615.726181
506.787625	2614.291973
507.152924	2615.320368
507.518164	2619.312962
507.883347	2615.194340
508.248472	2617.389762
508.613540	2616.618466
508.978550	2615.131325
509.343503	2618.501337
509.708398	2617.994701
510.073236	2620.777417
510.438016	2620.182561
510.802738	2620.631224
511.167403	2618.808847
511.532010	2622.259517
511.896561	2619.232304
512.261053	2622.831688
512.625488	2617.374639
512.989866	2617.414968
513.354186	2617.588888
513.718449	2620.265740
514.082655	2621.296656
514.446803	2623.466873
514.810894	2625.112810
515.174927	2624.351596
515.538904	2625.989971
515.902822	2628.739920
516.266684	2625.213633
516.630488	2627.789662
516.994235	2627.688839
517.357925	2629.266721
517.721558	2628.724797
518.085133	2630.166567
518.448651	2629.594396
518.812112	2628.513068
519.175516	2630.269910
519.538863	2629.854015
519.902152	2632.331742
520.265385	2634.154119
520.628560	2632.772843
520.991678	2631.157153
521.354739	2632.959366
521.717743	2632.230919
522.080690	2633.322329
522.443580	2636.624285
522.806413	2635.608492
523.169189	2633.549181
523.531908	2634.247381
523.894569	2634.403656
524.257174	2636.024387
524.619722	2636.951960
524.982213	2635.991620
525.344647	2635.520272
525.707025	2639.701909
526.069345	2640.145531
526.431608	2636.881383
526.793815	2640.808442
527.155964	2640.619399
527.518057	2638.406332
527.880093	2641.052938
528.242072	2638.643267
528.603995	2640.082516
528.965860	2643.727270
529.327669	2640.737866
529.689421	2639.923720
530.051117	2642.741725
530.412755	2642.209883
530.774337	2641.826755
531.135862	2643.737353
531.497331	2644.309524
531.858743	2642.124183
532.220098	2641.186529
532.581396	2642.156951
532.942638	2644.458238
533.303824	2644.947230
533.664953	2646.784730
534.026025	2648.869247
534.387040	2647.830770
534.747999	2647.974442
535.108902	2648.153403
535.469748	2648.029895
535.830537	2652.143477
536.191270	2649.151552
536.551947	2648.806233
536.912567	2652.415699
537.273131	2651.629279
537.633638	2651.533497
537.994089	2652.602222
538.354483	2652.130874
538.714821	2652.032571
539.075103	2658.994405
539.435328	2656.413334
539.795497	2656.269661
540.155609	2659.117913
540.515665	2659.415341
540.875665	2659.995074
541.235609	2658.270999
541.595496	2664.128820
541.955328	2662.258552
542.315102	2664.950528
542.674821	2664.224602
543.034483	2667.440858
543.394090	2666.818276
543.753640	2670.929337
544.113134	2675.239523
544.472571	2672.552588
544.831953	2672.512259
545.191278	2673.467557
545.550548	2675.783968
545.909761	2679.141376
546.268918	2680.147086
546.628019	2681.984587
546.987064	2685.836028
547.346053	2686.317459
547.704986	2687.209743
548.063863	2689.498427
548.422684	2692.326514
548.781449	2692.964220
549.140158	2696.316587
549.498811	2698.716177
549.857408	2700.909078
550.215949	2699.855477
550.574434	2702.224820
550.932864	2703.122145
551.291237	2708.730429
551.649555	2713.411140
552.007817	2714.011037
552.366022	2718.268292
552.724173	2721.950855
553.082267	2724.463870
553.440305	2731.755899
553.798288	2732.058368
554.156215	2735.884604
554.514086	2742.196128
554.871902	2743.058166
555.229661	2749.097468
555.587365	2749.780544
555.945014	2756.470156
556.302606	2759.572986
556.660143	2765.448451
557.017625	2767.661517
557.375050	2771.391971
557.732421	2778.658794
558.089735	2784.607356
558.446994	2789.421658
558.804197	2796.328038
559.161345	2802.344656
559.518437	2801.802732
559.875474	2809.682055
560.232455	2816.477530
560.589381	2823.499858
560.946251	2829.632421
561.303065	2838.182218
561.659825	2840.488546
562.016528	2844.332426
562.373177	2849.865092
562.729770	2859.614684
563.086307	2865.321270
563.442789	2871.968031
563.799216	2882.100751
564.155587	2891.535270
564.511904	2899.858215
564.868164	2906.048752
565.224370	2914.974115
565.580520	2923.433171
565.936615	2936.212496
566.292654	2941.661983
566.648638	2952.376956
567.004567	2960.334417
567.360441	2971.861015
567.716260	2980.189002
568.072023	2995.032679
568.427732	2999.915037
568.783385	3009.631861
569.138982	3024.972092
569.494525	3035.475336
569.850013	3042.981614
570.205445	3058.384859
570.560823	3072.265677
570.916145	3081.695155
571.271412	3095.286106
571.626625	3104.087960
571.981782	3116.426184
572.336884	3131.073257
572.691931	3146.529434
573.046923	3157.130981
573.401860	3167.944256
573.756743	3182.719878
574.111570	3199.549770
574.466342	3207.855071
574.821059	3229.705952
575.175722	3233.580079
575.530330	3251.453490
575.884882	3261.747526
576.239380	3278.232099
576.593823	3295.984523
576.948211	3310.278714
577.302544	3319.246927
577.656823	3335.643280
578.011047	3360.105479
578.365216	3374.760113
578.719330	3383.362842
579.073389	3402.133578
579.427394	3421.116043
579.781344	3443.453396
580.135239	3455.095941
580.489080	3475.920947
580.842866	3489.025427
581.196597	3515.947709
581.550273	3534.252138
581.903895	3553.642937
582.257463	3584.598142
582.610975	3597.269082
582.964434	3626.260758
583.317837	3638.919095
583.671186	3658.319976
584.024481	3683.669418
584.377721	3698.676933
584.730906	3726.773804
585.084037	3753.970829
585.437113	3769.648817
585.790135	3798.191830
586.143103	3808.828665
586.496016	3834.735155
586.848874	3857.143083
587.201679	3886.364132
587.554428	3896.322931
587.907124	3930.587654
588.259765	3947.352011
588.612352	3988.061849
588.964884	3991.792303
589.317362	4024.806819
589.669786	4054.600038
590.022155	4079.710026
590.374470	4117.808546
590.726731	4126.451604
591.078937	4138.164725
591.431090	4168.749406
591.783188	4182.569729
592.135232	4195.691852
592.487222	4233.858428
592.839157	4268.055095
593.191038	4281.086478
593.542866	4297.755053
593.894639	4303.012977
594.246358	4342.888503
594.598022	4372.727093
594.949633	4384.465420
595.301190	4410.238319
595.652692	4430.155918
596.004141	4473.146878
596.355535	4461.854693
596.706876	4486.642047
597.058162	4509.254142
597.409395	4556.194846
597.760573	4596.836628
598.111698	4601.396352
598.462768	4630.355260
598.813785	4663.457997
599.164748	4663.349612
599.515657	4714.320719
599.866511	4716.304413
600.217312	4779.948980
600.568060	4751.652984
600.918753	4826.100744
601.269392	4853.451524
601.619978	4864.751270
601.970510	4903.689142
602.320988	4950.569353
602.671412	4996.017875
603.021783	5009.313918
603.372100	5024.835631
603.722363	5059.102874
604.072572	5095.386579
604.422728	5130.573833
604.772830	5143.648066
605.122878	5183.798335
605.472872	5205.878589
605.822813	5255.392802
606.172701	5281.168222
606.522534	5329.157486
606.872314	5383.400301
607.222041	5395.562085
607.571714	5450.848419
607.921333	5442.089414
608.270899	5494.275439
608.620411	5549.402977
608.969870	5567.004166
609.319276	5597.122539
609.668627	5638.535618
610.017926	5702.875865
610.367171	5746.713738
610.716362	5780.280261
611.065500	5808.427544
611.414585	5843.151012
611.763616	5913.333955
612.112594	5931.537562
612.461518	5975.753522
612.810389	6034.765269
613.159207	6046.753133
613.507971	6082.799904
613.856682	6155.137941
614.205340	6178.914543
614.553945	6265.456031
614.902496	6253.516058
615.250994	6320.434855
615.599439	6355.538930
615.947830	6400.634571
616.296169	6423.075268
616.644454	6470.643595
616.992686	6512.442322
617.340864	6586.685916
617.688990	6572.941210
618.037063	6670.570716
618.385082	6696.298244
618.733048	6746.072077
619.080961	6772.528052
619.428821	6812.713610
619.776628	6856.034766
620.124382	6866.863164
620.472083	6907.404123
620.819731	6954.745599
621.167326	6946.581451
621.514868	6973.831408
621.862357	6970.012734
622.209793	7004.123701
622.557176	6994.595920
622.904506	7002.384503
623.251783	6993.136506
623.599007	6995.722618
623.946179	7008.219639
624.293297	7026.652618
624.640363	6995.180694
624.987376	7023.083481
625.334336	7022.128182
625.681243	7009.701738
626.028097	7022.027359
626.374899	7036.303907
626.721647	7053.869807
627.068343	7061.310550
627.414987	7057.161681
627.761577	7060.322484
628.108115	7119.941690
628.454600	7076.262613
628.801032	7111.936338
629.147412	7131.281766
629.493739	7149.366905
629.840014	7133.094061
630.186236	7187.954417
630.532405	7160.381826
630.878521	7212.330917
631.224585	7214.851494
631.570597	7199.344904
631.916556	7229.642239
632.262462	7245.355516
632.608316	7257.827330
632.954117	7269.200173
633.299866	7291.209851
633.645562	7297.314688
633.991206	7271.904752
634.336797	7233.407981
634.682336	7257.963441
635.027823	7249.731237
635.373257	7250.807523
635.718639	7240.480720
636.063968	7243.699497
636.409245	7188.945004
636.754470	7214.049950
637.099642	7197.938422
637.444762	7156.553070
637.789829	7188.418203
638.134845	7161.437948
638.479808	7165.480953
638.824719	7179.956627
639.169577	7139.796275
639.514383	7162.471385
639.859137	7135.022302
640.203839	7192.446085
640.548489	7154.239180
640.893086	7180.014600
641.237632	7159.038359
641.582125	7181.504261
641.926566	7190.535488
642.270955	7200.965635
642.615292	7223.774336
642.959576	7219.196968
643.303809	7233.924699
643.647990	7268.655729
643.992118	7271.826614
644.336195	7277.349198
