Dividing Wavelength (nm)	Counts (n)	Blue Motor Position (mm): 12.200000	Red Motor Position (mm): 0.000000	
326.493990	2163.088539
326.888308	2163.088539
327.282561	2163.088539
327.676750	2124.279216
328.070874	2120.699997
328.464933	2120.914246
328.858929	2125.300050
329.252859	2128.596965
329.646726	2136.438479
330.040528	2148.244862
330.434265	2160.988899
330.827938	2180.835921
331.221547	2198.343849
331.615091	2214.558720
332.008571	2233.100084
332.401986	2251.439802
332.795338	2269.431680
333.188625	2288.875410
333.581847	2309.579429
333.975006	2326.550473
334.368100	2344.375993
334.761129	2359.605319
335.154095	2378.363453
335.546996	2402.129972
335.939833	2423.128899
336.332606	2438.988369
336.725315	2449.786520
337.117960	2467.042390
337.510540	2476.308031
337.903056	2486.183651
338.295508	2496.548263
338.687896	2506.686024
339.080220	2511.137362
339.472480	2519.281347
339.864676	2525.577748
340.256807	2530.147554
340.648875	2533.741896
341.040879	2534.815662
341.432818	2537.817669
341.824694	2540.010571
342.216506	2544.653474
342.608253	2543.466282
342.999937	2545.200439
343.391557	2543.708257
343.783113	2544.779503
344.174605	2542.523586
344.566033	2542.122815
344.957397	2539.637526
345.348697	2541.636343
345.739934	2539.350180
346.131106	2533.961187
346.522215	2533.446989
346.913260	2531.934643
347.304241	2529.167049
347.695159	2526.344003
348.086012	2525.514733
348.476802	2524.738396
348.867528	2518.620955
349.258191	2518.235307
349.648789	2517.398476
350.039324	2511.344050
350.429796	2518.351254
350.820203	2512.780779
351.210548	2514.716582
351.600828	2512.745491
351.991045	2511.278515
352.381198	2510.945799
352.771288	2510.907990
353.161314	2511.147445
353.551276	2509.592249
353.941175	2508.558812
354.331010	2509.617455
354.720782	2507.061590
355.110490	2509.690551
355.500135	2505.720643
355.889717	2511.538134
356.279235	2508.437825
356.668689	2507.618637
357.058080	2506.943122
357.447408	2508.982269
357.836672	2509.370438
358.225873	2510.519821
358.615010	2510.189626
359.004084	2512.909328
359.393095	2510.015706
359.782043	2512.979904
360.170927	2510.681138
360.559748	2512.889163
360.948505	2512.314472
361.337199	2516.904442
361.725830	2513.146262
362.114398	2514.293125
362.502903	2513.821777
362.891344	2515.911335
363.279722	2515.687004
363.668037	2518.477282
364.056289	2515.792868
364.444478	2516.811181
364.832603	2517.509381
365.220665	2518.991480
365.608665	2516.541479
365.996601	2521.262520
366.384474	2519.213291
366.772284	2519.571213
367.160031	2520.256810
367.547715	2522.452232
367.935336	2520.476100
368.322893	2517.348064
368.710388	2516.715399
369.097820	2520.985257
369.485189	2515.475275
369.872495	2521.275123
370.259738	2521.065915
370.646918	2524.098169
371.034035	2522.243024
371.421090	2522.323683
371.808081	2524.193951
372.195010	2523.578930
372.581875	2523.891482
372.968678	2522.880730
373.355418	2524.549352
373.742096	2526.316277
374.128710	2523.664630
374.515262	2525.091276
374.901751	2527.407687
375.288177	2524.685463
375.674540	2525.882738
376.060841	2527.521113
376.447079	2525.091276
376.833254	2526.747295
377.219367	2527.110258
377.605417	2526.298633
377.991404	2528.277286
378.377329	2527.611853
378.763191	2529.267872
379.148991	2525.741585
379.534727	2529.560259
379.920402	2529.275434
380.306013	2529.172090
380.691563	2531.329704
381.077049	2528.657893
381.462474	2528.857018
381.847835	2527.813499
382.233134	2528.491535
382.618371	2529.441792
383.003545	2530.026566
383.388657	2528.715866
383.773706	2532.320291
384.158693	2532.710980
384.543618	2528.937677
384.928480	2532.859694
385.313280	2530.268541
385.698017	2534.230888
386.082692	2531.821217
386.467305	2533.731814
386.851856	2531.574200
387.236344	2533.149561
387.620770	2529.686288
388.005133	2527.344672
388.389435	2527.742923
388.773674	2527.566483
389.157851	2534.702236
389.541965	2531.952287
389.926018	2532.451361
390.310008	2535.677699
390.693936	2533.457071
391.077802	2533.981351
391.461606	2533.754499
391.845348	2533.827596
392.229027	2536.496887
392.612645	2531.644776
392.996200	2536.007895
393.379694	2534.621578
393.763125	2535.062679
394.146494	2534.092257
394.529801	2537.792463
394.913047	2535.841537
395.296230	2537.747093
395.679351	2535.425642
396.062410	2537.613503
396.445408	2535.327339
396.828343	2536.388502
397.211217	2537.805066
397.594028	2537.981507
397.976778	2536.809438
398.359466	2535.962525
398.742092	2536.459078
399.124656	2536.650642
399.507158	2538.571322
399.889598	2539.009902
400.271977	2537.981507
400.654294	2538.462937
401.036549	2537.341280
401.418742	2539.347659
401.800874	2538.765406
402.182944	2536.985879
402.564952	2540.681045
402.946898	2540.187012
403.328783	2540.567619
403.710606	2541.225489
404.092367	2540.244985
404.474067	2540.668442
404.855705	2541.013761
405.237282	2540.292876
405.618797	2538.745242
406.000250	2540.512166
406.381642	2541.001158
406.762972	2538.364634
407.144240	2537.837834
407.525447	2537.416897
407.906593	2535.602082
408.287677	2544.280428
408.668700	2544.340922
409.049661	2541.974101
409.430560	2544.628268
409.811399	2543.609955
410.192176	2540.272711
410.572891	2544.222455
410.953545	2542.155582
411.334138	2545.213042
411.714669	2544.837476
412.095139	2542.516025
412.475547	2544.101468
412.855894	2544.522404
413.236180	2545.263453
413.616405	2545.679349
413.996568	2541.636343
414.376670	2544.595501
414.756711	2543.693134
415.136691	2543.839327
415.516609	2544.328319
415.896466	2547.869730
416.276262	2544.522404
416.655997	2547.229503
417.035670	2544.161961
417.415283	2545.339071
417.794834	2547.184133
418.174324	2546.191026
418.553753	2548.920811
418.933121	2548.305790
419.312428	2546.511139
419.691674	2547.027857
420.070859	2546.422919
420.449983	2547.116077
420.829045	2545.573484
421.208047	2548.547765
421.586988	2547.063145
421.965867	2547.748742
422.344686	2547.519370
422.723444	2548.391489
423.102141	2547.673125
423.480777	2546.962322
423.859352	2547.446273
424.237866	2548.436860
424.616319	2548.411654
424.994712	2549.828218
425.373044	2548.053732
425.751314	2545.969215
426.129524	2544.824873
426.507673	2547.721016
426.885762	2544.434184
427.263789	2548.845193
427.641756	2546.657332
428.019662	2550.468445
428.397508	2551.189330
428.775292	2551.801830
429.153016	2550.191181
429.530679	2551.809392
429.908282	2549.888712
430.285824	2552.137067
430.663305	2550.138249
431.040726	2550.765873
431.418086	2549.770245
431.795385	2551.002807
432.172624	2549.248486
432.549802	2548.109185
432.926920	2553.140256
433.303977	2548.376366
433.680974	2551.489278
434.057910	2549.490461
434.434786	2550.276881
434.811601	2551.479196
435.188355	2551.194371
435.565050	2549.359391
435.941683	2553.672098
436.318257	2550.370142
436.694770	2553.324258
437.071222	2551.098589
437.447614	2552.210163
437.823946	2553.137736
438.200218	2550.967519
438.576429	2552.361398
438.952580	2552.253013
439.328670	2552.305945
439.704700	2551.733774
440.080670	2552.429454
440.456580	2553.041954
440.832429	2550.513815
441.208218	2553.813250
441.583947	2553.571275
441.959616	2553.851059
442.335224	2552.810061
442.710773	2552.169834
443.086261	2552.976419
443.461689	2551.630431
443.837057	2550.823846
444.212365	2552.976419
444.587612	2550.140770
444.962800	2549.112374
445.337927	2552.479865
445.712995	2547.874771
446.088002	2553.440205
446.462949	2554.609753
446.837837	2553.903991
447.212664	2556.890875
447.587431	2553.861141
447.962139	2553.926676
448.336786	2555.547407
448.711374	2558.567058
449.085901	2556.212840
449.460369	2552.595812
449.834776	2554.710576
450.209124	2555.794424
450.583412	2555.774259
450.957640	2555.698642
451.331808	2555.852397
451.705917	2554.962633
452.079965	2556.716955
452.453954	2555.350802
452.827883	2553.225956
453.201752	2556.658982
453.575562	2557.228632
453.949311	2554.375339
454.323001	2555.358364
454.696632	2554.783672
455.070202	2558.914898
455.443713	2556.104455
455.817164	2554.355174
456.190556	2558.438509
456.563888	2556.613611
456.937160	2557.127809
457.310373	2555.570093
457.683526	2557.057233
458.056619	2559.111503
458.429653	2553.682180
458.802628	2558.599826
459.175542	2555.759136
459.548398	2559.426575
459.921194	2558.824157
460.293930	2557.952038
460.666607	2557.026986
461.039224	2557.657130
461.411782	2558.433468
461.784280	2559.008159
462.156719	2562.569735
462.529099	2558.299877
462.901419	2558.229301
463.273680	2555.277706
463.645882	2552.991542
464.018024	2554.735782
464.390106	2553.462890
464.762130	2558.264589
465.134094	2559.454302
465.505999	2563.593089
465.877845	2558.420865
466.249631	2560.782646
466.621358	2561.841288
466.993026	2561.914385
467.364634	2565.463357
467.736184	2560.490259
468.107674	2563.434292
468.479105	2561.158212
468.850477	2561.001936
469.221790	2558.796431
469.593043	2561.816082
469.964238	2563.507389
470.335373	2561.760629
470.706449	2560.707028
471.077467	2562.179045
471.448425	2561.493448
471.819324	2561.143088
472.190164	2566.330435
472.560945	2563.507389
472.931667	2561.430434
473.302330	2561.990002
473.672934	2560.812892
474.043479	2565.458316
474.413965	2563.409087
474.784393	2561.977399
475.154761	2564.087122
475.525070	2565.092832
475.895321	2561.581668
476.265513	2563.343552
476.635645	2562.978068
477.005719	2566.479149
477.375734	2563.951011
477.745691	2565.072667
478.115588	2564.268603
478.485427	2565.508727
478.855207	2565.695250
479.224928	2565.475960
479.594591	2566.642987
479.964194	2564.805486
480.333739	2568.939233
480.703226	2566.393450
481.072653	2568.634243
481.442022	2568.558625
481.811333	2566.040569
482.180584	2563.764488
482.549777	2564.780281
482.918912	2562.453788
483.287988	2567.898234
483.657005	2567.701629
484.025964	2568.152812
484.394864	2570.532237
484.763706	2567.270611
485.132489	2568.445199
485.501213	2569.821434
485.869879	2568.394788
486.238487	2570.209603
486.607036	2571.810170
486.975527	2566.776577
487.343959	2568.732545
487.712333	2571.790005
488.080648	2569.655076
488.448905	2569.551733
488.817104	2569.302196
489.185244	2571.742114
489.553326	2568.183059
489.921350	2571.548030
490.289315	2569.602144
490.657222	2572.715057
491.025070	2572.785633
491.392861	2572.883935
491.760593	2570.935529
492.128267	2571.207752
492.495883	2572.140365
492.863440	2571.646332
493.230939	2570.882597
493.598380	2573.327557
493.965763	2570.393605
494.333088	2571.790005
494.700354	2570.683472
495.067563	2573.095664
495.434713	2568.856053
495.801805	2570.055848
496.168839	2570.000395
496.535815	2570.381002
496.902733	2572.326888
497.269593	2573.816549
497.636395	2570.628019
498.003139	2573.032649
498.369825	2571.938719
498.736453	2570.398647
499.103023	2569.932340
499.469535	2574.602969
499.835989	2571.139696
500.202385	2570.302865
500.568723	2567.472257
500.935003	2570.065930
501.301226	2566.821948
501.667390	2574.706312
502.033497	2571.999213
502.399546	2572.707495
502.765537	2573.546847
503.131470	2572.289079
503.497345	2572.989800
503.863163	2571.772361
504.228923	2571.053997
504.594625	2572.951991
504.960269	2573.556929
505.325856	2572.273956
505.691385	2574.285376
506.056856	2575.394430
506.422270	2573.798905
506.787625	2575.538103
507.152924	2576.584142
507.518164	2575.759914
507.883347	2573.040211
508.248472	2575.386868
508.613540	2577.882239
508.978550	2575.908628
509.343503	2575.724626
509.708398	2573.962742
510.073236	2578.149421
510.438016	2575.976683
510.802738	2577.340315
511.167403	2578.467013
511.532010	2578.605645
511.896561	2579.704617
512.261053	2579.029102
512.625488	2581.259812
512.989866	2578.242682
513.354186	2581.408527
513.718449	2581.153948
514.082655	2581.476582
514.446803	2579.046746
514.810894	2580.801068
515.174927	2583.455235
515.538904	2585.385997
515.902822	2585.186871
516.266684	2583.195616
516.630488	2583.540935
516.994235	2587.709969
517.357925	2585.335585
517.721558	2588.695514
518.085133	2589.078642
518.448651	2586.076635
518.812112	2582.270564
519.175516	2587.588981
519.538863	2585.998497
519.902152	2590.719538
520.265385	2593.010742
520.628560	2594.109714
520.991678	2595.987543
521.354739	2592.579723
521.717743	2590.412027
522.080690	2596.675661
522.443580	2596.620208
522.806413	2595.967379
523.169189	2597.265476
523.531908	2599.901999
523.894569	2600.126331
524.257174	2599.826382
524.619722	2599.349993
524.982213	2598.092225
525.344647	2602.956939
525.707025	2601.021136
526.069345	2602.775457
526.431608	2604.365941
526.793815	2603.415684
527.155964	2606.248812
527.518057	2604.328132
527.880093	2602.848554
528.242072	2607.383072
528.603995	2608.534975
528.965860	2611.468927
529.327669	2609.621344
529.689421	2612.424226
530.051117	2613.462703
530.412755	2613.886160
530.774337	2610.788371
531.135862	2613.404730
531.497331	2616.484875
531.858743	2615.083434
532.220098	2614.705348
532.581396	2617.349433
532.942638	2616.058898
533.303824	2618.718106
533.664953	2617.808178
534.026025	2617.089813
534.387040	2622.123406
534.747999	2622.216667
535.108902	2623.925618
535.469748	2621.548714
535.830537	2623.534929
536.191270	2626.995681
536.551947	2620.479989
536.912567	2620.956378
537.273131	2624.661627
537.633638	2621.241204
537.994089	2629.322173
538.354483	2629.496093
538.714821	2629.468367
539.075103	2628.692029
539.435328	2630.985754
539.795497	2631.008439
540.155609	2631.628501
540.515665	2632.341824
540.875665	2632.871146
541.235609	2631.542802
541.595496	2631.119345
541.955328	2631.590692
542.315102	2635.356434
542.674821	2635.588327
543.034483	2633.690333
543.394090	2637.940026
543.753640	2639.449851
544.113134	2643.414719
544.472571	2640.269039
544.831953	2642.545120
545.191278	2642.451858
545.550548	2643.505460
545.909761	2643.392034
546.268918	2644.261633
546.628019	2646.484782
546.987064	2647.306490
547.346053	2646.356232
547.704986	2646.013434
548.063863	2646.134421
548.422684	2647.442601
548.781449	2648.866727
549.140158	2649.242293
549.498811	2648.206336
549.857408	2645.990748
550.215949	2649.325472
550.574434	2650.706748
550.932864	2651.377221
551.291237	2652.516522
551.649555	2652.957623
552.007817	2653.376039
552.366022	2654.575833
552.724173	2655.241266
553.082267	2657.706390
553.440305	2656.864517
553.798288	2657.277892
554.156215	2658.911226
554.514086	2660.337872
554.871902	2658.086997
555.229661	2658.177738
555.587365	2655.284116
555.945014	2663.022287
556.302606	2662.992040
556.660143	2665.036228
557.017625	2665.189983
557.375050	2667.246774
557.732421	2668.063441
558.089735	2668.532268
558.446994	2669.144768
558.804197	2670.266425
559.161345	2672.255160
559.518437	2671.637619
559.875474	2672.736590
560.232455	2672.509738
560.589381	2672.330777
560.946251	2675.017712
561.303065	2676.111643
561.659825	2678.793537
562.016528	2677.634071
562.373177	2676.474606
562.729770	2677.979390
563.086307	2681.936696
563.442789	2684.220339
563.799216	2683.799402
564.155587	2687.131605
564.511904	2690.597398
564.868164	2685.503312
565.224370	2688.563293
565.580520	2690.007583
565.936615	2696.125023
566.292654	2691.822399
566.648638	2697.410518
567.004567	2696.979499
567.360441	2698.184335
567.716260	2698.408666
568.072023	2703.936291
568.427732	2703.558205
568.783385	2704.047197
569.138982	2708.962322
569.494525	2709.806715
569.850013	2713.164123
570.205445	2711.006510
570.560823	2712.551623
570.916145	2717.139073
571.271412	2719.826008
571.626625	2723.979919
571.981782	2728.159036
572.336884	2722.253324
572.691931	2726.417317
573.046923	2727.007132
573.401860	2729.346227
573.756743	2737.361662
574.111570	2740.908114
574.466342	2743.963053
574.821059	2745.616551
575.175722	2745.729977
575.530330	2753.609301
575.884882	2753.281626
576.239380	2761.735641
576.593823	2763.159767
576.948211	2765.844181
577.302544	2767.595982
577.656823	2768.291661
578.011047	2772.712753
578.365216	2773.267280
578.719330	2781.988476
579.073389	2785.013169
579.427394	2795.844088
579.781344	2790.339148
580.135239	2797.419448
580.489080	2801.865746
580.842866	2802.551343
581.196597	2822.214363
581.550273	2818.272181
581.903895	2830.086125
582.257463	2834.794563
582.610975	2840.173474
582.964434	2849.786954
583.317837	2855.347347
583.671186	2864.829757
584.024481	2877.828373
584.377721	2874.604555
584.730906	2884.155021
585.084037	2892.314128
585.437113	2898.098852
585.790135	2908.546644
586.143103	2910.152251
586.496016	2915.284146
586.848874	2932.585386
587.201679	2935.935233
587.554428	2944.711881
587.907124	2960.447843
588.259765	2967.109728
588.612352	2986.402224
588.964884	2984.899960
589.317362	2995.904799
589.669786	3011.539937
590.022155	3020.596370
590.374470	3040.337529
590.726731	3045.492108
591.078937	3048.980587
591.431090	3063.932649
591.783188	3067.877352
592.135232	3081.294383
592.487222	3100.352465
592.839157	3113.943416
593.191038	3123.612349
593.542866	3130.034779
593.894639	3139.708753
594.246358	3165.456447
594.598022	3171.957014
594.949633	3178.923889
595.301190	3185.850434
595.652692	3209.838765
596.004141	3225.284860
596.355535	3221.927452
596.706876	3238.878332
597.058162	3250.959457
597.409395	3265.364554
597.760573	3287.926238
598.111698	3296.405459
598.462768	3314.946823
598.813785	3327.400993
599.164748	3334.327539
599.515657	3353.120960
599.866511	3363.261241
600.217312	3396.490007
600.568060	3389.394583
600.918753	3431.102569
601.269392	3446.727625
601.619978	3449.913635
601.970510	3491.167917
602.320988	3504.237108
602.671412	3539.867984
603.021783	3544.165568
603.372100	3555.896333
603.722363	3587.317844
604.072572	3613.879684
604.422728	3633.893065
604.772830	3653.082217
605.122878	3657.062208
605.472872	3694.034030
605.822813	3719.161662
606.172701	3743.649066
606.522534	3779.204324
606.872314	3804.299188
607.222041	3812.385199
607.571714	3852.921117
607.921333	3879.530848
608.270899	3909.346752
608.620411	3958.094710
608.969870	3952.186477
609.319276	3989.160820
609.668627	4031.693035
610.017926	4072.299530
610.367171	4110.793780
610.716362	4157.807581
611.065500	4165.271009
611.414585	4214.754976
611.763616	4237.926639
612.112594	4271.989716
612.461518	4289.762304
612.810389	4347.370089
613.159207	4362.211246
613.507971	4384.548599
613.856682	4470.555725
614.205340	4497.102441
614.553945	4565.785641
614.902496	4552.096388
615.250994	4635.204850
615.599439	4661.002955
615.947830	4694.967729
616.296169	4727.997369
616.644454	4778.174494
616.992686	4798.550838
617.340864	4879.844485
617.688990	4897.090272
618.037063	4981.396008
618.385082	4999.574409
618.733048	5071.998146
619.080961	5103.429740
619.428821	5164.672198
619.776628	5199.705696
620.124382	5213.636925
620.472083	5273.233446
620.819731	5321.739428
621.167326	5300.483403
621.514868	5337.593857
621.862357	5347.726576
622.209793	5382.200507
622.557176	5386.377103
622.904506	5378.154981
623.251783	5396.756838
623.599007	5414.970527
623.946179	5437.040699
624.293297	5463.027847
624.640363	5452.983348
624.987376	5483.673892
625.334336	5478.146267
625.681243	5486.365869
626.028097	5514.399725
626.374899	5571.326955
626.721647	5554.048400
627.068343	5559.838165
627.414987	5590.755562
627.761577	5646.160363
628.108115	5701.272778
628.454600	5658.123021
628.801032	5708.534560
629.147412	5744.838429
629.493739	5788.817455
629.840014	5799.464372
630.186236	5853.187949
630.532405	5840.413665
630.878521	5933.778355
631.224585	5942.754129
631.570597	5960.519155
631.916556	5988.109390
632.262462	6018.812538
632.608316	6067.600825
632.954117	6086.386685
633.299866	6128.409743
633.645562	6150.933618
633.991206	6115.080932
634.336797	6097.346153
634.682336	6150.295912
635.027823	6135.714375
635.373257	6163.541544
635.718639	6146.870448
636.063968	6169.361556
636.409245	6149.350696
636.754470	6177.319018
637.099642	6179.267424
637.444762	6132.430063
637.789829	6198.391041
638.134845	6188.369227
638.479808	6225.998920
638.824719	6245.016673
639.169577	6233.154838
639.514383	6282.086797
639.859137	6256.528147
640.203839	6322.360576
640.548489	6290.533251
640.893086	6345.640624
641.237632	6306.107896
641.582125	6418.422283
641.926566	6391.043776
642.270955	6431.073058
642.615292	6451.648528
642.959576	6484.688250
643.303809	6549.459515
643.647990	6542.603546
643.992118	6620.915350
644.336195	6546.770060
