Dividing Wavelength (nm)	Counts (n)	Blue Motor Position (mm): 6.600000	Red Motor Position (mm): 0.000000	
326.493990	2155.297436
326.888308	2155.297436
327.282561	2155.297436
327.676750	2118.539863
328.070874	2114.625407
328.464933	2112.800509
328.858929	2119.757301
329.252859	2123.550770
329.646726	2131.198200
330.040528	2142.518111
330.434265	2157.676861
330.827938	2175.381393
331.221547	2189.811696
331.615091	2209.424305
332.008571	2226.982644
332.401986	2244.667011
332.795338	2265.988572
333.188625	2283.388114
333.581847	2303.363686
333.975006	2319.991932
334.368100	2336.277380
334.761129	2355.181707
335.154095	2373.712988
335.546996	2387.881151
335.939833	2406.394788
336.332606	2422.569331
336.725315	2435.000816
337.117960	2449.398351
337.510540	2459.727676
337.903056	2471.912144
338.295508	2478.868937
338.687896	2486.347488
339.080220	2495.247646
339.472480	2502.557319
339.864676	2505.304747
340.256807	2511.205418
340.648875	2515.409740
341.040879	2517.852179
341.432818	2523.210926
341.824694	2524.801410
342.216506	2527.732841
342.608253	2526.654034
342.999937	2528.564631
343.391557	2528.864580
343.783113	2527.964734
344.174605	2525.837367
344.566033	2524.483817
344.957397	2524.970289
345.348697	2521.852335
345.739934	2520.251769
346.131106	2519.578775
346.522215	2515.787827
346.913260	2517.310255
347.304241	2513.804133
347.695159	2512.511077
348.086012	2511.346570
348.476802	2508.178205
348.867528	2506.464213
349.258191	2500.757627
349.648789	2502.101094
350.039324	2496.568428
350.429796	2499.998933
350.820203	2497.624550
351.210548	2499.227637
351.600828	2496.180259
351.991045	2493.735299
352.381198	2494.856956
352.771288	2493.904178
353.161314	2491.786893
353.551276	2492.936277
353.941175	2489.682212
354.331010	2490.508961
354.720782	2492.424599
355.110490	2490.440905
355.500135	2493.029538
355.889717	2493.316884
356.279235	2491.706235
356.668689	2492.144815
357.058080	2490.531646
357.447408	2492.495176
357.836672	2493.604229
358.225873	2492.827892
358.615010	2496.036586
359.004084	2493.478201
359.393095	2492.981647
359.782043	2493.911740
360.170927	2493.367295
360.559748	2496.518016
360.948505	2499.651093
361.337199	2498.206803
361.725830	2497.107831
362.114398	2498.214365
362.502903	2497.939622
362.891344	2498.993223
363.279722	2498.232009
363.668037	2500.288799
364.056289	2499.832575
364.444478	2502.877432
364.832603	2501.017246
365.220665	2503.348780
365.608665	2503.399191
365.996601	2500.692092
366.384474	2502.249808
366.772284	2502.335508
367.160031	2505.516476
367.547715	2504.712412
367.935336	2501.871722
368.322893	2501.402894
368.710388	2503.079078
369.097820	2502.890035
369.485189	2496.896103
369.872495	2503.905827
370.259738	2503.245436
370.646918	2508.044615
371.034035	2504.747700
371.421090	2506.975890
371.808081	2508.183246
372.195010	2504.541013
372.581875	2506.272649
372.968678	2507.129645
373.355418	2505.067813
373.742096	2507.699296
374.128710	2508.521004
374.515262	2510.018226
374.901751	2508.392454
375.288177	2509.577125
375.674540	2507.893380
376.060841	2510.663494
376.447079	2507.595952
376.833254	2512.122908
377.219367	2510.393792
377.605417	2510.761797
377.991404	2508.447907
378.377329	2510.202228
378.763191	2509.050325
379.148991	2513.733557
379.534727	2510.479492
379.920402	2513.620131
380.306013	2515.361849
380.691563	2514.572909
381.077049	2511.737260
381.462474	2512.420336
381.847835	2514.540141
382.233134	2514.779596
382.618371	2510.761797
383.003545	2511.235665
383.388657	2513.960409
383.773706	2513.410923
384.158693	2513.385717
384.543618	2515.991994
384.928480	2514.900584
385.313280	2517.078362
385.698017	2514.066273
386.082692	2514.119205
386.467305	2515.702127
386.851856	2515.777745
387.236344	2516.319669
387.620770	2512.780779
388.005133	2511.875892
388.389435	2512.584174
388.773674	2513.599966
389.157851	2515.848321
389.541965	2517.660616
389.926018	2517.716068
390.310008	2517.509381
390.693936	2515.881088
391.077802	2518.222704
391.461606	2519.576254
391.845348	2516.491068
392.229027	2518.164731
392.612645	2517.433764
392.996200	2516.609535
393.379694	2516.067611
393.763125	2517.232118
394.146494	2521.262520
394.529801	2521.534742
394.913047	2519.387211
395.296230	2518.613394
395.679351	2518.885616
396.062410	2520.100534
396.445408	2519.654392
396.828343	2516.906963
397.211217	2517.973167
397.594028	2521.963240
397.976778	2521.635565
398.359466	2521.224711
398.742092	2521.592716
399.124656	2520.163548
399.507158	2521.759074
399.889598	2521.544825
400.271977	2521.590195
400.654294	2521.184382
401.036549	2524.040196
401.418742	2524.899713
401.800874	2519.805627
402.182944	2522.023734
402.564952	2523.949455
402.946898	2524.788807
403.328783	2521.628004
403.710606	2525.303005
404.092367	2524.158663
404.474067	2523.745288
404.855705	2524.017511
405.237282	2524.844260
405.618797	2524.216636
406.000250	2522.845442
406.381642	2522.658920
406.762972	2523.389887
407.144240	2519.903929
407.525447	2521.428878
407.906593	2521.711183
408.287677	2523.684794
408.668700	2522.951307
409.049661	2527.437933
409.430560	2523.833508
409.811399	2526.331400
410.192176	2526.648993
410.572891	2526.313756
410.953545	2528.418438
411.334138	2525.665968
411.714669	2527.052285
412.095139	2523.034486
412.475547	2527.311905
412.855894	2527.185876
413.236180	2524.811492
413.616405	2525.643283
413.996568	2527.657224
414.376670	2527.097656
414.756711	2527.899199
415.136691	2529.882893
415.516609	2528.720907
415.896466	2528.688140
416.276262	2527.251411
416.655997	2528.683098
417.035670	2526.444826
417.415283	2529.393901
417.794834	2527.218643
418.174324	2528.887265
418.553753	2528.539426
418.933121	2527.508510
419.312428	2530.865918
419.691674	2530.775177
420.070859	2531.362472
420.449983	2529.666123
420.829045	2531.685106
421.208047	2531.624612
421.586988	2529.744261
421.965867	2529.076308
422.344686	2531.312060
422.723444	2533.968748
423.102141	2529.416586
423.480777	2530.475229
423.859352	2531.485980
424.237866	2531.634694
424.616319	2530.064375
424.994712	2532.063192
425.373044	2532.181659
425.751314	2527.150588
426.129524	2527.158149
426.507673	2528.226874
426.885762	2528.514220
427.263789	2532.113604
427.641756	2532.113604
428.019662	2532.340456
428.397508	2532.683254
428.775292	2533.391536
429.153016	2533.867925
429.530679	2534.253573
429.908282	2536.514531
430.285824	2533.172246
430.663305	2531.949766
431.040726	2531.344828
431.418086	2533.121834
431.795385	2533.240302
432.172624	2532.300126
432.549802	2534.238450
432.926920	2534.961856
433.303977	2536.252391
433.680974	2536.454037
434.057910	2533.139478
434.434786	2534.440096
434.811601	2533.913296
435.188355	2534.523275
435.565050	2537.384130
435.941683	2534.006557
436.318257	2534.747607
436.694770	2535.876825
437.071222	2533.938501
437.447614	2535.826413
437.823946	2535.602082
438.200218	2533.389016
438.576429	2533.608306
438.952580	2532.907585
439.328670	2534.523275
439.704700	2537.137113
440.080670	2535.629808
440.456580	2533.933460
440.832429	2534.916485
441.208218	2537.376568
441.583947	2537.822710
441.959616	2537.376568
442.335224	2533.963707
442.710773	2537.361445
443.086261	2536.234747
443.461689	2536.580066
443.837057	2537.605941
444.212365	2535.768440
444.587612	2535.274407
444.962800	2532.761392
445.337927	2535.355066
445.712995	2530.926412
446.088002	2537.447144
446.462949	2535.770961
446.837837	2535.423121
447.212664	2536.625436
447.587431	2540.192053
447.962139	2536.935467
448.336786	2539.602238
448.711374	2537.046373
449.085901	2537.406815
449.460369	2537.684079
449.834776	2537.689120
450.209124	2538.987217
450.583412	2537.172402
450.957640	2537.351363
451.331808	2540.698689
451.705917	2537.449665
452.079965	2537.079140
452.453954	2539.307330
452.827883	2540.368493
453.201752	2539.783719
453.575562	2537.807587
453.949311	2537.860519
454.323001	2541.081816
454.696632	2539.514018
455.070202	2539.909748
455.443713	2540.358411
455.817164	2537.978986
456.190556	2541.659028
456.563888	2542.392516
456.937160	2540.696168
457.310373	2538.394881
457.683526	2541.354039
458.056619	2539.423277
458.429653	2541.071734
458.802628	2539.791281
459.175542	2539.819007
459.548398	2537.558050
459.921194	2542.163144
460.293930	2541.250695
460.666607	2538.694830
461.039224	2541.013761
461.411782	2539.534182
461.784280	2541.187681
462.156719	2539.025026
462.529099	2540.275232
462.901419	2541.500232
463.273680	2537.684079
463.645882	2537.018646
464.018024	2537.502597
464.390106	2538.473019
464.762130	2541.928730
465.134094	2541.613658
465.505999	2539.846734
465.877845	2540.681045
466.249631	2540.678524
466.621358	2542.818494
466.993026	2539.309851
467.364634	2544.555171
467.736184	2543.317568
468.107674	2541.837989
468.479105	2541.774975
468.850477	2542.382434
469.221790	2540.156765
469.593043	2541.333874
469.964238	2543.652805
470.335373	2544.212373
470.706449	2544.179605
471.077467	2542.657177
471.448425	2540.439069
471.819324	2540.423946
472.190164	2544.517363
472.560945	2541.122146
472.931667	2543.186498
473.302330	2541.999306
473.672934	2540.623071
474.043479	2538.883873
474.413965	2542.160623
474.784393	2543.068031
475.154761	2542.631971
475.525070	2543.378062
475.895321	2543.221786
476.265513	2540.834800
476.635645	2544.267826
477.005719	2542.034594
477.375734	2543.965356
477.745691	2545.467620
478.115588	2544.033412
478.485427	2542.463092
478.855207	2542.407640
479.224928	2543.612476
479.594591	2543.269677
479.964194	2544.880326
480.333739	2543.045346
480.703226	2545.578526
481.072653	2541.830428
481.442022	2546.420398
481.811333	2542.964687
482.180584	2540.204656
482.549777	2540.701209
482.918912	2539.254398
483.287988	2543.859492
483.657005	2544.837476
484.025964	2542.831097
484.394864	2543.975439
484.763706	2544.701365
485.132489	2545.593649
485.501213	2545.349153
485.869879	2543.110881
486.238487	2545.754966
486.607036	2546.755635
486.975527	2545.747404
487.343959	2544.953422
487.712333	2544.456869
488.080648	2545.346633
488.448905	2543.914945
488.817104	2546.206149
489.185244	2545.419729
489.553326	2545.341591
489.921350	2543.163813
490.289315	2544.091385
490.657222	2545.639019
491.025070	2543.120963
491.392861	2544.870243
491.760593	2547.332847
492.128267	2546.556509
492.495883	2543.176416
492.863440	2545.097095
493.230939	2546.473330
493.598380	2544.918134
493.965763	2543.279759
494.333088	2545.560882
494.700354	2545.641540
495.067563	2545.949050
495.434713	2544.033412
495.801805	2544.623227
496.168839	2546.138094
496.535815	2546.064997
496.902733	2545.989380
497.269593	2546.627086
497.636395	2547.249668
498.003139	2545.754966
498.369825	2543.834286
498.736453	2547.466438
499.103023	2546.828732
499.469535	2546.299411
499.835989	2545.868392
500.202385	2544.802188
500.568723	2544.411498
500.935003	2543.909904
501.301226	2543.158772
501.667390	2546.359904
502.033497	2550.120605
502.399546	2545.223124
502.765537	2545.553320
503.131470	2544.872764
503.497345	2547.794113
503.863163	2545.102137
504.228923	2545.467620
504.594625	2545.354194
504.960269	2545.560882
505.325856	2547.713454
505.691385	2548.520039
506.056856	2546.848896
506.422270	2546.997610
506.787625	2548.429298
507.152924	2546.735470
507.518164	2545.999462
507.883347	2548.283105
508.248472	2547.093392
508.613540	2547.902497
508.978550	2546.541386
509.343503	2547.380738
509.708398	2549.339226
510.073236	2547.441232
510.438016	2546.964843
510.802738	2547.269833
511.167403	2547.189174
511.532010	2546.634647
511.896561	2547.226983
512.261053	2548.918290
512.625488	2547.975594
512.989866	2545.439894
513.354186	2546.848896
513.718449	2547.300080
514.082655	2548.759494
514.446803	2547.526932
514.810894	2544.819832
515.174927	2549.157745
515.538904	2550.828887
515.902822	2548.242775
516.266684	2546.982487
516.630488	2550.786038
516.994235	2547.428629
517.357925	2551.055739
517.721558	2546.155738
518.085133	2547.368135
518.448651	2545.528114
518.812112	2544.323278
519.175516	2544.875285
519.538863	2544.005686
519.902152	2548.204967
520.265385	2546.715306
520.628560	2547.204298
520.991678	2547.277394
521.354739	2546.964843
521.717743	2545.858310
522.080690	2549.550955
522.443580	2545.094575
522.806413	2550.733105
523.169189	2548.888043
523.531908	2548.605738
523.894569	2546.261602
524.257174	2548.542724
524.619722	2546.858979
524.982213	2548.552806
525.344647	2548.630944
525.707025	2547.594987
526.069345	2546.196067
526.431608	2548.280584
526.793815	2548.608259
527.155964	2548.431819
527.518057	2545.540717
527.880093	2551.655637
528.242072	2548.968702
528.603995	2547.857127
528.965860	2548.918290
529.327669	2549.404761
529.689421	2550.133208
530.051117	2548.993907
530.412755	2550.652447
530.774337	2550.264278
531.135862	2548.890564
531.497331	2547.353012
531.858743	2549.760163
532.220098	2552.474824
532.581396	2548.956099
532.942638	2548.532642
533.303824	2547.317724
533.664953	2549.931562
534.026025	2549.263609
534.387040	2548.819988
534.747999	2546.851417
535.108902	2550.181099
535.469748	2548.809905
535.830537	2550.367622
536.191270	2551.068342
536.551947	2549.253527
536.912567	2545.651622
537.273131	2547.766386
537.633638	2542.669780
537.994089	2550.481048
538.354483	2551.955585
538.714821	2548.963660
539.075103	2547.932744
539.435328	2550.942313
539.795497	2550.788558
540.155609	2551.529608
540.515665	2550.138249
540.875665	2551.229659
541.235609	2548.479710
541.595496	2551.048177
541.955328	2547.980635
542.315102	2548.525080
542.674821	2552.794937
543.034483	2551.252344
543.394090	2551.141439
543.753640	2551.869886
544.113134	2554.337530
544.472571	2552.179917
544.831953	2554.824002
545.191278	2555.960782
545.550548	2550.909546
545.909761	2555.144115
546.268918	2554.513971
546.628019	2554.183775
546.987064	2553.558672
547.346053	2551.736295
547.704986	2556.459856
548.063863	2556.154866
548.422684	2554.859290
548.781449	2552.742005
549.140158	2552.593291
549.498811	2555.121430
549.857408	2555.837274
550.215949	2554.140925
550.574434	2551.562375
550.932864	2555.643189
551.291237	2556.616132
551.649555	2556.311142
552.007817	2557.004301
552.366022	2555.169321
552.724173	2554.604712
553.082267	2557.634445
553.440305	2556.737120
553.798288	2558.100752
554.156215	2559.686195
554.514086	2554.435833
554.871902	2550.619679
555.229661	2554.428271
555.587365	2554.128322
555.945014	2556.953889
556.302606	2555.726368
556.660143	2555.590257
557.017625	2555.988508
557.375050	2556.661502
557.732421	2557.463046
558.089735	2557.266441
558.446994	2556.595967
558.804197	2557.652089
559.161345	2558.965310
559.518437	2556.989177
559.875474	2559.988664
560.232455	2559.363561
560.589381	2559.003118
560.946251	2559.479507
561.303065	2559.348437
561.659825	2558.277192
562.016528	2558.919939
562.373177	2557.258879
562.729770	2559.136709
563.086307	2558.546894
563.442789	2557.851215
563.799216	2559.860114
564.155587	2562.461350
564.511904	2561.410269
564.868164	2559.512275
565.224370	2560.616287
565.580520	2562.375650
565.936615	2560.081925
566.292654	2557.730227
566.648638	2558.292316
567.004567	2558.904816
567.360441	2560.200392
567.716260	2558.665361
568.072023	2561.516133
568.427732	2559.290464
568.783385	2559.146791
569.138982	2557.110165
569.494525	2560.427244
569.850013	2559.424055
570.205445	2560.298695
570.560823	2557.788200
570.916145	2561.148129
571.271412	2560.485217
571.626625	2560.389436
571.981782	2556.704352
572.336884	2556.873231
572.691931	2555.018086
573.046923	2554.947510
573.401860	2555.091183
573.756743	2559.676112
574.111570	2559.355999
574.466342	2560.079405
574.821059	2560.717111
575.175722	2559.524878
575.530330	2559.650907
575.884882	2558.693087
576.239380	2559.991184
576.593823	2560.434806
576.948211	2555.754095
577.302544	2558.020093
577.656823	2557.987326
578.011047	2558.660320
578.365216	2558.912377
578.719330	2560.704508
579.073389	2557.861297
579.427394	2559.620660
579.781344	2558.378015
580.135239	2558.781307
580.489080	2560.717111
580.842866	2557.611760
581.196597	2559.431616
581.550273	2557.871379
581.903895	2557.218550
582.257463	2560.026473
582.610975	2558.146122
582.964434	2558.040258
583.317837	2557.614280
583.671186	2558.635114
584.024481	2560.026472
584.377721	2557.914229
584.730906	2557.135371
585.084037	2557.563869
585.437113	2559.361040
585.790135	2559.819785
586.143103	2558.829198
586.496016	2556.878272
586.848874	2557.773077
587.201679	2556.623694
587.554428	2556.472459
587.907124	2557.546225
588.259765	2553.422561
588.612352	2557.528581
588.964884	2560.381874
589.317362	2557.147974
589.669786	2559.096380
590.022155	2555.214691
590.374470	2549.384597
590.726731	2551.897612
591.078937	2548.381407
591.431090	2556.031358
591.783188	2555.401214
592.135232	2557.652089
592.487222	2554.445915
592.839157	2555.181924
593.191038	2557.382387
593.542866	2554.955072
593.894639	2557.876420
594.246358	2557.894064
594.598022	2555.073539
594.949633	2557.652089
595.301190	2553.518343
595.652692	2555.955741
596.004141	2551.524567
596.355535	2556.820299
596.706876	2554.677808
597.058162	2555.234856
597.409395	2554.846687
597.760573	2555.980947
598.111698	2556.207798
598.462768	2555.063457
598.813785	2556.764846
599.164748	2555.146636
599.515657	2555.789383
599.866511	2557.694939
600.217312	2553.130174
600.568060	2551.491799
600.918753	2555.751574
601.269392	2554.246790
601.619978	2553.851059
601.970510	2556.764846
602.320988	2554.007335
602.671412	2552.555483
603.021783	2554.065308
603.372100	2556.142263
603.722363	2553.891388
604.072572	2555.880123
604.422728	2554.657644
604.772830	2552.482386
605.122878	2553.205791
605.472872	2554.536656
605.822813	2553.848538
606.172701	2551.489278
606.522534	2554.370298
606.872314	2553.931717
607.222041	2554.241748
607.571714	2550.503733
607.921333	2549.619010
608.270899	2554.975236
608.620411	2550.584391
608.969870	2556.578323
609.319276	2558.874569
609.668627	2564.006463
610.017926	2564.387071
610.367171	2570.610375
610.716362	2567.008471
611.065500	2567.532751
611.414585	2566.007802
611.763616	2559.419013
612.112594	2561.533777
612.461518	2559.794579
612.810389	2559.502192
613.159207	2557.417675
613.507971	2557.725186
613.856682	2559.174517
614.205340	2556.853066
614.553945	2556.658982
614.902496	2556.595967
615.250994	2555.113868
615.599439	2557.314332
615.947830	2557.289126
616.296169	2555.577654
616.644454	2555.716286
616.992686	2556.835422
617.340864	2557.233673
617.688990	2556.227963
618.037063	2557.911708
618.385082	2555.131512
618.733048	2557.866338
619.080961	2557.347099
619.428821	2554.899619
619.776628	2556.641338
620.124382	2555.761656
620.472083	2554.385421
620.819731	2557.989846
621.167326	2556.537994
621.514868	2556.263251
621.862357	2557.790721
622.209793	2559.824826
622.557176	2556.981616
622.904506	2557.064795
623.251783	2556.742161
623.599007	2555.756615
623.946179	2556.222922
624.293297	2554.665205
624.640363	2556.752243
624.987376	2554.274516
625.334336	2552.283260
625.681243	2553.372149
626.028097	2551.474155
626.374899	2554.705535
626.721647	2555.945658
627.068343	2556.112017
627.414987	2551.272509
627.761577	2555.877603
628.108115	2558.138560
628.454600	2559.497151
628.801032	2555.093703
629.147412	2558.287274
629.493739	2555.928014
629.840014	2557.644527
630.186236	2555.917932
630.532405	2557.130330
630.878521	2558.372974
631.224585	2555.849877
631.570597	2556.999260
631.916556	2555.275185
632.262462	2556.664023
632.608316	2555.222253
632.954117	2556.517829
633.299866	2556.946328
633.645562	2556.285936
633.991206	2554.062788
634.336797	2555.928014
634.682336	2556.853066
635.027823	2556.848025
635.373257	2552.288301
635.718639	2554.014897
636.063968	2555.141594
636.409245	2555.363405
636.754470	2556.124619
637.099642	2553.762839
637.444762	2558.309960
637.789829	2554.468600
638.134845	2556.578323
638.479808	2555.786862
638.824719	2555.938097
639.169577	2555.870041
639.514383	2555.403734
639.859137	2553.346944
640.203839	2555.645710
640.548489	2554.345092
640.893086	2556.540515
641.237632	2555.834753
641.582125	2558.587223
641.926566	2555.678477
642.270955	2555.156718
642.615292	2551.713610
642.959576	2555.048333
643.303809	2551.252344
643.647990	2556.522871
643.992118	2556.842984
644.336195	2557.697459
