Dividing Wavelength (nm)	Counts (n)	Blue Motor Position (mm): 22.600000	Red Motor Position (mm): 0.000000	
326.493990	2190.257838
326.888308	2190.257838
327.282561	2190.257838
327.676750	2151.612353
328.070874	2146.430046
328.464933	2147.607156
328.858929	2150.473052
329.252859	2155.909936
329.646726	2164.689106
330.040528	2177.786023
330.434265	2190.575431
330.827938	2210.669470
331.221547	2226.531460
331.615091	2243.598287
332.008571	2261.696029
332.401986	2277.802516
332.795338	2297.694909
333.188625	2316.001859
333.581847	2336.116063
333.975006	2353.755060
334.368100	2373.077803
334.761129	2392.574465
335.154095	2411.264543
335.546996	2434.874787
335.939833	2466.702112
336.332606	2481.785244
336.725315	2494.493993
337.117960	2508.158041
337.510540	2519.982067
337.903056	2531.231402
338.295508	2539.337577
338.687896	2548.126829
339.080220	2553.523384
339.472480	2562.967986
339.864676	2566.166598
340.256807	2572.082392
340.648875	2576.548854
341.040879	2581.360636
341.432818	2579.704617
341.824694	2587.354567
342.216506	2587.102510
342.608253	2585.867427
342.999937	2584.806264
343.391557	2588.564444
343.783113	2586.994125
344.174605	2585.968250
344.566033	2586.230390
344.957397	2583.999680
345.348697	2582.066397
345.739934	2580.836356
346.131106	2580.112950
346.522215	2574.998699
346.913260	2574.285376
347.304241	2574.970973
347.695159	2572.430232
348.086012	2570.557443
348.476802	2566.141392
348.867528	2562.224416
349.258191	2560.149981
349.648789	2558.254507
350.039324	2556.656461
350.429796	2557.768036
350.820203	2559.303067
351.210548	2555.897768
351.600828	2556.638817
351.991045	2554.312325
352.381198	2553.719989
352.771288	2552.767211
353.161314	2553.238559
353.551276	2551.070863
353.941175	2552.573127
354.331010	2551.721172
354.720782	2549.286294
355.110490	2551.968188
355.500135	2552.711758
355.889717	2552.023641
356.279235	2550.372663
356.668689	2553.911553
357.058080	2550.982642
357.447408	2552.137067
357.836672	2553.462890
358.225873	2549.873589
358.615010	2551.527087
359.004084	2554.163611
359.393095	2551.196892
359.782043	2554.017417
360.170927	2552.956254
360.559748	2557.372305
360.948505	2554.735782
361.337199	2559.958417
361.725830	2561.183417
362.114398	2557.515978
362.502903	2555.635628
362.891344	2561.027142
363.279722	2559.832388
363.668037	2561.072512
364.056289	2560.666699
364.444478	2563.073850
364.832603	2561.251473
365.220665	2560.412121
365.608665	2561.725341
365.996601	2562.221895
366.384474	2561.793397
366.772284	2562.121072
367.160031	2563.467060
367.547715	2565.796073
367.935336	2564.961762
368.322893	2561.495969
368.710388	2562.138716
369.097820	2562.468912
369.485189	2561.881617
369.872495	2564.737431
370.259738	2565.811197
370.646918	2565.601989
371.034035	2567.608368
371.421090	2565.927143
371.808081	2566.564849
372.195010	2567.552915
372.581875	2567.068964
372.968678	2568.200703
373.355418	2565.879252
373.742096	2566.726166
374.128710	2570.275138
374.515262	2567.058882
374.901751	2568.694737
375.288177	2569.670200
375.674540	2570.645663
376.060841	2571.734552
376.447079	2568.364541
376.833254	2570.993503
377.219367	2570.935529
377.605417	2571.232957
377.991404	2572.775551
378.377329	2571.364027
378.763191	2570.202042
379.148991	2571.210272
379.534727	2572.069789
379.920402	2567.852864
380.306013	2575.207907
380.691563	2574.487022
381.077049	2572.236147
381.462474	2572.846127
381.847835	2572.934347
382.233134	2570.126424
382.618371	2573.612382
383.003545	2573.932495
383.388657	2572.457958
383.773706	2573.282187
384.158693	2575.427198
384.543618	2574.335788
384.928480	2578.202353
385.313280	2574.602969
385.698017	2575.719584
386.082692	2575.671693
386.467305	2578.588001
386.851856	2578.671180
387.236344	2576.803432
387.620770	2576.228741
388.005133	2574.764286
388.389435	2575.959039
388.773674	2571.043914
389.157851	2577.690676
389.541965	2578.572878
389.926018	2579.550861
390.310008	2578.182188
390.693936	2579.883577
391.077802	2578.192270
391.461606	2579.815522
391.845348	2579.414750
392.229027	2579.944071
392.612645	2579.011458
392.996200	2582.116809
393.379694	2582.578074
393.763125	2582.535224
394.146494	2578.895511
394.529801	2582.376428
394.913047	2581.547158
395.296230	2581.199319
395.679351	2580.039853
396.062410	2581.998342
396.445408	2584.004721
396.828343	2582.409196
397.211217	2582.464648
397.594028	2583.185533
397.976778	2582.751994
398.359466	2582.852817
398.742092	2581.799216
399.124656	2584.972622
399.507158	2587.168045
399.889598	2585.905236
400.271977	2584.276943
400.654294	2585.383476
401.036549	2585.978332
401.418742	2586.061512
401.800874	2583.891295
402.182944	2587.256265
402.564952	2584.740729
402.946898	2585.834660
403.328783	2585.794330
403.710606	2589.635690
404.092367	2590.127202
404.474067	2585.902715
404.855705	2588.544280
405.237282	2587.099989
405.618797	2588.347675
406.000250	2589.305494
406.381642	2586.202664
406.762972	2584.302149
407.144240	2586.031265
407.525447	2585.902715
407.906593	2584.922211
408.287677	2591.856318
408.668700	2586.580750
409.049661	2592.856987
409.430560	2590.268354
409.811399	2590.381780
410.192176	2591.390011
410.572891	2592.017635
410.953545	2592.625094
411.334138	2591.921853
411.714669	2592.993098
412.095139	2589.837336
412.475547	2592.425968
412.855894	2591.957141
413.236180	2592.536874
413.616405	2594.291195
413.996568	2593.255238
414.376670	2592.423448
414.756711	2591.813468
415.136691	2592.219281
415.516609	2594.462594
415.896466	2593.701380
416.276262	2591.863880
416.655997	2597.366299
417.035670	2593.943356
417.415283	2597.394025
417.794834	2597.262955
418.174324	2595.937132
418.553753	2594.550815
418.933121	2595.952255
419.312428	2596.844540
419.691674	2598.056937
420.070859	2597.376381
420.449983	2596.869745
420.829045	2596.587441
421.208047	2596.952924
421.586988	2599.241608
421.965867	2598.442585
422.344686	2600.128851
422.723444	2599.690271
423.102141	2598.293871
423.480777	2599.100456
423.859352	2599.927205
424.237866	2599.423090
424.616319	2598.480394
424.994712	2601.290837
425.373044	2597.257914
425.751314	2598.397215
426.129524	2594.966710
426.507673	2600.602720
426.885762	2596.385795
427.263789	2601.668924
427.641756	2599.954932
428.019662	2600.431321
428.397508	2600.809407
428.775292	2603.166147
429.153016	2602.377206
429.530679	2603.110694
429.908282	2602.861157
430.285824	2601.447113
430.663305	2602.475508
431.040726	2603.342587
431.418086	2602.241095
431.795385	2603.831579
432.172624	2604.154213
432.549802	2604.587752
432.926920	2603.665221
433.303977	2606.692434
433.680974	2602.558687
434.057910	2605.568256
434.434786	2604.953236
434.811601	2607.030191
435.188355	2607.632609
435.565050	2605.432145
435.941683	2607.262084
436.318257	2607.100767
436.694770	2604.761672
437.071222	2605.868205
437.447614	2607.723350
437.823946	2606.788216
438.200218	2604.706219
438.576429	2607.821652
438.952580	2606.664707
439.328670	2609.686879
439.704700	2610.826180
440.080670	2605.515324
440.456580	2608.524893
440.832429	2612.383896
441.208218	2609.114708
441.583947	2611.481530
441.959616	2608.426591
442.335224	2608.537496
442.710773	2609.886005
443.086261	2611.342898
443.461689	2607.680500
443.837057	2609.704523
444.212365	2613.616458
444.587612	2607.070520
444.962800	2609.518000
445.337927	2611.158896
445.712995	2606.909203
446.088002	2614.886829
446.462949	2613.069493
446.837837	2612.025974
447.212664	2614.178547
447.587431	2615.733743
447.962139	2614.866665
448.336786	2617.472941
448.711374	2622.113323
449.085901	2618.884464
449.460369	2616.792385
449.834776	2619.451594
450.209124	2618.531583
450.583412	2621.624331
450.957640	2621.311780
451.331808	2618.937396
451.705917	2621.515947
452.079965	2618.420678
452.453954	2618.859258
452.827883	2621.641975
453.201752	2622.100720
453.575562	2622.783797
453.949311	2623.895371
454.323001	2621.571399
454.696632	2623.658437
455.070202	2625.684981
455.443713	2625.465691
455.817164	2625.173304
456.190556	2626.171452
456.563888	2629.791001
456.937160	2628.525671
457.310373	2627.449385
457.683526	2628.250928
458.056619	2631.013480
458.429653	2629.380147
458.802628	2634.081022
459.175542	2629.773357
459.548398	2632.830816
459.921194	2635.830303
460.293930	2637.135962
460.666607	2640.765592
461.039224	2645.078300
461.411782	2647.235913
461.784280	2649.063332
462.156719	2651.132725
462.529099	2654.303611
462.901419	2652.264464
463.273680	2651.213384
463.645882	2649.557365
464.018024	2657.789569
464.390106	2655.057264
464.762130	2668.247443
465.134094	2675.738597
465.505999	2690.289888
465.877845	2718.333827
466.249631	2738.523648
466.621358	2739.408370
466.993026	2738.130438
467.364634	2744.741911
467.736184	2742.969946
468.107674	2747.030595
468.479105	2759.262955
468.850477	2769.882145
469.221790	2777.355656
469.593043	2783.949485
469.964238	2794.598923
470.335373	2804.741724
470.706449	2823.267965
471.077467	2841.234637
471.448425	2886.448746
471.819324	2985.635968
472.190164	3057.626166
472.560945	3015.373735
472.931667	2996.444202
473.302330	3009.314268
473.672934	3032.279244
474.043479	3075.771799
474.413965	3106.275821
474.784393	3139.698671
475.154761	3199.690922
475.525070	3242.830596
475.895321	3275.290586
476.265513	3352.309334
476.635645	3432.186417
477.005719	3479.714416
477.375734	3552.201167
477.745691	3647.078203
478.115588	3743.737287
478.485427	3854.443546
478.855207	4002.512316
479.224928	4234.145774
479.594591	4534.936300
479.964194	4628.285867
480.333739	4743.992950
480.703226	4774.736427
481.072653	4873.621180
481.442022	5072.285492
481.811333	5298.598011
482.180584	5429.499133
482.549777	5421.171147
482.918912	5526.553947
483.287988	5679.578172
483.657005	5788.066323
484.025964	5873.105548
484.394864	5995.512325
484.763706	6092.325164
485.132489	6173.245765
485.501213	6314.498896
485.869879	6471.820705
486.238487	6537.935437
486.607036	6760.918275
486.975527	6845.697880
487.343959	7049.095835
487.712333	7231.482260
488.080648	7281.019158
488.448905	7581.265240
488.817104	7682.922628
489.185244	8003.136721
489.553326	8208.644398
489.921350	8590.383253
490.289315	9399.432992
490.657222	10128.280495
491.025070	10479.096912
491.392861	10639.856787
491.760593	10612.944587
492.128267	10601.866652
492.495883	10461.241145
492.863440	10417.347818
493.230939	10322.246451
493.598380	10485.925154
493.965763	10537.702846
494.333088	10591.456669
494.700354	10760.478996
495.067563	10937.146232
495.434713	11047.509693
495.801805	11238.927346
496.168839	11432.674011
496.535815	11572.104765
496.902733	11843.903616
497.269593	11860.541944
497.636395	12176.929801
498.003139	12361.894776
498.369825	12501.005417
498.736453	12755.828182
499.103023	12896.768761
499.469535	13128.573618
499.835989	13427.312395
500.202385	13660.233867
500.568723	13611.077576
500.935003	13894.019897
501.301226	13912.044543
501.667390	14478.433301
502.033497	14876.946595
502.399546	14881.770979
502.765537	14920.350929
503.131470	15284.780982
503.497345	15588.049236
503.863163	15296.577282
504.228923	15871.011722
504.594625	16190.797316
504.960269	16053.002417
505.325856	16570.675985
505.691385	16403.166004
506.056856	16936.671316
506.422270	17159.366807
506.787625	17029.045419
507.152924	17544.074901
507.518164	17706.503399
507.883347	17745.348010
508.248472	17689.310544
508.613540	18444.482952
508.978550	18490.344849
509.343503	18646.003077
509.708398	19033.400626
510.073236	19288.717424
510.438016	19604.059242
510.802738	19561.728673
511.167403	19892.282172
511.532010	19804.346804
511.896561	20592.039696
512.261053	20755.428533
512.625488	20755.405848
512.989866	20820.429171
513.354186	20845.259374
513.718449	21088.174934
514.082655	21507.886280
514.446803	21465.258283
514.810894	21967.619346
515.174927	21661.167603
515.538904	21827.671874
515.902822	22355.273994
516.266684	22292.299900
516.630488	22313.906286
516.994235	22449.190690
517.357925	22801.332931
517.721558	23082.415066
518.085133	23275.647534
518.448651	23311.147340
518.812112	23169.425382
519.175516	23420.351335
519.538863	23689.180946
519.902152	23574.043513
520.265385	23961.577173
520.628560	23839.213246
520.991678	23951.998981
521.354739	24109.472024
521.717743	24242.014041
522.080690	24112.665595
522.443580	24497.666076
522.806413	24584.235291
523.169189	24742.915690
523.531908	24859.250398
523.894569	24551.639190
524.257174	24672.611759
524.619722	24928.687251
524.982213	24685.038203
525.344647	24833.275852
525.707025	24971.884898
526.069345	25043.227307
526.431608	25032.240112
526.793815	25266.424394
527.155964	24768.849906
527.518057	24979.817154
527.880093	24945.439005
528.242072	25201.133890
528.603995	24954.818072
528.965860	24790.105932
529.327669	24885.900457
529.689421	24906.065073
530.051117	24756.637711
530.412755	24978.453522
530.774337	24806.381297
531.135862	24699.944895
531.497331	24921.143164
531.858743	24491.024356
532.220098	24997.378013
532.581396	24678.429250
532.942638	24676.790875
533.303824	24770.513487
533.664953	24808.506143
534.026025	24498.268494
534.387040	24740.117850
534.747999	24825.394008
535.108902	24991.532795
535.469748	24498.379400
535.830537	24713.545928
536.191270	24824.763864
536.551947	24738.933179
536.912567	24418.214971
537.273131	24709.482758
537.633638	24454.390291
537.994089	24660.775130
538.354483	24243.899433
538.714821	24731.421860
539.075103	24788.835561
539.435328	24569.099226
539.795497	24132.641167
540.155609	24551.971906
540.515665	24839.284908
540.875665	24109.081335
541.235609	24362.749676
541.595496	24356.778429
541.955328	24709.336565
542.315102	24624.970334
542.674821	24200.301014
543.034483	24082.370781
543.394090	24250.515947
543.753640	24033.227093
544.113134	24666.252343
544.472571	24270.554534
544.831953	24569.016047
545.191278	24167.896477
545.550548	24118.049548
545.909761	24321.092101
546.268918	24555.014242
546.628019	24508.673436
546.987064	24227.170364
547.346053	23979.533763
547.704986	24114.946718
548.063863	24272.011427
548.422684	24261.117494
548.781449	23836.654861
549.140158	24229.648091
549.498811	23796.134066
549.857408	23536.239900
550.215949	23988.527182
550.574434	23662.530886
550.932864	23881.329566
551.291237	24014.552139
551.649555	23909.063474
552.007817	23941.296612
552.366022	23834.363656
552.724173	23866.264078
553.082267	23805.162772
553.440305	24282.552480
553.798288	23554.821593
554.156215	24079.804834
554.514086	24159.195445
554.871902	23522.774978
555.229661	23813.914216
555.587365	23690.269835
555.945014	23509.456250
556.302606	23795.753459
556.660143	23717.792015
557.017625	23988.706143
557.375050	23526.165154
557.732421	23907.392331
558.089735	23715.299164
558.446994	23792.423777
558.804197	23800.419047
559.161345	23763.361525
559.518437	23495.199867
559.875474	23719.442992
560.232455	23882.403332
560.589381	23715.851170
560.946251	23674.027237
561.303065	24008.893443
561.659825	24093.297482
562.016528	23697.541700
562.373177	23434.373304
562.729770	23802.488440
563.086307	23667.829139
563.442789	23844.302291
563.799216	23661.835207
564.155587	23688.248332
564.511904	23668.981042
564.868164	23592.506739
565.224370	23587.319391
565.580520	23478.375016
565.936615	23619.277786
566.292654	23279.761116
566.648638	23614.922229
567.004567	23423.111367
567.360441	23371.331155
567.716260	23101.006842
568.072023	23431.318365
568.427732	23174.194313
568.783385	22983.195076
569.138982	23200.244476
569.494525	23251.192897
569.850013	22991.117249
570.205445	23094.942333
570.560823	22902.284557
570.916145	22665.219256
571.271412	22825.827897
571.626625	22598.282815
571.981782	22708.474877
572.336884	22512.532788
572.691931	22646.045227
573.046923	22367.503833
573.401860	22256.250609
573.756743	22253.898911
574.111570	22172.312877
574.466342	22111.324998
574.821059	22202.537115
575.175722	21896.879354
575.530330	21884.979711
575.884882	21912.272518
576.239380	21823.339002
576.593823	21707.420190
576.948211	21693.499044
577.302544	21533.293695
577.656823	21405.941546
578.011047	21504.057523
578.365216	21379.835931
578.719330	21260.655492
579.073389	21166.123775
579.427394	21299.358951
579.781344	21086.745767
580.135239	20982.015796
580.489080	20944.388623
580.842866	20710.000175
581.196597	20897.432796
581.550273	20875.992768
581.903895	20772.959146
582.257463	21083.504305
582.610975	20612.121132
582.964434	20914.275291
583.317837	20641.349742
583.671186	20732.027497
584.024481	20680.421205
584.377721	20469.166612
584.730906	20504.870584
585.084037	20546.273581
585.437113	20443.514701
585.790135	20645.581791
586.143103	20120.530494
586.496016	20126.443768
586.848874	20376.732015
587.201679	20315.144238
587.554428	19976.287959
587.907124	20314.272119
588.259765	20092.080742
588.612352	20162.185548
588.964884	19737.304499
589.317362	19910.987373
589.669786	19962.691967
590.022155	20018.192551
590.374470	20182.287149
590.726731	19998.824437
591.078937	19744.924203
591.431090	19848.451859
591.783188	19591.531974
592.135232	19566.056503
592.487222	19663.375978
592.839157	19692.090391
593.191038	19574.621424
593.542866	19468.510176
593.894639	19184.915026
594.246358	19405.394930
594.598022	19316.879830
594.949633	19070.629547
595.301190	19030.280152
595.652692	19191.919709
596.004141	19438.485064
596.355535	18760.286034
596.706876	18779.586092
597.058162	18667.624585
597.409395	18880.220125
597.760573	18976.052460
598.111698	18753.062061
598.462768	18688.739458
598.813785	18649.806627
599.164748	18475.390266
599.515657	18508.608949
599.866511	18296.431825
600.217312	18658.651332
600.568060	18191.071709
600.918753	18498.640067
601.269392	18404.567095
601.619978	18168.444490
601.970510	18387.578407
602.320988	18336.045212
602.671412	18543.458446
603.021783	18443.215101
603.372100	18186.189352
603.722363	18312.674423
604.072572	18256.407584
604.422728	18382.827119
604.772830	18156.101225
605.122878	18088.789218
605.472872	18082.933918
605.822813	18086.878621
606.172701	18044.943783
606.522534	18254.045803
606.872314	18259.946474
607.222041	18106.004759
607.571714	18316.795566
607.921333	18143.329462
608.270899	18214.001398
608.620411	18414.046985
608.969870	18164.678748
609.319276	18175.217281
609.668627	18207.427733
610.017926	18347.574331
610.367171	18455.187842
610.716362	18493.551023
611.065500	18324.647163
611.414585	18449.912274
611.763616	18427.088450
612.112594	18380.871152
612.461518	18342.989401
612.810389	18539.125574
613.159207	18403.483247
613.507971	18293.901166
613.856682	18583.696936
614.205340	18511.994084
614.553945	18656.236619
614.902496	18402.477537
615.250994	18642.179361
615.599439	18580.004290
615.947830	18565.601714
616.296169	18603.458259
616.644454	18583.775073
616.992686	18550.546308
617.340864	18759.340818
617.688990	18520.768212
618.037063	18691.665848
618.385082	18543.332417
618.733048	18827.535027
619.080961	18687.816927
619.428821	18722.058965
619.776628	18620.605743
620.124382	18541.983908
620.472083	18572.117405
620.819731	18605.414226
621.167326	18302.662691
621.514868	18335.465479
621.862357	18096.537472
622.209793	18108.679091
622.557176	17935.790199
622.904506	17770.639479
623.251783	17677.995674
623.599007	17453.923947
623.946179	17391.930358
624.293297	17326.002148
624.640363	17090.834841
624.987376	17107.720186
625.334336	16906.474804
625.681243	16754.040394
626.028097	16759.331085
626.374899	16692.145107
626.721647	16553.674693
627.068343	16386.847789
627.414987	16310.744010
627.761577	16288.832635
628.108115	16335.150756
628.454600	16055.059207
628.801032	16151.309958
629.147412	16079.077785
629.493739	16106.252125
629.840014	15910.138637
630.186236	16013.051272
630.532405	15781.576611
630.878521	15980.676982
631.224585	15859.780031
631.570597	15689.631006
631.916556	15731.283540
632.262462	15711.103801
632.608316	15620.095851
632.954117	15564.731379
633.299866	15559.728033
633.645562	15479.145189
633.991206	15235.002108
634.336797	15106.210710
634.682336	15068.318877
635.027823	14975.884280
635.373257	14852.499519
635.718639	14743.161933
636.063968	14699.941601
636.409245	14447.326861
636.754470	14479.401203
637.099642	14324.579806
637.444762	14095.497173
637.789829	14140.691117
638.134845	13982.613135
