Dividing Wavelength (nm)	Counts (n)	Blue Motor Position (mm): 4.500000	Red Motor Position (mm): 0.000000	
326.493990	2101.664600
326.888308	2101.664600
327.282561	2101.664600
327.676750	2078.868503
328.070874	2078.374469
328.464933	2089.772518
328.858929	2096.028590
329.252859	2109.427977
329.646726	2122.681171
330.040528	2139.914355
330.434265	2158.816161
330.827938	2177.753256
331.221547	2195.735052
331.615091	2220.366129
332.008571	2236.356669
332.401986	2256.677560
332.795338	2281.096910
333.188625	2297.523509
333.581847	2317.032775
333.975006	2336.395847
334.368100	2353.117354
334.761129	2371.220138
335.154095	2385.574823
335.546996	2405.371434
335.939833	2416.855183
336.332606	2430.259611
336.725315	2441.103133
337.117960	2451.898764
337.510540	2456.992850
337.903056	2465.517441
338.295508	2471.677731
338.687896	2478.531179
339.080220	2487.915287
339.472480	2491.638179
339.864676	2491.590288
340.256807	2497.813593
340.648875	2499.787205
341.040879	2502.393481
341.432818	2501.360045
341.824694	2503.389109
342.216506	2503.142092
342.608253	2503.046311
342.999937	2501.521362
343.391557	2501.682678
343.783113	2498.831906
344.174605	2495.776967
344.566033	2496.578510
344.957397	2492.548108
345.348697	2493.263952
345.739934	2490.640031
346.131106	2491.862511
346.522215	2487.194402
346.913260	2486.929742
347.304241	2481.530666
347.695159	2481.780203
348.086012	2481.182826
348.476802	2477.729636
348.867528	2477.729636
349.258191	2477.240644
349.648789	2476.527321
350.039324	2474.160499
350.429796	2476.272742
350.820203	2473.595890
351.210548	2474.825931
351.600828	2470.727473
351.991045	2475.143524
352.381198	2468.537092
352.771288	2474.155458
353.161314	2472.350725
353.551276	2474.316775
353.941175	2470.324181
354.331010	2472.040694
354.720782	2472.312916
355.110490	2474.284007
355.500135	2472.973307
355.889717	2470.762761
356.279235	2472.585138
356.668689	2475.831642
357.058080	2473.154789
357.447408	2471.700416
357.836672	2469.988944
358.225873	2471.206383
358.615010	2470.588842
359.004084	2475.297279
359.393095	2475.420788
359.782043	2477.676704
360.170927	2477.596045
360.559748	2476.416415
360.948505	2475.975314
361.337199	2478.422795
361.725830	2477.384317
362.114398	2479.972949
362.502903	2481.800368
362.891344	2480.204842
363.279722	2477.664101
363.668037	2483.718527
364.056289	2480.545120
364.444478	2481.051756
364.832603	2479.955305
365.220665	2480.988742
365.608665	2481.944041
365.996601	2482.407827
366.384474	2483.282467
366.772284	2482.362456
367.160031	2484.807416
367.547715	2481.916314
367.935336	2480.721561
368.322893	2485.944196
368.710388	2483.216932
369.097820	2486.521408
369.485189	2484.328506
369.872495	2486.680205
370.259738	2485.243476
370.646918	2484.502426
371.034035	2483.947899
371.421090	2487.297746
371.808081	2487.728765
372.195010	2486.198774
372.581875	2484.504947
372.968678	2490.612305
373.355418	2488.875627
373.742096	2487.083497
374.128710	2486.992756
374.515262	2491.214723
374.901751	2486.362612
375.288177	2489.578868
375.674540	2490.173724
376.060841	2489.624238
376.447079	2488.255565
376.833254	2487.726244
377.219367	2484.870430
377.605417	2489.208343
377.991404	2485.976964
378.377329	2486.957468
378.763191	2485.563589
379.148991	2491.693632
379.534727	2489.225987
379.920402	2490.761019
380.306013	2491.620535
380.691563	2493.407624
381.077049	2490.808910
381.462474	2493.773108
381.847835	2493.369816
382.233134	2493.604229
382.618371	2493.032058
383.003545	2491.509630
383.388657	2493.369816
383.773706	2492.835453
384.158693	2493.452995
384.543618	2495.668582
384.928480	2495.217399
385.313280	2495.605568
385.698017	2496.666730
386.082692	2493.268993
386.467305	2495.562718
386.851856	2494.085660
387.236344	2497.337204
387.620770	2495.718993
388.005133	2496.540702
388.389435	2498.360558
388.773674	2497.117914
389.157851	2498.242091
389.541965	2495.827378
389.926018	2497.347286
390.310008	2496.064313
390.693936	2496.608757
391.077802	2496.424755
391.461606	2497.826196
391.845348	2498.453819
392.229027	2496.762512
392.612645	2495.817296
392.996200	2500.160250
393.379694	2497.369971
393.763125	2495.925681
394.146494	2498.693274
394.529801	2499.577997
394.913047	2500.631598
395.296230	2498.889879
395.679351	2500.533295
396.062410	2498.905003
396.445408	2498.920126
396.828343	2502.222082
397.211217	2496.134889
397.594028	2496.961638
397.976778	2496.452481
398.359466	2499.028511
398.742092	2497.251504
399.124656	2501.486073
399.507158	2500.124962
399.889598	2501.957421
400.271977	2498.093377
400.654294	2506.108812
401.036549	2499.825013
401.418742	2502.244767
401.800874	2503.575632
402.182944	2504.624192
402.564952	2502.615292
402.946898	2502.695950
403.328783	2505.108142
403.710606	2501.959942
404.092367	2502.537154
404.474067	2501.433141
404.855705	2504.833400
405.237282	2505.392968
405.618797	2503.424397
406.000250	2504.442710
406.381642	2501.917092
406.762972	2504.954387
407.144240	2504.891373
407.525447	2507.648884
407.906593	2504.316681
408.287677	2508.354646
408.668700	2506.784326
409.049661	2506.668380
409.430560	2506.103770
409.811399	2503.328615
410.192176	2504.301558
410.572891	2510.227434
410.953545	2506.524707
411.334138	2505.425735
411.714669	2506.199552
412.095139	2506.103770
412.475547	2506.615448
412.855894	2506.456651
413.236180	2508.538648
413.616405	2505.985303
413.996568	2507.343894
414.376670	2509.241889
414.756711	2506.615448
415.136691	2505.234171
415.516609	2510.156858
415.896466	2507.691734
416.276262	2508.465551
416.655997	2504.238543
417.035670	2505.425735
417.415283	2508.838596
417.794834	2504.125118
418.174324	2509.060407
418.553753	2508.142917
418.933121	2508.977228
419.312428	2506.330622
419.691674	2508.755417
420.070859	2508.079903
420.449983	2511.696931
420.829045	2508.034532
421.208047	2509.395644
421.586988	2508.589059
421.965867	2512.742970
422.344686	2508.901611
422.723444	2511.500326
423.102141	2511.770027
423.480777	2509.040243
423.859352	2510.134173
424.237866	2510.628206
424.616319	2509.924965
424.994712	2510.378669
425.373044	2511.102074
425.751314	2509.471261
426.129524	2513.824298
426.507673	2510.272805
426.885762	2510.918072
427.263789	2512.468227
427.641756	2511.712054
428.019662	2513.007631
428.397508	2513.978053
428.775292	2512.453104
429.153016	2513.131139
429.530679	2515.550893
429.908282	2513.683145
430.285824	2514.724143
430.663305	2513.453773
431.040726	2514.469565
431.418086	2511.860768
431.795385	2511.379338
432.172624	2512.758093
432.549802	2515.578619
432.926920	2514.792199
433.303977	2517.605163
433.680974	2512.037208
434.057910	2515.918897
434.434786	2514.721623
434.811601	2516.092817
435.188355	2513.993176
435.565050	2515.429905
435.941683	2513.294976
436.318257	2513.708351
436.694770	2510.955881
437.071222	2510.958402
437.447614	2510.325737
437.823946	2512.647188
438.200218	2513.947806
438.576429	2515.863444
438.952580	2512.203567
439.328670	2515.918897
439.704700	2515.480317
440.080670	2516.349916
440.456580	2515.311438
440.832429	2516.339833
441.208218	2516.029802
441.583947	2515.019051
441.959616	2515.049298
442.335224	2516.274298
442.710773	2515.137518
443.086261	2517.222035
443.461689	2517.153980
443.837057	2516.496109
444.212365	2516.372601
444.587612	2514.414113
444.962800	2518.507529
445.337927	2516.445697
445.712995	2514.870337
446.088002	2518.910822
446.462949	2517.789165
446.837837	2518.683970
447.212664	2518.550379
447.587431	2518.247910
447.962139	2516.992663
448.336786	2519.162879
448.711374	2516.002076
449.085901	2519.631707
449.460369	2517.751356
449.834776	2517.678260
450.209124	2517.678260
450.583412	2521.759074
450.957640	2517.101047
451.331808	2518.101717
451.705917	2517.262364
452.079965	2517.373270
452.453954	2518.053826
452.827883	2519.097344
453.201752	2516.342354
453.575562	2517.625328
453.949311	2518.477283
454.323001	2519.835873
454.696632	2520.730678
455.070202	2520.534073
455.443713	2517.887467
455.817164	2517.587519
456.190556	2516.753208
456.563888	2514.751870
456.937160	2515.523166
457.310373	2520.498785
457.683526	2516.866634
458.056619	2519.364526
458.429653	2518.084072
458.802628	2520.526512
459.175542	2521.002901
459.548398	2520.279495
459.921194	2517.557272
460.293930	2521.887623
460.666607	2520.922242
461.039224	2516.695235
461.411782	2518.658764
461.784280	2519.397293
462.156719	2518.308404
462.529099	2520.576923
462.901419	2520.511388
463.273680	2520.828981
463.645882	2520.639937
464.018024	2520.150946
464.390106	2520.960051
464.762130	2520.707993
465.134094	2519.243538
465.505999	2520.934845
465.877845	2519.908970
466.249631	2519.372087
466.621358	2519.099865
466.993026	2524.665299
467.364634	2523.959537
467.736184	2519.435102
468.107674	2520.602129
468.479105	2520.791172
468.850477	2522.137160
469.221790	2521.217150
469.593043	2519.485513
469.964238	2520.982736
470.335373	2522.043899
470.706449	2521.738909
471.077467	2525.199661
471.448425	2522.185051
471.819324	2525.701256
472.190164	2523.135309
472.560945	2522.300998
472.931667	2524.400638
473.302330	2521.998528
473.672934	2523.102541
474.043479	2521.043230
474.413965	2522.777387
474.784393	2519.286388
475.154761	2522.903416
475.525070	2519.488034
475.895321	2519.878723
476.265513	2517.940400
476.635645	2523.830988
477.005719	2522.648837
477.375734	2521.958199
477.745691	2522.603467
478.115588	2522.618590
478.485427	2520.103055
478.855207	2526.061698
479.224928	2523.286543
479.594591	2527.634538
479.964194	2522.386697
480.333739	2521.885103
480.703226	2524.877027
481.072653	2527.301822
481.442022	2524.123375
481.811333	2522.865607
482.180584	2520.133302
482.549777	2526.195289
482.918912	2524.821575
483.287988	2527.846267
483.657005	2525.933149
484.025964	2523.684794
484.394864	2522.938704
484.763706	2522.243024
485.132489	2521.678415
485.501213	2525.154291
485.869879	2522.963909
486.238487	2523.031965
486.607036	2525.824764
486.975527	2526.046575
487.343959	2524.052799
487.712333	2521.630524
488.080648	2526.031452
488.448905	2525.315608
488.817104	2524.443488
489.185244	2526.555732
489.553326	2525.300484
489.921350	2523.631862
490.289315	2524.398118
490.657222	2524.861904
491.025070	2525.789476
491.392861	2524.362830
491.760593	2523.727644
492.128267	2525.353416
492.495883	2521.759074
492.863440	2524.766122
493.230939	2526.202851
493.598380	2525.413910
493.965763	2519.099865
494.333088	2521.935514
494.700354	2521.207067
495.067563	2525.071112
495.434713	2519.863600
495.801805	2528.123530
496.168839	2524.287212
496.535815	2526.391894
496.902733	2526.233098
497.269593	2527.821061
497.636395	2525.184538
498.003139	2526.676719
498.369825	2526.918695
498.736453	2526.172604
499.103023	2526.394415
499.469535	2525.421472
499.835989	2524.972809
500.202385	2526.028931
500.568723	2527.848787
500.935003	2526.747295
501.301226	2524.929959
501.667390	2527.937008
502.033497	2528.350382
502.399546	2523.462984
502.765537	2526.361647
503.131470	2526.850639
503.497345	2524.554393
503.863163	2529.449354
504.228923	2525.867614
504.594625	2526.631349
504.960269	2524.544311
505.325856	2527.347193
505.691385	2524.521626
506.056856	2527.614374
506.422270	2527.553880
506.787625	2529.499765
507.152924	2526.822913
507.518164	2527.059847
507.883347	2527.291740
508.248472	2523.488189
508.613540	2526.507841
508.978550	2527.669827
509.343503	2528.849457
509.708398	2529.477080
510.073236	2528.279806
510.438016	2527.024559
510.802738	2525.575227
511.167403	2527.516071
511.532010	2524.491379
511.896561	2524.955165
512.261053	2528.143695
512.625488	2523.611698
512.989866	2524.201513
513.354186	2526.210413
513.718449	2524.451050
514.082655	2523.001718
514.446803	2525.461801
514.810894	2527.687471
515.174927	2530.230733
515.538904	2526.258303
515.902822	2525.910464
516.266684	2525.842408
516.630488	2526.714528
516.994235	2527.100176
517.357925	2526.906092
517.721558	2527.145547
518.085133	2526.308715
518.448651	2527.594209
518.812112	2527.145547
519.175516	2526.961544
519.538863	2529.209899
519.902152	2528.839374
520.265385	2526.659075
520.628560	2525.565145
520.991678	2526.326359
521.354739	2527.435413
521.717743	2526.407018
522.080690	2526.671678
522.443580	2528.342821
522.806413	2527.306863
523.169189	2527.049765
523.531908	2527.306863
523.894569	2524.793848
524.257174	2530.974303
524.619722	2525.943231
524.982213	2532.438758
525.344647	2527.034641
525.707025	2527.390043
526.069345	2527.342152
526.431608	2529.209899
526.793815	2526.888448
527.155964	2530.071936
527.518057	2528.851977
527.880093	2528.834333
528.242072	2529.368695
528.603995	2526.570855
528.965860	2529.703932
529.327669	2526.686802
529.689421	2526.969106
530.051117	2528.438602
530.412755	2529.020856
530.774337	2530.092101
531.135862	2528.027748
531.497331	2527.642100
531.858743	2523.745288
532.220098	2525.681091
532.581396	2522.343848
532.942638	2526.099507
533.303824	2529.396422
533.664953	2525.718900
534.026025	2528.582275
534.387040	2528.095804
534.747999	2527.238808
535.108902	2528.075639
535.469748	2526.964065
535.830537	2531.289375
536.191270	2528.191586
536.551947	2528.635208
536.912567	2526.769981
537.273131	2528.960362
537.633638	2530.659231
537.994089	2527.422810
538.354483	2527.069929
538.714821	2529.976154
539.075103	2529.023376
539.435328	2528.408356
539.795497	2525.809641
540.155609	2527.843746
540.515665	2527.130423
540.875665	2531.546474
541.235609	2530.467667
541.595496	2530.949097
541.955328	2527.420289
542.315102	2528.461288
542.674821	2528.352903
543.034483	2528.670496
543.394090	2528.791483
543.753640	2526.306194
544.113134	2526.696884
544.472571	2528.700742
544.831953	2528.282327
545.191278	2529.280475
545.550548	2530.167718
545.909761	2528.383150
546.268918	2527.301822
546.628019	2528.680578
546.987064	2528.408356
547.346053	2529.577903
547.704986	2529.295599
548.063863	2528.052954
548.422684	2528.549508
548.781449	2526.147398
549.140158	2530.702081
549.498811	2529.537574
549.857408	2528.710825
550.215949	2527.105217
550.574434	2526.651513
550.932864	2528.254600
551.291237	2523.120185
551.649555	2527.805938
552.007817	2527.692512
552.366022	2531.017153
552.724173	2529.272913
553.082267	2528.952800
553.440305	2527.367357
553.798288	2529.333407
554.156215	2527.042203
554.514086	2529.056144
554.871902	2529.474560
555.229661	2525.877696
555.587365	2528.723428
555.945014	2527.153108
556.302606	2528.390712
556.660143	2531.070085
557.017625	2530.848274
557.375050	2529.288037
557.732421	2530.238294
558.089735	2530.601257
558.446994	2527.495907
558.804197	2529.230064
559.161345	2529.154446
559.518437	2528.622605
559.875474	2527.596730
560.232455	2528.685619
560.589381	2531.440610
560.946251	2531.914478
561.303065	2528.794004
561.659825	2529.151926
562.016528	2532.297606
562.373177	2528.037831
562.729770	2529.983716
563.086307	2528.516740
563.442789	2529.363654
563.799216	2528.902389
564.155587	2530.984385
564.511904	2528.373067
564.868164	2530.417255
565.224370	2529.343490
565.580520	2530.790301
565.936615	2531.042358
566.292654	2527.460619
566.648638	2529.162008
567.004567	2528.184024
567.360441	2530.263500
567.716260	2530.210568
568.072023	2531.329704
568.427732	2525.935670
568.783385	2525.817202
569.138982	2525.323169
569.494525	2524.756040
569.850013	2525.587830
570.205445	2529.530012
570.560823	2528.940197
570.916145	2529.212420
571.271412	2528.738551
571.626625	2530.429858
571.981782	2528.967924
572.336884	2526.366688
572.691931	2526.815351
573.046923	2533.227699
573.401860	2526.371729
573.756743	2531.057482
574.111570	2528.917512
574.466342	2532.247194
574.821059	2529.252749
575.175722	2531.692667
575.530330	2530.639066
575.884882	2530.230733
576.239380	2531.770805
576.593823	2532.889941
576.948211	2529.940866
577.302544	2530.881042
577.656823	2527.294261
578.011047	2531.654859
578.365216	2532.262318
578.719330	2529.640918
579.073389	2528.738551
579.427394	2527.087573
579.781344	2532.083357
580.135239	2530.228212
580.489080	2530.790301
580.842866	2530.044210
581.196597	2529.348531
581.550273	2532.809283
581.903895	2529.822399
582.257463	2529.411545
582.610975	2527.069929
582.964434	2530.928933
583.317837	2529.701412
583.671186	2533.078985
584.024481	2532.360620
584.377721	2528.715866
584.730906	2530.702081
585.084037	2528.851977
585.437113	2529.862728
585.790135	2529.570342
586.143103	2530.245856
586.496016	2529.744261
586.848874	2525.706297
587.201679	2529.819879
587.554428	2524.985412
587.907124	2528.887265
588.259765	2523.226049
588.612352	2531.301978
588.964884	2529.845084
589.317362	2530.137471
589.669786	2531.012112
590.022155	2532.990764
590.374470	2527.264014
590.726731	2528.872142
591.078937	2531.634694
591.431090	2532.907585
591.783188	2530.608819
592.135232	2527.879034
592.487222	2528.826771
592.839157	2532.539581
593.191038	2530.959179
593.542866	2530.329035
593.894639	2527.127902
594.246358	2530.530681
594.598022	2528.539426
594.949633	2532.290044
595.301190	2531.420445
595.652692	2530.210568
596.004141	2532.383305
596.355535	2530.119827
596.706876	2527.679909
597.058162	2532.937832
597.409395	2530.021525
597.760573	2531.944725
598.111698	2532.952956
598.462768	2529.603109
598.813785	2528.496576
599.164748	2530.848274
599.515657	2529.804755
599.866511	2530.487832
600.217312	2527.425331
600.568060	2531.309540
600.918753	2532.433717
601.269392	2526.026410
601.619978	2530.641587
601.970510	2531.833820
602.320988	2529.046062
602.671412	2527.710156
603.021783	2530.434899
603.372100	2531.261649
603.722363	2531.301978
604.072572	2531.496062
604.422728	2530.714683
604.772830	2527.059847
605.122878	2525.681091
605.472872	2528.562111
605.822813	2525.108920
606.172701	2531.032276
606.522534	2528.531864
606.872314	2531.034797
607.222041	2530.765095
607.571714	2531.637215
607.921333	2528.945238
608.270899	2528.126051
608.620411	2527.145547
608.969870	2528.362985
609.319276	2529.613191
609.668627	2530.613860
610.017926	2530.472708
610.367171	2530.061854
610.716362	2528.862059
611.065500	2532.607637
611.414585	2530.152595
611.763616	2531.680064
612.112594	2530.475229
612.461518	2532.305168
612.810389	2529.159487
613.159207	2530.734848
613.507971	2530.387008
613.856682	2531.922040
614.205340	2530.699560
614.553945	2528.660413
614.902496	2526.994312
615.250994	2529.857687
615.599439	2531.246525
615.947830	2531.967410
616.296169	2531.153264
616.644454	2529.986237
616.992686	2529.852646
617.340864	2531.329704
617.688990	2530.243336
618.037063	2532.116124
618.385082	2527.087573
618.733048	2528.549508
619.080961	2527.896678
619.428821	2529.030938
619.776628	2529.217461
620.124382	2529.545136
620.472083	2530.376926
620.819731	2527.863911
621.167326	2528.599919
621.514868	2530.341638
621.862357	2528.778880
622.209793	2526.593540
622.557176	2529.950949
622.904506	2527.080012
623.251783	2528.012625
623.599007	2528.010104
623.946179	2526.177645
624.293297	2526.928777
624.640363	2529.048582
624.987376	2530.518078
625.334336	2528.294930
625.681243	2528.088242
626.028097	2529.945908
626.374899	2529.610671
626.721647	2530.452543
627.068343	2527.984899
627.414987	2530.107224
627.761577	2528.284847
628.108115	2528.325177
628.454600	2529.754344
628.801032	2528.836854
629.147412	2531.375075
629.493739	2530.923891
629.840014	2530.765095
630.186236	2528.473891
630.532405	2529.635877
630.878521	2529.996319
631.224585	2529.877852
631.570597	2529.277955
631.916556	2528.254600
632.262462	2529.414066
632.608316	2530.235774
632.954117	2530.946577
633.299866	2529.361134
633.645562	2530.661751
633.991206	2528.441123
634.336797	2530.452543
634.682336	2531.632173
635.027823	2529.391381
635.373257	2531.440610
635.718639	2529.719056
636.063968	2528.022707
636.409245	2528.584796
636.754470	2529.267872
637.099642	2527.977337
637.444762	2528.665454
637.789829	2529.577903
638.134845	2528.504138
638.479808	2528.771319
638.824719	2528.625125
639.169577	2529.938346
639.514383	2530.011442
639.859137	2527.432892
640.203839	2532.010260
640.548489	2527.044723
640.893086	2527.183355
641.237632	2525.504651
641.582125	2526.974147
641.926566	2524.899712
642.270955	2530.424817
642.615292	2529.744261
642.959576	2528.471370
643.303809	2530.162677
643.647990	2527.455577
643.992118	2528.468849
644.336195	2528.761236
