Dividing Wavelength (nm)	Counts (n)	Blue Motor Position (mm): 5.600000	Red Motor Position (mm): 0.000000	
326.493990	2161.009063
326.888308	2161.009063
327.282561	2161.009063
327.676750	2117.889554
328.070874	2114.995932
328.464933	2113.975098
328.858929	2118.537342
329.252859	2122.895420
329.646726	2132.027470
330.040528	2143.251599
330.434265	2158.037303
330.827938	2176.034222
331.221547	2192.919567
331.615091	2212.995962
332.008571	2227.574979
332.401986	2248.778072
332.795338	2266.207862
333.188625	2285.981788
333.581847	2304.122380
333.975006	2321.431182
334.368100	2340.927844
334.761129	2357.384691
335.154095	2374.121322
335.546996	2389.733775
335.939833	2407.952505
336.332606	2418.909453
336.725315	2434.804211
337.117960	2448.848866
337.510540	2459.238684
337.903056	2469.399129
338.295508	2480.167034
338.687896	2487.741368
339.080220	2494.040289
339.472480	2503.298368
339.864676	2509.559481
340.256807	2514.124246
340.648875	2517.204391
341.040879	2519.112468
341.432818	2519.419978
341.824694	2525.940711
342.216506	2523.815864
342.608253	2527.979857
342.999937	2528.736031
343.391557	2530.989426
343.783113	2526.691843
344.174605	2524.627490
344.566033	2525.860052
344.957397	2523.513395
345.348697	2521.335617
345.739934	2520.483662
346.131106	2516.906963
346.522215	2518.966274
346.913260	2516.632220
347.304241	2512.410254
347.695159	2510.454286
348.086012	2511.026457
348.476802	2505.377844
348.867528	2503.527741
349.258191	2500.107318
349.648789	2502.423728
350.039324	2493.906699
350.429796	2498.879797
350.820203	2500.840806
351.210548	2500.876094
351.600828	2494.466267
351.991045	2494.735968
352.381198	2494.168839
352.771288	2492.664054
353.161314	2492.243118
353.551276	2493.886534
353.941175	2491.449136
354.331010	2491.774291
354.720782	2490.761019
355.110490	2492.447285
355.500135	2489.750267
355.889717	2492.674137
356.279235	2492.081801
356.668689	2492.442243
357.058080	2493.667244
357.447408	2491.449136
357.836672	2494.040289
358.225873	2495.098932
358.615010	2493.105155
359.004084	2493.584065
359.393095	2493.959631
359.782043	2495.953407
360.170927	2497.097749
360.559748	2495.270331
360.948505	2497.576659
361.337199	2499.189828
361.725830	2499.996412
362.114398	2497.377533
362.502903	2499.630929
362.891344	2496.439878
363.279722	2497.690085
363.668037	2501.612102
364.056289	2498.025321
364.444478	2501.352483
364.832603	2501.675117
365.220665	2502.469098
365.608665	2499.565394
365.996601	2500.555981
366.384474	2501.400374
366.772284	2501.975065
367.160031	2504.629233
367.547715	2505.203924
367.935336	2501.687720
368.322893	2502.459016
368.710388	2499.550270
369.097820	2502.680827
369.485189	2500.795435
369.872495	2506.280211
370.259738	2505.889521
370.646918	2506.111332
371.034035	2505.682834
371.421090	2505.133348
371.808081	2505.423215
372.195010	2505.645025
372.581875	2505.390447
372.968678	2507.104439
373.355418	2508.515962
373.742096	2508.899090
374.128710	2508.420181
374.515262	2505.080416
374.901751	2507.721981
375.288177	2510.252640
375.674540	2508.906652
376.060841	2508.253822
376.447079	2508.377331
376.833254	2508.238699
377.219367	2510.723988
377.605417	2511.139883
377.991404	2510.923113
378.377329	2512.132990
378.763191	2511.187774
379.148991	2512.135511
379.534727	2510.960922
379.920402	2514.623320
380.306013	2511.817918
380.691563	2512.352281
381.077049	2510.655932
381.462474	2513.864627
381.847835	2511.918741
382.233134	2512.319513
382.618371	2509.698113
383.003545	2514.938392
383.388657	2512.720285
383.773706	2514.998886
384.158693	2510.580315
384.543618	2510.824811
384.928480	2512.006962
385.313280	2514.550224
385.698017	2515.465193
386.082692	2514.008300
386.467305	2514.968639
386.851856	2516.869154
387.236344	2516.087776
387.620770	2512.427898
388.005133	2513.960409
388.389435	2513.340347
388.773674	2511.139883
389.157851	2514.961078
389.541965	2515.661798
389.926018	2515.606345
390.310008	2516.085255
390.693936	2518.101717
391.077802	2516.425533
391.461606	2517.461490
391.845348	2519.440143
392.229027	2520.483662
392.612645	2517.544669
392.996200	2520.158507
393.379694	2519.127591
393.763125	2519.530884
394.146494	2519.031809
394.529801	2519.740092
394.913047	2516.720440
395.296230	2516.027282
395.679351	2522.106913
396.062410	2516.670029
396.445408	2519.472910
396.828343	2519.498116
397.211217	2520.629855
397.594028	2521.144053
397.976778	2520.791172
398.359466	2522.704290
398.742092	2521.106244
399.124656	2522.946265
399.507158	2522.091790
399.889598	2521.837212
400.271977	2521.960720
400.654294	2522.109434
401.036549	2520.145904
401.418742	2520.312263
401.800874	2522.910977
402.182944	2523.969620
402.564952	2524.350227
402.946898	2520.655061
403.328783	2523.110103
403.710606	2521.489372
404.092367	2522.822757
404.474067	2522.285874
404.855705	2521.068436
405.237282	2524.007428
405.618797	2519.888806
406.000250	2525.519774
406.381642	2524.803931
406.762972	2519.646830
407.144240	2520.040040
407.525447	2521.118847
407.906593	2521.471728
408.287677	2525.209743
408.668700	2523.357119
409.049661	2526.845598
409.430560	2524.057840
409.811399	2524.670340
410.192176	2526.031452
410.572891	2523.795700
410.953545	2527.916843
411.334138	2527.092614
411.714669	2522.963909
412.095139	2524.088087
412.475547	2525.366019
412.855894	2526.976668
413.236180	2526.739734
413.616405	2529.877852
413.996568	2528.468849
414.376670	2526.268386
414.756711	2524.675381
415.136691	2529.847605
415.516609	2529.318284
415.896466	2529.041020
416.276262	2526.676719
416.655997	2526.704446
417.035670	2528.184024
417.415283	2529.822399
417.794834	2529.371216
418.174324	2530.223171
418.553753	2527.465660
418.933121	2531.980013
419.312428	2529.041020
419.691674	2529.633356
420.070859	2530.749972
420.449983	2527.788294
420.829045	2528.867101
421.208047	2532.277441
421.586988	2528.849457
421.965867	2529.923222
422.344686	2530.205527
422.723444	2529.179652
423.102141	2529.494724
423.480777	2528.413397
423.859352	2529.449354
424.237866	2529.640918
424.616319	2530.220650
424.994712	2531.387677
425.373044	2531.526309
425.751314	2528.315094
426.129524	2528.395753
426.507673	2531.513706
426.885762	2524.350227
427.263789	2530.535722
427.641756	2530.933974
428.019662	2533.835158
428.397508	2529.847605
428.775292	2534.059489
429.153016	2530.462626
429.530679	2530.341638
429.908282	2530.863398
430.285824	2534.094777
430.663305	2530.865918
431.040726	2532.385826
431.418086	2532.579910
431.795385	2532.925229
432.172624	2533.550332
432.549802	2535.327339
432.926920	2531.765764
433.303977	2536.580066
433.680974	2531.087729
434.057910	2534.293903
434.434786	2535.874304
434.811601	2532.955476
435.188355	2537.361445
435.565050	2536.736342
435.941683	2533.446989
436.318257	2534.402287
436.694770	2535.612164
437.071222	2534.944212
437.447614	2534.238450
437.823946	2536.708615
438.200218	2535.917154
438.576429	2535.692823
438.952580	2536.058307
439.328670	2534.334232
439.704700	2533.696526
440.080670	2534.921526
440.456580	2533.396577
440.832429	2536.935467
441.208218	2536.108718
441.583947	2534.823224
441.959616	2533.961187
442.335224	2536.696012
442.710773	2535.649973
443.086261	2535.990251
443.461689	2536.509490
443.837057	2536.012936
444.212365	2532.763913
444.587612	2534.450178
444.962800	2533.920857
445.337927	2534.535878
445.712995	2531.680064
446.088002	2536.454037
446.462949	2538.019315
446.837837	2536.474202
447.212664	2536.264994
447.587431	2536.915303
447.962139	2538.735159
448.336786	2539.130890
448.711374	2538.069727
449.085901	2537.114428
449.460369	2538.415046
449.834776	2538.820859
450.209124	2537.283307
450.583412	2540.638195
450.957640	2539.803884
451.331808	2536.721218
451.705917	2539.687937
452.079965	2535.297092
452.453954	2537.132072
452.827883	2537.547968
453.201752	2538.432690
453.575562	2539.992927
453.949311	2535.828934
454.323001	2537.583256
454.696632	2540.469316
455.070202	2537.590817
455.443713	2537.941177
455.817164	2539.788760
456.190556	2537.295910
456.563888	2538.974614
456.937160	2538.659542
457.310373	2537.714326
457.683526	2538.745242
458.056619	2539.703061
458.429653	2540.849923
458.802628	2542.294214
459.175542	2537.414377
459.548398	2541.318751
459.921194	2540.723894
460.293930	2539.939995
460.666607	2540.794471
461.039224	2537.593338
461.411782	2538.992258
461.784280	2537.618544
462.156719	2542.127856
462.529099	2541.475026
462.901419	2539.297248
463.273680	2536.494366
463.645882	2534.530837
464.018024	2542.984852
464.390106	2537.981507
464.762130	2541.381765
465.134094	2537.273225
465.505999	2542.455531
465.877845	2540.371014
466.249631	2540.983514
466.621358	2540.716333
466.993026	2541.069213
467.364634	2546.866540
467.736184	2539.808925
468.107674	2541.787578
468.479105	2539.728267
468.850477	2541.412012
469.221790	2541.205325
469.593043	2542.304296
469.964238	2541.321271
470.335373	2541.717002
470.706449	2544.600542
471.077467	2541.507794
471.448425	2541.888401
471.819324	2541.142310
472.190164	2541.727084
472.560945	2541.366642
472.931667	2542.001827
473.302330	2540.600386
473.672934	2541.469985
474.043479	2540.728936
474.413965	2542.148020
474.784393	2540.363452
475.154761	2544.630789
475.525070	2545.807898
475.895321	2543.045346
476.265513	2545.442414
476.635645	2544.038453
477.005719	2542.379913
477.375734	2545.104657
477.745691	2542.773123
478.115588	2541.996786
478.485427	2543.451159
478.855207	2544.842517
479.224928	2543.201622
479.594591	2545.696993
479.964194	2542.969728
480.333739	2544.701365
480.703226	2543.904863
481.072653	2545.129863
481.442022	2542.155582
481.811333	2542.664739
482.180584	2539.876981
482.549777	2540.681045
482.918912	2536.917823
483.287988	2544.214893
483.657005	2543.438556
484.025964	2545.364277
484.394864	2543.090716
484.763706	2544.260264
485.132489	2542.269008
485.501213	2544.391334
485.869879	2543.539379
486.238487	2542.425284
486.607036	2545.999462
486.975527	2542.710109
487.343959	2541.674152
487.712333	2545.744884
488.080648	2544.928217
488.448905	2546.415357
488.817104	2541.863195
489.185244	2541.848072
489.553326	2544.063659
489.921350	2547.925183
490.289315	2546.427960
490.657222	2542.548792
491.025070	2546.589277
491.392861	2544.504760
491.760593	2544.875285
492.128267	2544.892929
492.495883	2544.708927
492.863440	2543.670449
493.230939	2543.519214
493.598380	2543.423432
493.965763	2546.846376
494.333088	2544.895449
494.700354	2545.762528
495.067563	2543.819163
495.434713	2545.273536
495.801805	2546.939637
496.168839	2544.955943
496.535815	2543.501570
496.902733	2546.175902
497.269593	2542.415202
497.636395	2544.565254
498.003139	2545.034081
498.369825	2546.470810
498.736453	2546.314534
499.103023	2546.498536
499.469535	2548.830070
499.835989	2545.225645
500.202385	2542.800850
500.568723	2542.533669
500.935003	2541.981662
501.301226	2541.434697
501.667390	2545.823022
502.033497	2545.671787
502.399546	2544.628268
502.765537	2544.703885
503.131470	2545.654143
503.497345	2547.254709
503.863163	2548.280584
504.228923	2547.499205
504.594625	2544.353525
504.960269	2550.034906
505.325856	2546.801005
505.691385	2547.950388
506.056856	2545.160110
506.422270	2546.485933
506.787625	2545.359235
507.152924	2544.661036
507.518164	2544.809750
507.883347	2544.703885
508.248472	2549.364432
508.613540	2545.974256
508.978550	2547.569781
509.343503	2547.214380
509.708398	2545.477703
510.073236	2546.846376
510.438016	2547.993238
510.802738	2544.935778
511.167403	2548.497354
511.532010	2545.586087
511.896561	2546.773279
512.261053	2545.041643
512.625488	2548.164638
512.989866	2544.492157
513.354186	2547.373176
513.718449	2546.052394
514.082655	2548.308310
514.446803	2546.798485
514.810894	2546.513660
515.174927	2544.688762
515.538904	2546.657333
515.902822	2545.621375
516.266684	2544.930737
516.630488	2545.792775
516.994235	2547.453835
517.357925	2546.274205
517.721558	2549.001469
518.085133	2547.267312
518.448651	2546.803526
518.812112	2542.205994
519.175516	2543.733463
519.538863	2541.283463
519.902152	2545.417209
520.265385	2547.998279
520.628560	2548.895605
520.991678	2547.181612
521.354739	2547.196736
521.717743	2550.208825
522.080690	2549.114895
522.443580	2547.804195
522.806413	2548.018444
523.169189	2547.093392
523.531908	2546.770758
523.894569	2549.059442
524.257174	2547.330327
524.619722	2547.252189
524.982213	2548.366284
525.344647	2549.424926
525.707025	2546.722867
526.069345	2548.076417
526.431608	2548.257899
526.793815	2548.091541
527.155964	2550.551624
527.518057	2547.073228
527.880093	2549.760163
528.242072	2547.486602
528.603995	2546.891746
528.965860	2550.042467
529.327669	2548.585574
529.689421	2548.320913
530.051117	2550.352498
530.412755	2547.882333
530.774337	2548.386448
531.135862	2547.602549
531.497331	2548.081458
531.858743	2548.119267
532.220098	2549.245965
532.581396	2548.593136
532.942638	2549.606408
533.303824	2547.705892
533.664953	2549.770245
534.026025	2547.216901
534.387040	2550.246634
534.747999	2548.583053
535.108902	2551.085986
535.469748	2546.216232
535.830537	2549.724875
536.191270	2552.205122
536.551947	2548.691438
536.912567	2546.801005
537.273131	2546.836293
537.633638	2544.282949
537.994089	2546.758156
538.354483	2549.359391
538.714821	2550.476007
539.075103	2548.865358
539.435328	2548.129349
539.795497	2547.930224
540.155609	2549.750080
540.515665	2546.874102
540.875665	2548.126829
541.235609	2547.206818
541.595496	2549.676984
541.955328	2548.303269
542.315102	2546.014585
542.674821	2546.712785
543.034483	2549.258568
543.394090	2548.436860
543.753640	2547.635316
544.113134	2548.464586
544.472571	2548.661191
544.831953	2548.535162
545.191278	2549.886192
545.550548	2549.243444
545.909761	2546.012065
546.268918	2549.167827
546.628019	2547.287477
546.987064	2547.531973
547.346053	2549.800492
547.704986	2549.538352
548.063863	2549.445091
548.422684	2550.753270
548.781449	2547.108516
549.140158	2549.102292
549.498811	2550.244113
549.857408	2549.230842
550.215949	2549.682025
550.574434	2548.993907
550.932864	2548.330996
551.291237	2547.978115
551.649555	2552.069011
552.007817	2549.177909
552.366022	2551.189330
552.724173	2548.552806
553.082267	2547.476520
553.440305	2548.089020
553.798288	2550.009700
554.156215	2548.699000
554.514086	2546.503577
554.871902	2547.685728
555.229661	2547.978115
555.587365	2543.773792
555.945014	2550.412992
556.302606	2549.855945
556.660143	2549.427447
557.017625	2549.377035
557.375050	2549.160265
557.732421	2551.005328
558.089735	2550.712941
558.446994	2548.383928
558.804197	2547.589946
559.161345	2550.546583
559.518437	2551.186809
559.875474	2550.123126
560.232455	2551.141439
560.589381	2549.656819
560.946251	2550.896943
561.303065	2550.687735
561.659825	2549.326623
562.016528	2549.621531
562.373177	2550.947354
562.729770	2550.581871
563.086307	2548.716644
563.442789	2550.589432
563.799216	2550.707900
564.155587	2550.342416
564.511904	2547.806716
564.868164	2550.498692
565.224370	2549.543393
565.580520	2551.307797
565.936615	2550.269319
566.292654	2549.608928
566.648638	2551.673281
567.004567	2550.420554
567.360441	2549.785368
567.716260	2547.640357
568.072023	2549.639175
568.427732	2551.370811
568.783385	2548.719164
569.138982	2549.745039
569.494525	2549.838301
569.850013	2551.343085
570.205445	2550.533980
570.560823	2551.085986
570.916145	2548.517518
571.271412	2548.681356
571.626625	2550.218908
571.981782	2552.580688
572.336884	2547.360573
572.691931	2545.765048
573.046923	2548.240255
573.401860	2545.810419
573.756743	2548.346119
574.111570	2552.774773
574.466342	2551.280071
574.821059	2550.304607
575.175722	2551.504402
575.530330	2552.870555
575.884882	2551.373332
576.239380	2550.423074
576.593823	2555.638148
576.948211	2548.751932
577.302544	2550.420554
577.656823	2551.073383
578.011047	2552.358878
578.365216	2551.864844
578.719330	2551.764021
579.073389	2552.716799
579.427394	2552.684032
579.781344	2549.729916
580.135239	2552.018600
580.489080	2551.774104
580.842866	2551.272509
581.196597	2552.973898
581.550273	2551.993394
581.903895	2552.832746
582.257463	2553.223435
582.610975	2553.215874
582.964434	2550.738147
583.317837	2551.678322
583.671186	2554.690411
584.024481	2551.300235
584.377721	2548.026006
584.730906	2547.824360
585.084037	2552.031202
585.437113	2551.980791
585.790135	2553.185627
586.143103	2551.088507
586.496016	2553.717468
586.848874	2553.223435
587.201679	2552.308466
587.554428	2548.260419
587.907124	2551.108671
588.259765	2553.195709
588.612352	2552.774773
588.964884	2551.915256
589.317362	2551.910215
589.669786	2550.665050
590.022155	2546.697662
590.374470	2545.472661
590.726731	2547.504246
591.078937	2548.099103
591.431090	2553.674619
591.783188	2552.530277
592.135232	2551.017931
592.487222	2551.433826
592.839157	2553.475493
593.191038	2552.913404
593.542866	2551.653116
593.894639	2551.065822
594.246358	2552.242931
594.598022	2549.450132
594.949633	2551.096068
595.301190	2552.938610
595.652692	2551.854762
596.004141	2551.585060
596.355535	2552.016079
596.706876	2552.900802
597.058162	2550.158414
597.409395	2551.653116
597.760573	2548.182282
598.111698	2552.089176
598.462768	2553.057077
598.813785	2552.996583
599.164748	2550.375183
599.515657	2549.442570
599.866511	2548.958619
600.217312	2551.506923
600.568060	2550.251675
600.918753	2553.692263
601.269392	2553.034392
601.619978	2551.741336
601.970510	2552.129505
602.320988	2548.273022
602.671412	2550.738147
603.021783	2550.299566
603.372100	2549.447611
603.722363	2550.042467
604.072572	2550.536500
604.422728	2550.564227
604.772830	2551.897612
605.122878	2551.010369
605.472872	2551.756460
605.822813	2551.438867
606.172701	2550.594474
606.522534	2550.430636
606.872314	2552.447098
607.222041	2551.534649
607.571714	2549.558517
607.921333	2548.764535
608.270899	2549.853424
608.620411	2547.995759
608.969870	2552.300904
609.319276	2555.348282
609.668627	2557.286605
610.017926	2562.415979
610.367171	2563.154508
610.716362	2564.913871
611.065500	2559.812223
611.414585	2559.348437
611.763616	2557.710062
612.112594	2556.089331
612.461518	2555.996070
612.810389	2554.745864
613.159207	2554.531615
613.507971	2553.062118
613.856682	2554.032541
614.205340	2554.589588
614.553945	2552.633620
614.902496	2553.094886
615.250994	2551.701007
615.599439	2548.764535
615.947830	2550.624721
616.296169	2548.958619
616.644454	2550.710420
616.992686	2550.894422
617.340864	2551.196892
617.688990	2552.374001
618.037063	2551.769063
618.385082	2552.048847
618.733048	2555.272664
619.080961	2552.154711
619.428821	2552.542880
619.776628	2552.873075
620.124382	2552.799978
620.472083	2553.924156
620.819731	2555.320555
621.167326	2550.264278
621.514868	2553.800648
621.862357	2550.231511
622.209793	2550.526418
622.557176	2553.117571
622.904506	2549.256047
623.251783	2552.590771
623.599007	2550.501212
623.946179	2553.319217
624.293297	2552.003476
624.640363	2552.222766
624.987376	2546.619524
625.334336	2546.014585
625.681243	2546.082641
626.028097	2547.899977
626.374899	2549.800492
626.721647	2552.056408
627.068343	2549.321582
627.414987	2549.266130
627.761577	2548.716644
628.108115	2550.556665
628.454600	2550.589432
628.801032	2552.593291
629.147412	2554.037582
629.493739	2551.572457
629.840014	2551.988353
630.186236	2552.610935
630.532405	2552.631100
630.878521	2551.118754
631.224585	2549.114895
631.570597	2549.447611
631.916556	2554.304763
632.262462	2549.994576
632.608316	2548.267981
632.954117	2547.582384
633.299866	2551.474155
633.645562	2551.600184
633.991206	2552.346275
634.336797	2551.464073
634.682336	2549.094730
635.027823	2551.060780
635.373257	2550.549103
635.718639	2551.590102
636.063968	2550.649926
636.409245	2549.639175
636.754470	2548.915769
637.099642	2550.223949
637.444762	2549.765204
637.789829	2551.146480
638.134845	2551.091027
638.479808	2551.098589
638.824719	2550.695297
639.169577	2549.349309
639.514383	2549.019113
639.859137	2547.584905
640.203839	2548.867878
640.548489	2548.618341
640.893086	2547.993238
641.237632	2550.259237
641.582125	2550.239072
641.926566	2549.361912
642.270955	2547.784030
642.615292	2546.433001
642.959576	2547.196736
643.303809	2544.749256
643.647990	2551.133877
643.992118	2550.171017
644.336195	2550.821326
