Dividing Wavelength (nm)	Counts (n)	Blue Motor Position (mm): 16.500000	Red Motor Position (mm): 0.000000	
326.493990	2103.529827
326.888308	2103.529827
327.282561	2103.529827
327.676750	2081.547876
328.070874	2081.704152
328.464933	2087.577096
328.858929	2097.482963
329.252859	2112.024171
329.646726	2124.806017
330.040528	2139.178347
330.434265	2156.834988
330.827938	2180.795592
331.221547	2199.067254
331.615091	2220.383773
332.008571	2238.257184
332.401986	2261.411204
332.795338	2281.064142
333.188625	2301.967287
333.581847	2321.153918
333.975006	2336.206803
334.368100	2355.234639
334.761129	2374.144007
335.154095	2388.632283
335.546996	2427.610484
335.939833	2480.696355
336.332606	2496.971720
336.725315	2511.376817
337.117960	2515.608866
337.510540	2522.215298
337.903056	2533.525127
338.295508	2537.893287
338.687896	2546.185985
339.080220	2553.621687
339.472480	2555.741492
339.864676	2561.879097
340.256807	2567.217678
340.648875	2565.526371
341.040879	2566.476629
341.432818	2570.101218
341.824694	2567.878070
342.216506	2567.010991
342.608253	2569.211455
342.999937	2567.593244
343.391557	2564.538305
343.783113	2565.213820
344.174605	2562.892368
344.566033	2564.397153
344.957397	2559.973540
345.348697	2559.245094
345.739934	2557.122768
346.131106	2555.267623
346.522215	2556.548076
346.913260	2549.989535
347.304241	2548.479710
347.695159	2544.121632
348.086012	2548.225131
348.476802	2546.064997
348.867528	2544.552651
349.258191	2542.006868
349.648789	2546.473330
350.039324	2541.412012
350.429796	2544.293031
350.820203	2541.583411
351.210548	2540.582742
351.600828	2537.119469
351.991045	2536.484284
352.381198	2536.113759
352.771288	2537.432021
353.161314	2537.726928
353.551276	2536.030580
353.941175	2533.600744
354.331010	2534.440096
354.720782	2539.776158
355.110490	2540.575180
355.500135	2537.857998
355.889717	2536.958152
356.279235	2539.914789
356.668689	2537.293389
357.058080	2537.001002
357.447408	2536.761547
357.836672	2537.361445
358.225873	2537.474871
358.615010	2536.673327
359.004084	2542.503422
359.393095	2542.964687
359.782043	2540.260108
360.170927	2544.713968
360.559748	2541.918648
360.948505	2544.666077
361.337199	2544.834955
361.725830	2544.948381
362.114398	2543.965356
362.502903	2544.658515
362.891344	2546.654812
363.279722	2545.545758
363.668037	2545.124822
364.056289	2548.126829
364.444478	2549.492982
364.832603	2548.570450
365.220665	2550.334854
365.608665	2547.831921
365.996601	2550.614638
366.384474	2548.830070
366.772284	2548.525080
367.160031	2550.917107
367.547715	2549.956768
367.935336	2551.796789
368.322893	2551.501881
368.710388	2549.440049
369.097820	2553.367108
369.485189	2548.928372
369.872495	2554.256872
370.259738	2553.984650
370.646918	2552.482386
371.034035	2551.418702
371.421090	2552.923487
371.808081	2552.757129
372.195010	2553.452808
372.581875	2553.556152
372.968678	2555.391132
373.355418	2553.437684
373.742096	2556.495144
374.128710	2555.166800
374.515262	2556.855587
374.901751	2555.978426
375.288177	2556.628735
375.674540	2557.952038
376.060841	2556.462377
376.447079	2553.929197
376.833254	2558.667882
377.219367	2552.086655
377.605417	2555.262582
377.991404	2552.989022
378.377329	2555.176882
378.763191	2553.251162
379.148991	2557.977243
379.534727	2561.445557
379.920402	2560.233160
380.306013	2557.959599
380.691563	2560.384394
381.077049	2558.191493
381.462474	2559.527398
381.847835	2559.267779
382.233134	2560.437327
382.618371	2561.800959
383.003545	2559.625701
383.388657	2560.747357
383.773706	2563.179714
384.158693	2562.849519
384.543618	2562.116031
384.928480	2561.201061
385.313280	2562.569735
385.698017	2561.959755
386.082692	2564.487894
386.467305	2565.289437
386.851856	2565.987637
387.236344	2562.589899
387.620770	2563.525033
388.005133	2562.859601
388.389435	2563.840105
388.773674	2566.837071
389.157851	2563.807338
389.541965	2562.489076
389.926018	2566.022925
390.310008	2564.896227
390.693936	2568.661969
391.077802	2565.256670
391.461606	2568.220868
391.845348	2567.568039
392.229027	2567.966290
392.612645	2569.912175
392.996200	2571.162381
393.379694	2571.237999
393.763125	2567.381516
394.146494	2568.840930
394.529801	2571.311095
394.913047	2568.777916
395.296230	2569.138358
395.679351	2569.776064
396.062410	2571.094326
396.445408	2571.021229
396.828343	2571.532906
397.211217	2569.516445
397.594028	2569.208934
397.976778	2568.094839
398.359466	2571.490056
398.742092	2567.086608
399.124656	2573.814028
399.507158	2570.050807
399.889598	2572.972156
400.271977	2573.040211
400.654294	2576.001889
401.036549	2575.427197
401.418742	2575.263360
401.800874	2572.652042
402.182944	2573.080540
402.564952	2574.928123
402.946898	2575.240675
403.328783	2573.009964
403.710606	2576.296797
404.092367	2574.338308
404.474067	2576.571539
404.855705	2577.569688
405.237282	2578.139338
405.618797	2574.093812
406.000250	2574.665983
406.381642	2578.076324
406.762972	2576.364852
407.144240	2576.195973
407.525447	2577.877198
407.906593	2578.769482
408.287677	2577.363001
408.668700	2577.483988
409.049661	2578.013309
409.430560	2577.572208
409.811399	2579.825604
410.192176	2576.521128
410.572891	2580.397775
410.953545	2577.186560
411.334138	2581.547158
411.714669	2579.346695
412.095139	2579.203022
412.475547	2575.606158
412.855894	2580.070100
413.236180	2581.406006
413.616405	2580.395255
413.996568	2577.816704
414.376670	2577.244533
414.756711	2579.318968
415.136691	2578.668659
415.516609	2580.241499
415.896466	2581.219483
416.276262	2583.248548
416.655997	2575.835531
417.035670	2576.054821
417.415283	2581.106057
417.794834	2578.572877
418.174324	2581.380800
418.553753	2580.627148
418.933121	2584.234093
419.312428	2582.570512
419.691674	2582.976325
420.070859	2580.574216
420.449983	2583.944227
420.829045	2583.941706
421.208047	2581.078331
421.586988	2584.791141
421.965867	2582.497416
422.344686	2582.648650
422.723444	2585.580081
423.102141	2583.810636
423.480777	2585.138980
423.859352	2586.492530
424.237866	2585.355750
424.616319	2583.982036
424.994712	2587.261306
425.373044	2584.793661
425.751314	2586.757191
426.129524	2585.955647
426.507673	2585.837180
426.885762	2586.686615
427.263789	2586.832808
427.641756	2585.683425
428.019662	2587.790627
428.397508	2586.812643
428.775292	2585.539752
429.153016	2586.865576
429.530679	2588.445977
429.908282	2583.717375
430.285824	2585.343147
430.663305	2585.489341
431.040726	2587.490679
431.418086	2586.855493
431.795385	2587.881368
432.172624	2590.699373
432.549802	2584.879361
432.926920	2588.549321
433.303977	2587.959506
433.680974	2582.893146
434.057910	2590.258272
434.434786	2587.019331
434.811601	2589.907912
435.188355	2591.405135
435.565050	2591.485793
435.941683	2590.858169
436.318257	2588.405648
436.694770	2588.340113
437.071222	2588.594691
437.447614	2588.085535
437.823946	2587.115113
438.200218	2589.643251
438.576429	2591.284147
438.952580	2591.261462
439.328670	2587.662078
439.704700	2588.884558
440.080670	2591.538725
440.456580	2591.412696
440.832429	2592.257090
441.208218	2594.165166
441.583947	2594.507965
441.959616	2592.131061
442.335224	2592.025197
442.710773	2595.531319
443.086261	2591.145515
443.461689	2593.968561
443.837057	2595.175918
444.212365	2592.617532
444.587612	2592.559559
444.962800	2594.974272
445.337927	2594.424786
445.712995	2594.775146
446.088002	2593.734148
446.462949	2596.446288
446.837837	2595.062492
447.212664	2595.979982
447.587431	2598.452668
447.962139	2599.959973
448.336786	2601.714294
448.711374	2601.013574
449.085901	2599.602051
449.460369	2601.174891
449.834776	2599.667586
450.209124	2602.964500
450.583412	2599.695312
450.957640	2601.316043
451.331808	2604.393668
451.705917	2598.026690
452.079965	2603.571959
452.453954	2599.844026
452.827883	2598.354365
453.201752	2598.200610
453.575562	2601.343769
453.949311	2602.493152
454.323001	2602.339397
454.696632	2600.181783
455.070202	2604.744028
455.443713	2605.502721
455.817164	2603.030035
456.190556	2598.566094
456.563888	2603.844182
456.937160	2603.095570
457.310373	2604.789398
457.683526	2604.633122
458.056619	2605.979110
458.429653	2605.853082
458.802628	2607.932557
459.175542	2605.888370
459.548398	2607.700664
459.921194	2610.334667
460.293930	2611.042949
460.666607	2611.390789
461.039224	2612.134359
461.411782	2616.356326
461.784280	2615.771552
462.156719	2613.787858
462.529099	2613.193002
462.901419	2613.407251
463.273680	2611.778958
463.645882	2613.745008
464.018024	2615.305245
464.390106	2614.622169
464.762130	2617.079731
465.134094	2623.164404
465.505999	2629.044910
465.877845	2631.358799
466.249631	2631.865435
466.621358	2631.159674
466.993026	2632.215796
467.364634	2631.230250
467.736184	2629.337297
468.107674	2628.666823
468.479105	2626.010135
468.850477	2627.938377
469.221790	2627.404014
469.593043	2626.799076
469.964238	2626.148767
470.335373	2625.468211
470.706449	2627.840074
471.077467	2630.131278
471.448425	2637.569501
471.819324	2642.545120
472.190164	2640.836169
472.560945	2636.457927
472.931667	2635.401805
473.302330	2632.702267
473.672934	2632.621608
474.043479	2636.606641
474.413965	2633.715539
474.784393	2632.704787
475.154761	2636.876342
475.525070	2634.259983
475.895321	2638.164357
476.265513	2637.733338
476.635645	2642.464461
477.005719	2643.260964
477.375734	2646.290697
477.745691	2647.924031
478.115588	2655.468118
478.485427	2658.689415
478.855207	2663.511279
479.224928	2670.868843
479.594591	2676.169616
479.964194	2674.196004
480.333739	2678.423012
480.703226	2682.234124
481.072653	2682.473579
481.442022	2683.212108
481.811333	2688.790145
482.180584	2688.754857
482.549777	2690.025227
482.918912	2688.676719
483.287988	2693.763243
483.657005	2689.672347
484.025964	2692.777697
484.394864	2695.247863
484.763706	2698.340611
485.132489	2697.808769
485.501213	2698.219623
485.869879	2702.819676
486.238487	2701.476208
486.607036	2705.589790
486.975527	2706.565253
487.343959	2709.549616
487.712333	2714.351315
488.080648	2716.271995
488.448905	2718.192674
488.817104	2721.224928
489.185244	2728.368243
489.553326	2735.279665
489.921350	2749.498240
490.289315	2761.982657
490.657222	2766.824686
491.025070	2772.944646
491.392861	2772.420366
491.760593	2769.766199
492.128267	2769.703184
492.495883	2764.707401
492.863440	2765.100611
493.230939	2762.441402
493.598380	2761.788573
493.965763	2759.348654
494.333088	2760.049375
494.700354	2759.361257
495.067563	2766.958276
495.434713	2765.937442
495.801805	2772.710233
496.168839	2779.130142
496.535815	2776.443207
496.902733	2778.822632
497.269593	2782.094341
497.636395	2782.623662
498.003139	2791.803603
498.369825	2790.485341
498.736453	2799.173770
499.103023	2797.658903
499.469535	2798.760395
499.835989	2803.201652
500.202385	2806.647280
500.568723	2808.336067
500.935003	2817.286636
501.301226	2817.387459
501.667390	2826.716114
502.033497	2833.451095
502.399546	2832.107628
502.765537	2833.468739
503.131470	2837.683144
503.497345	2845.166737
503.863163	2838.199862
504.228923	2846.459793
504.594625	2856.584950
504.960269	2852.811647
505.325856	2862.800693
505.691385	2861.288347
506.056856	2866.425283
506.422270	2874.261756
506.787625	2878.690410
507.152924	2883.996224
507.518164	2893.619787
507.883347	2888.465207
508.248472	2898.461815
508.613540	2906.394071
508.978550	2916.907397
509.343503	2918.568458
509.708398	2926.077256
510.073236	2937.059410
510.438016	2941.019236
510.802738	2943.839762
511.167403	2959.482462
511.532010	2967.724749
511.896561	2977.600369
512.261053	2993.321207
512.625488	2996.537463
512.989866	2999.065602
513.354186	3009.742766
513.718449	3017.322141
514.082655	3034.903165
514.446803	3044.652756
514.810894	3061.039027
515.174927	3068.512538
515.538904	3080.961667
515.902822	3099.654265
516.266684	3103.951849
516.630488	3121.215280
516.994235	3135.965697
517.357925	3154.907832
517.721558	3171.830986
518.085133	3189.449818
518.448651	3207.003116
518.812112	3220.024416
519.175516	3239.178280
519.538863	3259.748709
519.902152	3278.852161
520.265385	3305.048517
520.628560	3324.814881
520.991678	3341.846420
521.354739	3365.451623
521.717743	3392.303328
522.080690	3415.109508
522.443580	3447.236782
522.806413	3473.193683
523.169189	3496.483814
523.531908	3528.033875
523.894569	3552.561609
524.257174	3583.605035
524.619722	3618.721712
524.982213	3650.601969
525.344647	3678.101463
525.707025	3712.686299
526.069345	3756.161210
526.431608	3786.904687
526.793815	3830.939166
527.155964	3858.915049
527.518057	3898.586409
527.880093	3935.157460
528.242072	3989.017147
528.603995	4020.829349
528.965860	4064.515988
529.327669	4105.722380
529.689421	4155.118126
530.051117	4198.862738
530.412755	4252.437601
530.774337	4301.112462
531.135862	4345.015870
531.497331	4403.042072
531.858743	4451.056542
532.220098	4518.315616
532.581396	4561.611566
532.942638	4602.820478
533.303824	4674.974513
533.664953	4737.109255
534.026025	4784.909476
534.387040	4868.474162
534.747999	4925.668573
535.108902	5002.941900
535.469748	5041.481521
535.830537	5111.823261
536.191270	5192.333009
536.551947	5237.007714
536.912567	5329.207898
537.273131	5406.881996
537.633638	5449.751968
537.994089	5545.329725
538.354483	5589.507876
538.714821	5710.021700
539.075103	5813.544315
539.435328	5876.241145
539.795497	5945.889727
540.155609	6030.883581
540.515665	6148.382795
540.875665	6191.671183
541.235609	6304.456918
541.595496	6390.741307
541.955328	6534.250354
542.315102	6566.112967
542.674821	6638.267002
543.034483	6731.137659
543.394090	6821.079405
543.753640	6913.640031
544.113134	7112.090093
544.472571	7108.551203
544.831953	7335.529155
545.191278	7356.996909
545.550548	7426.766478
545.909761	7580.889674
546.268918	7712.965385
546.628019	7857.696912
546.987064	7916.370901
547.346053	7934.400588
547.704986	8153.312694
548.063863	8207.305972
548.422684	8347.455090
548.781449	8437.883308
549.140158	8613.784289
549.498811	8708.815080
549.857408	8737.390861
550.215949	8977.034712
550.574434	9094.135674
550.932864	9183.676649
551.291237	9411.435980
551.649555	9484.114295
552.007817	9654.785079
552.366022	9724.794103
552.724173	9888.510615
553.082267	10086.161654
553.440305	10279.293299
553.798288	10288.155648
554.156215	10486.761986
554.514086	10671.797538
554.871902	10761.499829
555.229661	10912.568087
555.587365	11029.759790
555.945014	11195.767507
556.302606	11328.453197
556.660143	11521.473936
557.017625	11691.171778
557.375050	11805.590847
557.732421	12028.049404
558.089735	12187.004547
558.446994	12327.017553
558.804197	12603.144235
559.161345	12756.241557
559.518437	12737.417888
559.875474	12972.257519
560.232455	13194.030480
560.589381	13403.434970
560.946251	13499.166481
561.303065	13841.695241
561.659825	13961.210916
562.016528	14049.136201
562.373177	14145.679338
562.729770	14456.143839
563.086307	14505.395912
563.442789	14799.501869
563.799216	14996.225336
564.155587	15122.412978
564.511904	15317.989583
564.868164	15527.081521
565.224370	15785.241530
565.580520	15897.586164
565.936615	16147.597148
566.292654	16249.625061
566.648638	16523.430291
567.004567	16719.737863
567.360441	16934.964885
567.716260	17086.325529
568.072023	17385.880973
568.427732	17575.630004
568.783385	17613.703318
569.138982	17970.173389
569.494525	18165.997010
569.850013	18292.613151
570.205445	18491.085898
570.560823	18681.999436
570.916145	18841.282253
571.271412	19061.807528
571.626625	19167.185288
571.981782	19402.554240
572.336884	19470.967739
572.691931	19816.218722
573.046923	19862.693119
573.401860	20008.067393
573.756743	20201.632577
574.111570	20467.661828
574.466342	20613.046184
574.821059	20869.061182
575.175722	20860.813854
575.530330	21080.406516
575.884882	21168.757778
576.239380	21353.732836
576.593823	21559.762273
576.948211	21734.125702
577.302544	21728.242676
577.656823	21939.356117
578.011047	22260.591043
578.365216	22338.764215
578.719330	22450.788736
579.073389	22583.459303
579.427394	22830.261592
579.781344	23024.905583
580.135239	23070.331420
580.489080	23317.489111
580.842866	23265.018261
581.196597	23701.176372
581.550273	23882.151274
581.903895	24028.468244
582.257463	24461.957063
582.610975	24328.673997
582.964434	24690.031466
583.317837	24700.519587
583.671186	24822.328987
584.024481	25144.186495
584.377721	25084.204326
584.730906	25450.872651
585.084037	25675.788771
585.437113	25723.026903
585.790135	25928.259838
586.143103	25898.990899
586.496016	26163.454871
586.848874	26382.795475
587.201679	26604.835617
587.554428	26471.194628
587.907124	26787.489223
588.259765	26839.254312
588.612352	27180.447166
588.964884	26991.255182
589.317362	27373.654428
589.669786	27528.458180
590.022155	27559.826760
590.374470	28032.442495
590.726731	27914.086285
591.078937	27786.522407
591.431090	28038.912816
591.783188	27998.722217
592.135232	27969.080232
592.487222	28328.237238
592.839157	28558.260047
593.191038	28504.072684
593.542866	28527.057825
593.894639	28288.752400
594.246358	28653.442072
594.598022	28812.019128
594.949633	28722.803308
595.301190	28846.215796
595.652692	28907.705270
596.004141	29310.185952
596.355535	28779.566701
596.706876	28888.828669
597.058162	28940.702142
597.409395	29441.785273
597.760573	29665.864561
598.111698	29519.817293
598.462768	29675.563741
598.813785	29861.486536
599.164748	29614.391860
599.515657	30036.071776
599.866511	29808.017538
600.217312	30410.495916
600.568060	29794.494643
600.918753	30491.620685
601.269392	30604.489599
601.619978	30477.240793
601.970510	30778.931166
602.320988	31060.923230
602.671412	31443.569492
603.021783	31380.996170
603.372100	31242.747567
603.722363	31445.737188
604.072572	31637.701806
604.422728	31786.957768
604.772830	31772.812291
605.122878	31980.840545
605.472872	32055.247976
605.822813	32377.165978
606.172701	32378.660680
606.522534	32691.313042
606.872314	33022.937786
607.222041	32949.112608
607.571714	33382.437590
607.921333	33052.178999
608.270899	33386.115112
608.620411	33796.407062
608.969870	33747.596090
609.319276	33853.109960
609.668627	33997.193699
610.017926	34511.066237
610.367171	34759.340543
610.716362	34930.109630
611.065500	34978.524871
611.414585	35248.357672
611.763616	35596.237617
612.112594	35631.452597
612.461518	35918.125372
612.810389	36285.315456
613.159207	36271.061594
613.507971	36424.610099
613.856682	36913.962464
614.205340	36912.213184
614.553945	37631.669017
614.902496	37224.419403
615.250994	37723.723007
615.599439	37871.010399
615.947830	38135.048393
616.296169	38279.391751
616.644454	38468.223292
616.992686	38695.954896
617.340864	39241.553936
617.688990	39054.305318
618.037063	39682.055000
618.385082	39713.065658
618.733048	40057.116846
619.080961	40138.695318
619.428821	40241.081153
619.776628	40392.328371
620.124382	40330.365029
620.472083	40514.651969
620.819731	40694.142252
621.167326	40477.365075
621.514868	40529.823322
621.862357	40197.865862
622.209793	40296.972426
622.557176	40050.870857
622.904506	39874.730421
623.251783	39639.487497
623.599007	39501.291826
623.946179	39359.794199
624.293297	39368.197803
624.640363	38875.203204
624.987376	38923.290770
625.334336	38769.878376
625.681243	38487.414965
626.028097	38499.576748
626.374899	38413.652802
626.721647	38463.371181
627.068343	38393.059688
627.414987	38223.923935
627.761577	38074.317613
628.108115	38432.499155
628.454600	37934.864174
628.801032	38170.911162
629.147412	38179.609672
629.493739	38215.222904
629.840014	37908.251923
630.186236	38280.508367
630.532405	37940.406922
630.878521	38185.326341
631.224585	38103.039587
631.570597	37838.021088
631.916556	38018.446505
632.262462	38012.485340
632.608316	38069.417611
632.954117	37993.765015
633.299866	38004.555605
633.645562	37980.078283
633.991206	37550.060298
634.336797	37170.945364
634.682336	37204.267391
635.027823	37005.507298
635.373257	36868.239199
635.718639	36668.911976
636.063968	36583.033400
636.409245	36055.174180
636.754470	36142.310525
637.099642	35940.104803
637.444762	35506.006004
637.789829	35681.770874
638.134845	35383.558897
638.479808	35353.760637
638.824719	35292.205628
639.169577	34936.622800
639.514383	35015.700860
639.859137	34747.725725
640.203839	35013.926374
640.548489	34673.146895
640.893086	34765.400010
