Dividing Wavelength (nm)	Counts (n)	Blue Motor Position (mm): 42.000000	Red Motor Position (mm): 0.000000	
326.493990	2093.702098
326.888308	2093.702098
327.282561	2093.702098
327.676750	2072.675445
328.070874	2074.533110
328.464933	2080.093503
328.858929	2087.047775
329.252859	2102.592173
329.646726	2114.723709
330.040528	2132.123252
330.434265	2152.366005
330.827938	2173.737977
331.221547	2190.698939
331.615091	2212.877495
332.008571	2233.757954
332.401986	2254.240163
332.795338	2273.777154
333.188625	2292.585699
333.581847	2311.628658
333.975006	2329.582727
334.368100	2349.205419
334.761129	2364.618747
335.154095	2381.771273
335.546996	2427.595361
335.939833	2513.872188
336.332606	2528.703263
336.725315	2537.474871
337.117960	2544.850079
337.510540	2554.574465
337.903056	2565.785991
338.295508	2572.165571
338.687896	2578.890470
339.080220	2583.876171
339.472480	2588.241811
339.864676	2590.349013
340.256807	2597.820003
340.648875	2595.987543
341.040879	2597.557863
341.432818	2601.106835
341.824694	2600.169181
342.216506	2600.509458
342.608253	2599.279417
342.999937	2598.011567
343.391557	2600.360744
343.783113	2595.753130
344.174605	2593.083839
344.566033	2590.800196
344.957397	2593.383787
345.348697	2588.967737
345.739934	2586.737026
346.131106	2587.916656
346.522215	2584.725606
346.913260	2583.714854
347.304241	2581.592529
347.695159	2582.520101
348.086012	2580.743094
348.476802	2579.180337
348.867528	2576.952147
349.258191	2578.114132
349.648789	2575.762434
350.039324	2574.340829
350.429796	2574.358473
350.820203	2570.910324
351.210548	2574.076168
351.600828	2572.843606
351.991045	2570.743966
352.381198	2569.246743
352.771288	2567.936043
353.161314	2567.714232
353.551276	2567.046279
353.941175	2567.144582
354.331010	2570.998544
354.720782	2573.924934
355.110490	2575.764955
355.500135	2572.100036
355.889717	2571.837896
356.279235	2570.552402
356.668689	2571.444686
357.058080	2574.303020
357.447408	2570.189439
357.836672	2570.965776
358.225873	2571.422001
358.615010	2569.536609
359.004084	2579.003896
359.393095	2578.144379
359.782043	2577.287383
360.170927	2574.005592
360.559748	2574.315623
360.948505	2578.156982
361.337199	2579.646643
361.725830	2581.660584
362.114398	2579.994483
362.502903	2581.973136
362.891344	2580.977508
363.279722	2580.659915
363.668037	2584.085379
364.056289	2584.944896
364.444478	2586.686615
364.832603	2586.868096
365.220665	2587.987232
365.608665	2588.304825
365.996601	2585.910277
366.384474	2588.556883
366.772284	2588.191399
367.160031	2590.641400
367.547715	2592.012594
367.935336	2591.296750
368.322893	2590.490165
368.710388	2592.985536
369.097820	2594.084508
369.485189	2593.963520
369.872495	2595.473346
370.259738	2596.572317
370.646918	2594.024014
371.034035	2598.026690
371.421090	2597.240270
371.808081	2595.720362
372.195010	2602.006681
372.581875	2600.791763
372.968678	2597.562904
373.355418	2599.133223
373.742096	2600.275045
374.128710	2604.033225
374.515262	2604.703698
374.901751	2606.911724
375.288177	2604.454161
375.674540	2606.364759
376.060841	2609.570932
376.447079	2605.187649
376.833254	2610.843824
377.219367	2606.256374
377.605417	2608.313165
377.991404	2608.998762
378.377329	2609.671756
378.763191	2609.989348
379.148991	2613.974380
379.534727	2617.712396
379.920402	2616.971346
380.306013	2619.824639
380.691563	2616.109309
381.077049	2619.572582
381.462474	2622.819085
381.847835	2622.690535
382.233134	2624.452419
382.618371	2623.101389
383.003545	2627.217492
383.388657	2631.953656
383.773706	2629.826289
384.158693	2631.288223
384.543618	2636.974645
384.928480	2637.181332
385.313280	2641.733494
385.698017	2644.002013
386.082692	2652.574495
386.467305	2652.478713
386.851856	2658.192861
387.236344	2666.097391
387.620770	2675.405881
388.005133	2682.050122
388.389435	2696.205682
388.773674	2707.873432
389.157851	2723.740464
389.541965	2743.143865
389.926018	2759.699015
390.310008	2784.055349
390.693936	2808.693989
391.077802	2838.436797
391.461606	2871.547095
391.845348	2908.891963
392.229027	2951.056173
392.612645	3006.224041
392.996200	3058.014335
393.379694	3120.196967
393.763125	3191.312525
394.146494	3253.858120
394.529801	3324.295643
394.913047	3416.967174
395.296230	3473.481029
395.679351	3542.491904
396.062410	3653.243534
396.445408	3702.135164
396.828343	3803.608550
397.211217	3905.802821
397.594028	3955.168320
397.976778	4084.942743
398.359466	4210.112073
398.742092	4290.266419
399.124656	4421.172582
399.507158	4570.637752
399.889598	4668.368081
400.271977	4838.519626
400.654294	4950.312254
401.036549	5125.494871
401.418742	5233.307507
401.800874	5457.064162
402.182944	5604.122181
402.564952	5878.111413
402.946898	5913.200365
403.328783	6045.757505
403.710606	6256.434886
404.092367	6505.992166
404.474067	6810.757643
404.855705	6823.042934
405.237282	6910.978302
405.618797	7279.292563
406.000250	7545.374746
406.381642	7888.037096
406.762972	7997.624219
407.144240	7983.662743
407.525447	8269.292000
407.906593	8350.956171
408.287677	8644.308475
408.668700	8866.265438
409.049661	8973.435328
409.430560	9203.770688
409.811399	9300.636459
410.192176	9524.529225
410.572891	9690.110964
410.953545	10167.432616
411.334138	9874.549139
411.714669	10442.261200
412.095139	10008.192648
412.475547	10497.076187
412.855894	10472.195572
413.236180	10830.281332
413.616405	10665.337299
413.996568	10980.742131
414.376670	11047.870135
414.756711	11021.739314
415.136691	11340.657830
415.516609	11563.534803
415.896466	11702.365660
416.276262	12028.200639
416.655997	12503.248730
417.035670	12607.567847
417.415283	13265.672838
417.794834	13398.091347
418.174324	13211.387173
418.553753	13181.901464
418.933121	13689.278475
419.312428	13572.510228
419.691674	13535.535886
420.070859	14014.846273
420.449983	13713.697824
420.829045	14286.241831
421.208047	14088.694135
421.586988	14556.137646
421.965867	14818.353264
422.344686	14853.568244
422.723444	15433.142140
423.102141	14184.579402
423.480777	15372.789446
423.859352	14894.305808
424.237866	15998.736916
424.616319	15739.868625
424.994712	16383.666821
425.373044	16201.701332
425.751314	16886.736166
426.129524	16039.819799
426.507673	17117.086650
426.885762	16857.283225
427.263789	17034.562962
427.641756	17231.107468
428.019662	17297.128939
428.397508	17350.759254
428.775292	17653.823341
429.153016	17634.084703
429.530679	17715.945480
429.908282	17749.264986
430.285824	17481.892269
430.663305	18191.492646
431.040726	17810.905695
431.418086	17652.396695
431.795385	18303.035736
432.172624	18731.533813
432.549802	18296.673800
432.926920	18509.828908
433.303977	18385.650166
433.680974	18646.882758
434.057910	18957.092680
434.434786	18998.092385
434.811601	18934.137786
435.188355	19970.220931
435.565050	19650.289143
435.941683	19604.276011
436.318257	20507.721357
436.694770	20307.905142
437.071222	20896.399359
437.447614	19970.016764
437.823946	19990.206585
438.200218	20177.059473
438.576429	19940.778072
438.952580	20256.051833
439.328670	20234.841178
439.704700	20649.733181
440.080670	20219.652182
440.456580	20832.449802
440.832429	21003.506234
441.208218	20011.928917
441.583947	20458.640683
441.959616	20575.056048
442.335224	20826.203812
442.710773	20964.724638
443.086261	21514.964060
443.461689	20859.717403
443.837057	21019.678256
444.212365	21669.518275
444.587612	21676.228051
444.962800	21274.473295
445.337927	21706.008667
445.712995	20423.251783
446.088002	22315.726142
446.462949	22531.837887
446.837837	22714.879663
447.212664	22750.445003
447.587431	25751.695945
447.962139	28725.782630
448.336786	31001.616575
448.711374	29256.109494
449.085901	25546.339502
449.460369	25567.666104
449.834776	25600.045435
450.209124	28171.164966
450.583412	27637.311815
450.957640	28081.744979
451.331808	26741.839055
451.705917	25373.891712
452.079965	25426.072695
452.453954	25809.399513
452.827883	25727.851288
453.201752	25517.932600
453.575562	25687.292684
453.949311	26822.464749
454.323001	26908.295434
454.696632	26690.734357
455.070202	28299.878227
455.443713	28486.935282
455.817164	29076.767926
456.190556	29624.827048
456.563888	29027.460400
456.937160	29448.016139
457.310373	27739.007012
457.683526	28182.600824
458.056619	28194.868472
458.429653	28180.062603
458.802628	28799.512026
459.175542	28951.154975
459.548398	30322.598358
459.921194	31963.423359
460.293930	32730.757550
460.666607	34830.806461
461.039224	36605.093489
461.411782	36914.973216
461.784280	35633.728678
462.156719	35049.859719
462.529099	34480.310157
462.901419	33146.740963
463.273680	32103.587600
463.645882	32247.996493
464.018024	32262.835130
464.390106	33227.054105
464.762130	36185.465322
465.134094	40586.740469
465.505999	46096.845132
465.877845	50586.453897
466.249631	51509.494207
466.621358	49592.335838
466.993026	47357.678038
467.364634	45215.250667
467.736184	43235.592073
468.107674	41993.227434
468.479105	41192.450227
468.850477	40478.075878
469.221790	38997.143674
469.593043	37242.141580
469.964238	36339.472572
470.335373	36281.111134
470.706449	38196.305974
471.077467	41038.586650
471.448425	45711.494290
471.819324	48392.188342
472.190164	46332.393045
472.560945	42700.584497
472.931667	39556.754601
473.302330	38469.889393
473.672934	37632.704974
474.043479	38182.722585
474.413965	37385.227170
474.784393	37014.354523
475.154761	37960.193451
475.525070	38001.271293
475.895321	37521.413941
476.265513	38148.228490
476.635645	39160.620732
477.005719	39013.086323
477.375734	39529.678563
477.745691	40258.745356
478.115588	41650.313026
478.485427	43813.308303
478.855207	47325.601176
479.224928	49962.984154
479.594591	51464.078452
479.964194	50339.336536
480.333739	50460.377160
480.703226	50561.966492
481.072653	51221.596432
481.442022	51697.670398
481.811333	51881.949777
482.180584	50591.830288
482.549777	50077.050342
482.918912	49548.813036
483.287988	49238.277959
483.657005	48389.415707
484.025964	47715.131133
484.394864	47709.011173
484.763706	47266.760828
485.132489	46387.008906
485.501213	46239.688746
485.869879	46396.400575
486.238487	45979.192163
486.607036	46181.491146
486.975527	45608.624505
487.343959	45847.313057
487.712333	45901.593681
488.080648	45796.369677
488.448905	46252.563853
488.817104	46069.222129
489.185244	47081.934484
489.553326	48909.947609
489.921350	51678.816483
490.289315	54465.810825
490.657222	54975.668084
491.025070	55182.642737
491.392861	54238.341361
491.760593	52969.659378
492.128267	51265.552773
492.495883	49717.590867
492.863440	48285.240263
493.230939	46922.218127
493.598380	45826.369584
493.965763	45490.323748
494.333088	44663.662737
494.700354	44158.629862
495.067563	43876.216862
495.434713	43724.586516
495.801805	43794.139316
496.168839	43410.401644
496.535815	43051.158939
496.902733	43090.119496
497.269593	42645.777073
497.636395	42585.293309
498.003139	42990.894465
498.369825	42427.593414
498.736453	42728.641039
499.103023	42241.963006
499.469535	42127.871612
499.835989	42212.492420
500.202385	41872.390976
500.568723	41896.631364
500.935003	42090.400715
501.301226	41888.709191
501.667390	42503.001513
502.033497	42740.727205
502.399546	42166.517097
502.765537	41450.080915
503.131470	41827.522186
503.497345	42194.225799
503.863163	40843.715807
504.228923	41483.874290
504.594625	41897.009451
504.960269	41140.284368
505.325856	41858.527803
505.691385	41197.007431
506.056856	41337.335510
506.422270	41788.612040
506.787625	41339.425068
507.152924	41554.571432
507.518164	41644.588795
507.883347	40837.817657
508.248472	41073.380694
508.613540	41568.762280
508.978550	41865.804708
509.343503	41630.987762
509.708398	41824.709222
510.073236	42346.768594
510.438016	42352.013915
510.802738	41806.692138
511.167403	42449.419089
511.532010	42650.891323
511.896561	42956.125627
512.261053	43821.164942
512.625488	43370.594173
512.989866	43237.933689
513.354186	43074.275150
513.718449	43067.739294
514.082655	43735.848454
514.446803	43412.617231
514.810894	43953.810302
515.174927	43854.804561
515.538904	43752.832101
515.902822	44422.332620
516.266684	43865.764030
516.630488	44297.130523
516.994235	44138.568591
517.357925	44716.239451
517.721558	44893.579682
518.085133	45202.138626
518.448651	45325.130177
518.812112	45097.607781
519.175516	45204.618874
519.538863	45532.414862
519.902152	45485.660680
520.265385	45949.766948
520.628560	45972.295864
520.991678	45778.423169
521.354739	46003.540936
521.717743	46316.329408
522.080690	46204.020062
522.443580	46742.737927
522.806413	46768.389838
523.169189	46735.992863
523.531908	46913.433917
523.894569	46758.806605
524.257174	46934.437884
524.619722	47220.624188
524.982213	47193.752318
525.344647	47120.882439
525.707025	47161.390630
526.069345	47567.911797
526.431608	47475.746902
526.793815	47808.974733
527.155964	47329.790375
527.518057	47484.969693
527.880093	47271.887682
528.242072	47789.543605
528.603995	47497.338164
528.965860	47484.001791
529.327669	47578.783045
529.689421	47479.522726
530.051117	47445.336141
530.412755	47592.401723
530.774337	47649.817944
531.135862	47445.494938
531.497331	47644.728899
531.858743	47537.047333
532.220098	47890.916168
532.581396	47588.197400
532.942638	47226.996207
533.303824	47557.330415
533.664953	47543.651244
534.026025	47244.478928
534.387040	47714.064929
534.747999	47660.159871
535.108902	47813.904981
535.469748	47317.275710
535.830537	47425.700847
536.191270	47617.932646
536.551947	47273.679812
536.912567	47589.104808
537.273131	47706.218373
537.633638	47189.207717
537.994089	47526.758338
538.354483	47119.833879
538.714821	47694.795119
539.075103	48044.512564
539.435328	47798.068197
539.795497	47664.739760
540.155609	47663.857558
540.515665	48138.991349
540.875665	47572.174093
541.235609	47897.245337
541.595496	47864.457672
541.955328	48545.474707
542.315102	47889.287875
542.674821	47659.630550
543.034483	47709.447233
543.394090	47697.023309
543.753640	47648.366092
544.113134	48646.249893
544.472571	47637.401582
544.831953	48890.813910
545.191278	48064.412519
545.550548	47796.361766
545.909761	48263.273435
546.268918	48453.733269
546.628019	48771.141959
546.987064	48312.051640
547.346053	47568.788958
547.704986	48452.077250
548.063863	48006.401441
548.422684	48182.037762
548.781449	48014.177421
549.140158	48413.025951
549.498811	48251.436806
549.857408	47672.397272
550.215949	48523.553249
550.574434	48444.419737
550.932864	48195.389257
551.291237	48903.860416
551.649555	48512.790386
552.007817	48752.817365
552.366022	48390.650790
552.724173	48549.351354
553.082267	48938.924162
553.440305	49212.058918
553.798288	48509.795941
554.156215	48833.090178
554.514086	49025.702584
554.871902	48755.494217
555.229661	48775.240417
555.587365	48600.236761
555.945014	48686.874031
556.302606	48609.575499
556.660143	48836.510601
557.017625	48886.453312
557.375050	48695.532213
557.732421	49031.144510
558.089735	48984.105503
558.446994	48902.753883
558.804197	49371.687055
559.161345	49263.463564
559.518437	48520.982261
559.875474	48833.301906
560.232455	48988.612295
560.589381	49154.040279
560.946251	48841.740798
561.303065	49513.010762
561.659825	49284.883427
562.016528	48969.435745
562.373177	48685.714566
562.729770	49150.415689
563.086307	48653.010080
563.442789	49100.830900
563.799216	49147.045678
564.155587	48922.484959
564.511904	48933.653635
564.868164	49020.094300
565.224370	49252.047871
565.580520	48979.563423
565.936615	49177.595070
566.292654	48870.568636
566.648638	49138.342126
567.004567	49082.108054
567.360441	49131.987751
567.716260	48986.787397
568.072023	49260.181773
568.427732	49208.225121
568.783385	48753.155122
569.138982	49141.220624
569.494525	49074.881560
569.850013	48824.338735
570.205445	48802.969284
570.560823	48737.023430
570.916145	48613.507599
571.271412	48648.977157
571.626625	48380.611332
571.981782	48400.954908
572.336884	48091.077702
572.691931	48393.292355
573.046923	48001.758538
573.401860	47816.423038
573.756743	47792.059141
574.111570	47872.989825
574.466342	47713.470073
574.821059	47822.495107
575.175722	47327.743666
575.530330	47332.822629
575.884882	47047.359730
576.239380	46983.281624
576.593823	46956.392109
576.948211	46877.976961
577.302544	46379.351393
577.656823	46386.865233
578.011047	46619.269987
578.365216	46352.940788
578.719330	46102.854187
579.073389	45950.213090
579.427394	46028.197219
579.781344	45979.550084
580.135239	45627.538914
580.489080	45681.728797
580.842866	45161.350651
581.196597	45597.723010
581.550273	45550.560495
581.903895	45408.709987
582.257463	45819.120404
582.610975	45181.036356
582.964434	45465.853987
583.317837	45093.620228
583.671186	44903.838430
584.024481	45128.994005
584.377721	44630.607891
584.730906	44911.281693
585.084037	44929.999498
585.437113	44651.478268
585.790135	44650.311241
586.143103	44242.265125
586.496016	44352.401734
586.848874	44371.933685
587.201679	44386.283329
587.554428	43850.146535
587.907124	44041.193663
588.259765	43775.217345
588.612352	44024.865366
588.964884	43385.276533
589.317362	43685.134446
589.669786	43611.032005
590.022155	43372.469482
590.374470	43766.619657
590.726731	43306.705109
591.078937	42787.244453
591.431090	42876.581260
591.783188	42530.899259
592.135232	42221.818555
592.487222	42447.647124
592.839157	42531.075699
593.191038	42197.033722
593.542866	41936.915225
593.894639	41332.254027
594.246358	41617.074178
594.598022	41590.885383
594.949633	41188.397140
595.301190	41133.304890
595.652692	40950.048865
596.004141	41271.863524
596.355535	40292.458073
596.706876	40230.275440
597.058162	40070.440616
597.409395	40516.938133
597.760573	40597.941913
598.111698	40184.433707
598.462768	40187.208863
598.813785	40224.684800
599.164748	39673.681644
599.515657	40039.936594
599.866511	39554.440711
600.217312	40140.815124
600.568060	39112.225655
600.918753	39870.810924
601.269392	39808.915637
601.619978	39465.056012
601.970510	39668.653093
602.320988	39841.292447
602.671412	40152.586218
603.021783	39895.479810
603.372100	39545.250688
603.722363	39642.373558
604.072572	39702.033093
604.422728	39719.818284
604.772830	39526.966423
605.122878	39636.135130
605.472872	39571.005943
605.822813	39836.495789
606.172701	39657.958285
606.522534	39924.647926
606.872314	40156.896404
607.222041	39928.640520
607.571714	40309.482049
607.921333	39754.776165
608.270899	40036.185976
608.620411	40390.740408
608.969870	40183.622082
609.319276	40178.631339
609.668627	40229.065563
610.017926	40706.775384
610.367171	40854.788702
610.716362	40934.380959
611.065500	40875.822916
611.414585	41075.450088
611.763616	41355.758406
612.112594	41290.616616
612.461518	41506.415810
612.810389	41817.601195
613.159207	41689.518079
613.507971	41761.863678
613.856682	42229.024884
614.205340	42112.720424
614.553945	42805.863954
614.902496	42266.639454
615.250994	42741.299376
615.599439	42784.980974
615.947830	43000.238244
616.296169	43071.275663
616.644454	43177.447404
616.992686	43355.427861
617.340864	43871.387437
617.688990	43589.539046
618.037063	44193.307960
618.385082	44154.425540
618.733048	44450.749604
619.080961	44455.127847
619.428821	44485.105068
619.776628	44578.457155
620.124382	44412.028502
620.472083	44522.424730
620.819731	44648.617413
621.167326	44313.942771
621.514868	44298.211851
621.862357	43840.170092
622.209793	43864.231519
622.557176	43515.313097
622.904506	43265.695323
623.251783	42917.800255
623.599007	42685.340048
623.946179	42472.888181
624.293297	42427.754731
624.640363	41831.822290
624.987376	41812.156749
625.334336	41562.158368
625.681243	41235.272309
626.028097	41185.720287
626.374899	41037.921218
626.721647	41036.280322
627.068343	40921.510893
627.414987	40688.367610
627.761577	40465.430143
628.108115	40791.197067
628.454600	40233.738713
628.801032	40453.041508
629.147412	40395.433722
629.493739	40403.308004
629.840014	40046.522862
630.186236	40389.888453
630.532405	39988.952885
630.878521	40198.851407
631.224585	40078.647614
631.570597	39781.645515
631.916556	39944.212644
632.262462	39890.413450
632.608316	39907.606306
632.954117	39804.340790
633.299866	39793.315786
633.645562	39718.527748
633.991206	39213.822549
634.336797	38777.798029
634.682336	38762.311604
635.027823	38526.993063
635.373257	38326.234153
