Dividing Wavelength (nm)	Counts (n)	Blue Motor Position (mm): 26.000000	Red Motor Position (mm): 0.000000	
326.493990	2100.298448
326.888308	2100.298448
327.282561	2100.298448
327.676750	2076.824315
328.070874	2077.671228
328.464933	2085.608525
328.858929	2095.012798
329.252859	2110.688266
329.646726	2123.649072
330.040528	2137.325723
330.434265	2158.238949
330.827938	2176.261074
331.221547	2196.372758
331.615091	2218.069884
332.008571	2239.774572
332.401986	2257.889958
332.795338	2277.610952
333.188625	2300.220527
333.581847	2318.159473
333.975006	2335.390137
334.368100	2354.685153
334.761129	2372.077134
335.154095	2385.980636
335.546996	2427.965886
335.939833	2504.311640
336.332606	2516.581809
336.725315	2528.554549
337.117960	2538.546116
337.510540	2544.179605
337.903056	2553.825853
338.295508	2560.744837
338.687896	2573.012485
339.080220	2575.417115
339.472480	2581.234607
339.864676	2583.424988
340.256807	2586.971440
340.648875	2590.139805
341.040879	2591.969744
341.432818	2588.803899
341.824694	2591.059816
342.216506	2591.332038
342.608253	2590.248190
342.999937	2588.415730
343.391557	2587.742736
343.783113	2587.959506
344.174605	2586.321131
344.566033	2585.270050
344.957397	2583.036819
345.348697	2581.526994
345.739934	2578.807291
346.131106	2577.705799
346.522215	2573.831672
346.913260	2576.349729
347.304241	2574.272773
347.695159	2572.299162
348.086012	2569.811352
348.476802	2568.419994
348.867528	2566.143913
349.258191	2567.401681
349.648789	2565.589386
350.039324	2562.184086
350.429796	2566.065775
350.820203	2565.118038
351.210548	2563.378840
351.600828	2560.923798
351.991045	2561.813562
352.381198	2560.034034
352.771288	2560.202913
353.161314	2560.510423
353.551276	2558.317521
353.941175	2558.199054
354.331010	2560.936401
354.720782	2561.160732
355.110490	2563.343552
355.500135	2559.154353
355.889717	2558.965310
356.279235	2560.749878
356.668689	2562.967986
357.058080	2562.065619
357.447408	2561.001936
357.836672	2560.165104
358.225873	2559.915567
358.615010	2556.482541
359.004084	2566.456464
359.393095	2566.368244
359.782043	2568.805642
360.170927	2568.619119
360.559748	2567.099211
360.948505	2565.531412
361.337199	2567.641135
361.725830	2569.342525
362.114398	2571.021229
362.502903	2569.851681
362.891344	2572.649522
363.279722	2567.489901
363.668037	2571.485015
364.056289	2570.048286
364.444478	2571.646332
364.832603	2572.266394
365.220665	2573.017526
365.608665	2572.838565
365.996601	2572.142886
366.384474	2571.154820
366.772284	2574.015674
367.160031	2577.599935
367.547715	2574.350911
367.935336	2577.370562
368.322893	2574.792012
368.710388	2579.311407
369.097820	2577.794019
369.485189	2576.732856
369.872495	2577.920048
370.259738	2575.681776
370.646918	2578.661098
371.034035	2579.908783
371.421090	2578.066242
371.808081	2580.523804
372.195010	2576.810994
372.581875	2581.559761
372.968678	2581.219483
373.355418	2579.876016
373.742096	2583.359453
374.128710	2582.187385
374.515262	2581.748804
374.901751	2583.916501
375.288177	2584.284505
375.674540	2584.103023
376.060841	2581.136304
376.447079	2583.089751
376.833254	2582.376428
377.219367	2580.753177
377.605417	2583.067066
377.991404	2581.494226
378.377329	2581.317786
378.763191	2581.857189
379.148991	2585.186871
379.534727	2585.943044
379.920402	2588.062850
380.306013	2586.754670
380.691563	2586.921028
381.077049	2587.563775
381.462474	2587.064701
381.847835	2588.546800
382.233134	2589.771801
382.618371	2587.009248
383.003545	2587.329362
383.388657	2591.200968
383.773706	2591.783221
384.158693	2591.858838
384.543618	2591.659713
384.928480	2593.633325
385.313280	2591.684919
385.698017	2592.090732
386.082692	2594.633994
386.467305	2594.046699
386.851856	2591.702563
387.236344	2591.097624
387.620770	2593.222471
388.005133	2592.027717
388.389435	2596.042996
388.773674	2594.374374
389.157851	2594.399580
389.541965	2595.155753
389.926018	2596.141299
390.310008	2596.232039
390.693936	2598.235898
391.077802	2596.163984
391.461606	2594.936463
391.845348	2598.329159
392.229027	2599.455857
392.612645	2598.233377
392.996200	2599.249170
393.379694	2600.065837
393.763125	2601.953749
394.146494	2601.006012
394.529801	2602.331836
394.913047	2600.869901
395.296230	2601.890735
395.679351	2604.731425
396.062410	2603.929881
396.445408	2602.236054
396.828343	2605.379213
397.211217	2598.682040
397.594028	2601.868049
397.976778	2601.558018
398.359466	2601.857967
398.742092	2600.416197
399.124656	2606.594131
399.507158	2606.919286
399.889598	2605.696806
400.271977	2607.146137
400.654294	2607.688062
401.036549	2609.149996
401.418742	2609.606221
401.800874	2608.000613
402.182944	2607.395675
402.564952	2609.863319
402.946898	2608.396344
403.328783	2611.121087
403.710606	2607.463730
404.092367	2611.186622
404.474067	2612.809874
404.855705	2612.303238
405.237282	2610.911879
405.618797	2614.060080
406.000250	2614.312138
406.381642	2613.445059
406.762972	2614.039915
407.144240	2615.325410
407.525447	2616.973867
407.906593	2617.094855
408.287677	2614.838938
408.668700	2614.596963
409.049661	2617.606532
409.430560	2616.550410
409.811399	2619.595267
410.192176	2619.307921
410.572891	2619.504526
410.953545	2623.361009
411.334138	2620.056532
411.714669	2619.756584
412.095139	2619.015534
412.475547	2617.319186
412.855894	2621.405041
413.236180	2620.008642
413.616405	2622.078035
413.996568	2619.353292
414.376670	2621.584002
414.756711	2622.758591
415.136691	2625.629528
415.516609	2623.804630
415.896466	2626.294960
416.276262	2627.303191
416.655997	2620.636265
417.035670	2620.837911
417.415283	2626.962913
417.794834	2624.059209
418.174324	2625.722789
418.553753	2628.737399
418.933121	2626.294960
419.312428	2626.446195
419.691674	2627.734210
420.070859	2630.035497
420.449983	2629.334776
420.829045	2629.934673
421.208047	2630.126237
421.586988	2631.956176
421.965867	2635.500107
422.344686	2633.745786
422.723444	2634.852319
423.102141	2632.172946
423.480777	2636.725108
423.859352	2636.077319
424.237866	2637.332567
424.616319	2637.516569
424.994712	2636.823410
425.373044	2641.289872
425.751314	2638.169398
426.129524	2638.464306
426.507673	2638.358442
426.885762	2640.848772
427.263789	2640.261477
427.641756	2639.873308
428.019662	2644.115439
428.397508	2642.633340
428.775292	2643.525624
429.153016	2644.309524
429.530679	2647.205667
429.908282	2643.475213
430.285824	2646.666263
430.663305	2644.034781
431.040726	2648.186171
431.418086	2646.696510
431.795385	2650.855462
432.172624	2648.264309
432.549802	2651.825884
432.926920	2652.927376
433.303977	2655.705052
433.680974	2654.469969
434.057910	2657.371153
434.434786	2660.915084
434.811601	2658.152532
435.188355	2663.128151
435.565050	2663.692760
435.941683	2664.469098
436.318257	2669.351455
436.694770	2664.423727
437.071222	2668.078564
437.447614	2668.552432
437.823946	2670.127793
438.200218	2673.757424
438.576429	2676.582991
438.952580	2678.032322
439.328670	2679.093485
439.704700	2683.653209
440.080670	2685.286543
440.456580	2685.168076
440.832429	2693.027234
441.208218	2687.282840
441.583947	2694.547142
441.959616	2693.748119
442.335224	2699.963862
442.710773	2705.604913
443.086261	2707.651622
443.461689	2711.187991
443.837057	2713.441387
444.212365	2722.228118
444.587612	2725.351113
444.962800	2730.278841
445.337927	2736.479460
445.712995	2737.696899
446.088002	2752.911101
446.462949	2763.744541
446.837837	2772.795932
447.212664	2783.720113
447.587431	2814.745894
447.962139	2849.454238
448.336786	2882.864485
448.711374	2884.225597
449.085901	2867.400746
449.460369	2882.229300
449.834776	2905.799215
450.209124	2954.458952
450.583412	2974.782364
450.957640	3000.986282
451.331808	3009.069772
451.705917	3018.726102
452.079965	3047.884136
452.453954	3083.484764
452.827883	3114.855865
453.201752	3145.548930
453.575562	3188.796989
453.949311	3252.310486
454.323001	3299.689771
454.696632	3344.394723
455.070202	3442.666976
455.443713	3505.812469
455.817164	3583.332812
456.190556	3668.424969
456.563888	3714.438100
456.937160	3791.615645
457.310373	3803.797593
457.683526	3890.243300
458.056619	3973.641628
458.429653	4057.118095
458.802628	4174.284592
459.175542	4279.717805
459.548398	4470.858194
459.921194	4692.442111
460.293930	4871.398032
460.666607	5161.382845
461.039224	5434.867962
461.411782	5600.542962
461.784280	5619.376713
462.156719	5705.645979
462.529099	5789.480367
462.901419	5804.654240
463.273680	5840.532132
463.645882	5997.430484
464.018024	6153.839844
464.390106	6425.711791
464.762130	6969.397713
465.134094	7766.197449
465.505999	8756.895085
465.877845	9673.016412
466.249631	10074.035159
466.621358	10008.074181
466.993026	9896.604188
467.364634	9796.859917
467.736184	9712.652484
468.107674	9740.948480
468.479105	9826.015431
468.850477	9939.862329
469.221790	9893.647551
469.593043	9774.058779
469.964238	9821.362446
470.335373	10034.570486
470.706449	10698.755108
471.077467	11622.808690
471.448425	13015.079601
471.819324	13985.685718
472.190164	13737.749169
472.560945	13097.005912
472.931667	12518.740196
473.302330	12505.247548
473.672934	12529.442566
474.043479	12974.042088
474.413965	13004.848579
474.784393	13154.346517
475.154761	13701.011761
475.525070	13984.581706
475.895321	14096.573459
476.265513	14571.137600
476.635645	15187.486713
477.005719	15435.977789
477.375734	15898.128088
477.745691	16449.952953
478.115588	17291.578629
478.485427	18455.969221
478.855207	20211.293949
479.224928	21687.905883
479.594591	22767.728599
479.964194	22660.281446
480.333739	23142.893789
480.703226	23591.584208
481.072653	24304.920080
481.442022	24932.185812
481.811333	25439.220024
482.180584	25157.550594
482.549777	25281.192454
482.918912	25395.344342
483.287988	25614.974812
483.657005	25540.542175
484.025964	25562.425824
484.394864	25945.747601
484.763706	26073.805512
485.132489	25947.065863
485.501213	26202.710336
485.869879	26645.517728
486.238487	26761.623063
486.607036	27214.013688
486.975527	27234.959683
487.343959	27703.371095
487.712333	28096.417258
488.080648	28368.266520
488.448905	28995.819598
488.817104	29213.204234
489.185244	30237.478475
489.553326	31757.938366
489.921350	33998.058257
490.289315	36481.116392
490.657222	37262.084384
491.025070	37856.990950
491.392861	37468.708678
491.760593	36863.450103
492.128267	35926.178615
492.495883	35131.591946
492.863440	34435.017910
493.230939	33744.606685
493.598380	33225.443457
493.965763	33290.539876
494.333088	32962.877479
494.700354	32874.813562
495.067563	32934.972172
495.434713	33105.287555
495.801805	33423.888478
496.168839	33397.619025
496.535815	33389.485123
496.902733	33677.468598
497.269593	33565.688574
497.636395	33791.872544
498.003139	34357.038822
498.369825	34140.647293
498.736453	34641.480887
499.103023	34486.997248
499.469535	34610.349241
499.835989	34916.619502
500.202385	34857.264957
500.568723	35090.577118
500.935003	35466.183409
501.301226	35490.506976
501.667390	36230.397126
502.033497	36670.089085
502.399546	36365.681531
502.765537	35964.844265
503.131470	36497.122056
503.497345	37024.565380
503.863163	36012.125247
504.228923	36763.698271
504.594625	37315.631521
504.960269	36818.470408
505.325856	37640.402816
505.691385	37218.357416
506.056856	37505.491457
506.422270	38087.338913
506.787625	37838.540327
507.152924	38185.936321
507.518164	38441.316133
507.883347	37822.060795
508.248472	38204.696975
508.613540	38814.764810
508.978550	39228.643541
509.343503	39123.842994
509.708398	39461.743974
510.073236	40087.484757
510.438016	40214.791536
510.802738	39815.522069
511.167403	40528.845338
511.532010	40862.902439
511.896561	41265.070569
512.261053	42189.043493
512.625488	41844.505833
512.989866	41833.115346
513.354186	41781.287244
513.718449	41870.387117
514.082655	42607.305507
514.446803	42370.643499
514.810894	42991.610309
515.174927	42978.185716
515.538904	42951.344092
515.902822	43699.428638
516.266684	43206.411354
516.630488	43692.290364
516.994235	43622.808141
517.357925	44259.765491
517.721558	44494.864742
518.085133	44856.625503
518.448651	45036.647628
518.812112	44857.174989
519.175516	45007.923133
519.538863	45395.328245
519.902152	45394.970323
520.265385	45908.673982
520.628560	45993.047774
520.991678	45806.058775
521.354739	46081.089005
521.717743	46437.541432
522.080690	46356.792230
522.443580	46929.598377
522.806413	47011.522168
523.169189	46995.181268
523.531908	47181.651028
523.894569	47046.578352
524.257174	47264.842669
524.619722	47579.274558
524.982213	47577.603415
525.344647	47518.803397
525.707025	47577.545442
526.069345	48004.190895
526.431608	47936.649516
526.793815	48268.365001
527.155964	47826.270932
527.518057	47991.020881
527.880093	47799.756983
528.242072	48345.161938
528.603995	48065.556861
528.965860	48045.525836
529.327669	48167.935134
529.689421	48098.566336
530.051117	48048.852997
530.412755	48219.274244
530.774337	48281.287998
531.135862	48102.768138
531.497331	48285.094070
531.858743	48203.074497
532.220098	48547.067712
532.581396	48258.620450
532.942638	47926.410932
533.303824	48247.197196
533.664953	48237.929034
534.026025	47946.147050
534.387040	48426.548847
534.747999	48372.608500
535.108902	48555.367971
535.469748	48046.574396
535.830537	48181.546249
536.191270	48372.694200
536.551947	48025.658649
536.912567	48345.494654
537.273131	48482.908947
537.633638	47948.934808
537.994089	48293.532961
538.354483	47882.699087
538.714821	48472.740939
539.075103	48810.795675
539.435328	48585.100697
539.795497	48467.024271
540.155609	48462.837593
540.515665	48928.796484
540.875665	48358.720122
541.235609	48705.453204
541.595496	48682.682312
541.955328	49372.738135
542.315102	48718.590451
542.674821	48485.792487
543.034483	48531.891318
543.394090	48505.158079
543.753640	48480.975664
544.113134	49472.434514
544.472571	48474.086927
544.831953	49725.835674
545.191278	48931.617009
545.550548	48647.696704
545.909761	49118.106934
546.268918	49318.651596
546.628019	49626.746754
546.987064	49174.136838
547.346053	48427.247046
547.704986	49311.997273
548.063863	48853.602633
548.422684	49029.274242
548.781449	48877.969050
549.140158	49290.582451
549.498811	49123.437954
549.857408	48545.903205
550.215949	49394.394932
550.574434	49325.247946
550.932864	49062.296320
551.291237	49792.096600
551.649555	49390.067102
552.007817	49629.831940
552.366022	49258.039282
552.724173	49438.371438
553.082267	49831.475574
553.440305	50101.973807
553.798288	49387.869159
554.156215	49720.597915
554.514086	49912.849879
554.871902	49660.822434
555.229661	49682.428819
555.587365	49484.364405
555.945014	49588.446588
556.302606	49516.479076
556.660143	49737.142982
557.017625	49806.693261
557.375050	49580.957954
557.732421	49938.486667
558.089735	49906.112377
558.446994	49820.092648
558.804197	50281.564912
559.161345	50198.479135
559.518437	49449.746802
559.875474	49755.903636
560.232455	49924.378998
560.589381	50108.736515
560.946251	49795.012908
561.303065	50458.078394
561.659825	50231.090360
562.016528	49903.715308
562.373177	49619.169900
562.729770	50100.075812
563.086307	49604.961408
563.442789	50058.025027
563.799216	50086.772207
564.155587	49878.416278
564.511904	49906.379558
564.868164	49989.881230
565.224370	50204.092460
565.580520	49932.134813
565.936615	50158.777528
566.292654	49860.689060
566.648638	50111.950250
567.004567	50071.915927
567.360441	50094.533064
567.716260	49950.338420
568.072023	50227.821171
568.427732	50199.920905
568.783385	49739.683724
569.138982	50118.866713
569.494525	50062.675492
569.850013	49826.124389
570.205445	49794.435696
570.560823	49730.045038
570.916145	49606.703127
571.271412	49638.243106
571.626625	49371.618999
571.981782	49422.789231
572.336884	49100.099933
572.691931	49408.777344
573.046923	49008.401344
573.401860	48844.561323
573.756743	48815.506633
574.111570	48907.520294
574.466342	48748.222353
574.821059	48853.385863
575.175722	48369.266215
575.530330	48396.732942
575.884882	48066.970904
576.239380	48031.450934
576.593823	48001.856841
576.948211	47911.408458
577.302544	47410.090914
577.656823	47427.508101
578.011047	47668.225717
578.365216	47368.990387
578.719330	47133.351733
579.073389	46976.034965
579.427394	47063.501505
579.781344	47002.828698
580.135239	46639.868142
580.489080	46705.514047
580.842866	46181.597010
581.196597	46628.694424
581.550273	46555.829586
581.903895	46416.300530
582.257463	46835.880806
582.610975	46186.446600
582.964434	46485.623957
583.317837	46090.770541
583.671186	45925.072855
584.024481	46138.366595
584.377721	45641.787736
584.730906	45937.794207
585.084037	45975.738972
585.437113	45673.715883
585.790135	45689.315734
586.143103	45291.762780
586.496016	45394.955199
586.848874	45414.575370
587.201679	45417.272387
587.554428	44887.782355
587.907124	45069.102576
588.259765	44817.370038
588.612352	45058.480865
588.964884	44417.548565
589.317362	44718.157610
589.669786	44646.648843
590.022155	44392.466304
590.374470	44813.677393
590.726731	44341.941340
591.078937	43832.079040
591.431090	43958.392711
591.783188	43585.425464
592.135232	43248.010955
592.487222	43514.561965
592.839157	43576.802571
593.191038	43230.266094
593.542866	42977.384173
593.894639	42342.075280
594.246358	42650.399811
594.598022	42622.746561
594.949633	42212.701628
595.301190	42153.268945
595.652692	41995.299348
596.004141	42324.655573
596.355535	41319.499907
596.706876	41262.171906
597.058162	41099.617379
597.409395	41566.592063
597.760573	41632.295942
598.111698	41220.950391
598.462768	41225.487429
598.813785	41255.242840
599.164748	40700.993180
599.515657	41062.058263
599.866511	40561.159134
600.217312	41177.357013
600.568060	40133.339093
600.918753	40882.951108
601.269392	40835.113078
601.619978	40477.564201
601.970510	40691.147807
602.320988	40868.873686
602.671412	41174.725531
603.021783	40920.696747
603.372100	40574.427451
603.722363	40668.329024
604.072572	40739.870559
604.422728	40758.830338
604.772830	40559.926572
605.122878	40659.179330
605.472872	40591.988311
605.822813	40862.320186
606.172701	40692.929855
606.522534	40943.480242
606.872314	41206.686446
607.222041	40931.225197
607.571714	41327.906031
607.921333	40772.302822
608.270899	41065.755949
608.620411	41413.920719
608.969870	41191.298324
609.319276	41196.011803
609.668627	41245.185738
610.017926	41728.680283
610.367171	41884.139385
610.716362	41956.096815
611.065500	41887.569890
611.414585	42088.696805
611.763616	42387.468350
612.112594	42326.830831
612.461518	42528.446737
612.810389	42843.498688
613.159207	42697.292624
613.507971	42780.345633
613.856682	43246.344854
614.205340	43147.626459
614.553945	43848.137635
614.902496	43279.041778
615.250994	43754.636834
615.599439	43827.199203
615.947830	44013.308521
616.296169	44089.389614
616.644454	44185.995766
616.992686	44363.184762
617.340864	44882.665584
617.688990	44577.481692
618.037063	45197.341968
618.385082	45148.087375
618.733048	45440.968331
619.080961	45447.854547
619.428821	45471.061499
619.776628	45583.494353
620.124382	45415.447490
620.472083	45566.361992
620.819731	45678.668817
621.167326	45349.042891
621.514868	45342.675913
621.862357	44905.809521
622.209793	44941.452999
622.557176	44590.255975
622.904506	44338.384806
623.251783	43992.947300
623.599007	43770.637457
623.946179	43540.692786
624.293297	43496.312988
624.640363	42898.091864
624.987376	42879.737023
625.334336	42642.182730
625.681243	42283.507154
626.028097	42237.362953
626.374899	42083.428799
626.721647	42064.327868
627.068343	41939.478651
627.414987	41712.520864
627.761577	41476.993115
628.108115	41823.532113
628.454600	41249.092632
628.801032	41450.491769
629.147412	41389.854250
629.493739	41381.092725
629.840014	41020.269618
630.186236	41358.278983
630.532405	40943.160129
630.878521	41150.512869
631.224585	41047.602754
631.570597	40733.390155
631.916556	40898.361915
632.262462	40834.256082
632.608316	40859.106450
632.954117	40748.465726
633.299866	40736.941648
633.645562	40672.634169
633.991206	40180.811638
634.336797	39731.758257
634.682336	39745.139999
635.027823	39493.236062
635.373257	39295.597626
635.718639	39065.670599
636.063968	38939.979510
636.409245	38324.096703
636.754470	38391.499451
637.099642	38161.244749
637.444762	37656.789087
