Dividing Wavelength (nm)	Counts (n)	Blue Motor Position (mm): 9.800000	Red Motor Position (mm): 0.000000	
326.493990	2060.823692
326.888308	2060.823692
327.282561	2060.823692
327.676750	2034.158509
328.070874	2040.122194
328.464933	2043.782072
328.858929	2052.987219
329.252859	2064.531461
329.646726	2076.405899
330.040528	2093.802921
330.434265	2108.384458
330.827938	2132.937398
331.221547	2153.021355
331.615091	2171.474499
332.008571	2193.922757
332.401986	2212.872454
332.795338	2233.289127
333.188625	2253.148753
333.581847	2272.640374
333.975006	2290.259207
334.368100	2307.073975
334.761129	2324.970072
335.154095	2340.085971
335.546996	2373.039994
335.939833	2428.323808
336.332606	2438.524582
336.725315	2451.142591
337.117960	2463.891669
337.510540	2473.487505
337.903056	2481.477734
338.295508	2486.067704
338.687896	2493.765546
339.080220	2493.813437
339.472480	2501.037411
339.864676	2507.031343
340.256807	2511.649040
340.648875	2510.582836
341.040879	2510.391272
341.432818	2513.010151
341.824694	2517.206912
342.216506	2514.225069
342.608253	2514.517456
342.999937	2513.388238
343.391557	2510.325737
343.783113	2508.871364
344.174605	2508.304234
344.566033	2507.076713
344.957397	2504.087309
345.348697	2503.437000
345.739934	2501.080261
346.131106	2500.470281
346.522215	2498.020280
346.913260	2498.970538
347.304241	2496.684374
347.695159	2494.292347
348.086012	2494.189003
348.476802	2489.914105
348.867528	2486.397900
349.258191	2484.610811
349.648789	2484.404124
350.039324	2481.790285
350.429796	2486.599546
350.820203	2485.215749
351.210548	2485.515698
351.600828	2484.615852
351.991045	2483.587457
352.381198	2482.279277
352.771288	2483.400934
353.161314	2481.792806
353.551276	2481.603763
353.941175	2477.119656
354.331010	2480.285501
354.720782	2484.283136
355.110490	2484.696511
355.500135	2483.411016
355.889717	2481.805409
356.279235	2481.717189
356.668689	2482.453197
357.058080	2484.063846
357.447408	2481.205512
357.836672	2484.119298
358.225873	2485.500575
358.615010	2484.799854
359.004084	2485.729947
359.393095	2484.930924
359.782043	2487.204485
360.170927	2489.052068
360.559748	2488.222798
360.948505	2486.171048
361.337199	2489.004177
361.725830	2487.607777
362.114398	2487.693477
362.502903	2487.915287
362.891344	2489.815802
363.279722	2488.220277
363.668037	2489.583909
364.056289	2487.547283
364.444478	2490.927377
364.832603	2491.857470
365.220665	2491.313025
365.608665	2492.018787
365.996601	2492.288488
366.384474	2492.727069
366.772284	2493.631956
367.160031	2493.778149
367.547715	2494.214209
367.935336	2494.680516
368.322893	2493.828561
368.710388	2491.015597
369.097820	2493.294198
369.485189	2491.681029
369.872495	2496.114724
370.259738	2494.549446
370.646918	2495.139261
371.034035	2493.057264
371.421090	2495.003150
371.808081	2494.183962
372.195010	2497.740496
372.581875	2496.913747
372.968678	2492.991729
373.355418	2496.394508
373.742096	2498.940291
374.128710	2498.710918
374.515262	2498.968017
374.901751	2497.904334
375.288177	2500.326608
375.674540	2499.134375
376.060841	2499.116731
376.447079	2497.972389
376.833254	2498.002636
377.219367	2500.480363
377.605417	2502.559839
377.991404	2497.932060
378.377329	2499.169663
378.763191	2500.553460
379.148991	2500.855929
379.534727	2501.780981
379.920402	2500.553460
380.306013	2502.980776
380.691563	2502.832062
381.077049	2500.956752
381.462474	2497.657317
381.847835	2498.032883
382.233134	2502.146465
382.618371	2499.855260
383.003545	2503.041269
383.388657	2500.903820
383.773706	2503.409274
384.158693	2501.138234
384.543618	2505.244254
384.928480	2504.450272
385.313280	2502.879953
385.698017	2504.417504
386.082692	2505.327433
386.467305	2503.653770
386.851856	2505.150992
387.236344	2504.994717
387.620770	2506.633092
388.005133	2499.192348
388.389435	2502.600168
388.773674	2499.391474
389.157851	2506.529748
389.541965	2505.760972
389.926018	2506.396157
390.310008	2507.172495
390.693936	2509.032681
391.077802	2508.342043
391.461606	2505.390447
391.845348	2506.126456
392.229027	2505.997906
392.612645	2506.796929
392.996200	2505.362721
393.379694	2507.462361
393.763125	2507.205262
394.146494	2508.352125
394.529801	2510.267763
394.913047	2506.010509
395.296230	2508.425222
395.679351	2510.025788
396.062410	2509.728360
396.445408	2509.677948
396.828343	2508.362207
397.211217	2507.411950
397.594028	2509.433452
397.976778	2509.647702
398.359466	2509.342712
398.742092	2510.088802
399.124656	2510.741632
399.507158	2510.045953
399.889598	2512.271622
400.271977	2507.855571
400.654294	2508.473113
401.036549	2511.064266
401.418742	2508.722650
401.800874	2512.382527
402.182944	2512.823628
402.564952	2513.065604
402.946898	2511.122239
403.328783	2511.633916
403.710606	2513.965450
404.092367	2512.369925
404.474067	2513.889833
404.855705	2513.975532
405.237282	2510.328257
405.618797	2512.921931
406.000250	2515.482837
406.381642	2513.131139
406.762972	2514.905625
407.144240	2508.795747
407.525447	2512.238855
407.906593	2509.226765
408.287677	2513.731036
408.668700	2512.720285
409.049661	2516.423012
409.430560	2514.605676
409.811399	2515.858403
410.192176	2513.456293
410.572891	2516.886798
410.953545	2516.143228
411.334138	2515.369411
411.714669	2515.944103
412.095139	2515.109792
412.475547	2515.366891
412.855894	2516.571726
413.236180	2515.409740
413.616405	2517.385873
413.996568	2517.723630
414.376670	2514.164575
414.756711	2518.994001
415.136691	2517.101047
415.516609	2516.571726
415.896466	2517.592560
416.276262	2515.608866
416.655997	2515.757580
417.035670	2516.309586
417.415283	2518.154649
417.794834	2517.403517
418.174324	2515.971829
418.553753	2517.136336
418.933121	2517.237159
419.312428	2517.922756
419.691674	2518.774711
420.070859	2517.763959
420.449983	2517.849659
420.829045	2517.237159
421.208047	2518.073990
421.586988	2515.528208
421.965867	2519.142715
422.344686	2519.198167
422.723444	2518.646161
423.102141	2517.693383
423.480777	2519.178003
423.859352	2517.922756
424.237866	2518.459638
424.616319	2518.999042
424.994712	2517.469052
425.373044	2520.927283
425.751314	2516.962416
426.129524	2514.141890
426.507673	2516.594412
426.885762	2512.158196
427.263789	2519.614063
427.641756	2517.930317
428.019662	2522.326203
428.397508	2516.092817
428.775292	2517.761439
429.153016	2518.782272
429.530679	2520.458456
429.908282	2517.378311
430.285824	2520.032478
430.663305	2519.966943
431.040726	2519.339320
431.418086	2517.983249
431.795385	2518.726820
432.172624	2518.542817
432.549802	2518.893178
432.926920	2517.141377
433.303977	2519.009124
433.680974	2516.848990
434.057910	2519.165400
434.434786	2521.146573
434.811601	2518.820081
435.188355	2520.087931
435.565050	2516.722961
435.941683	2519.679598
436.318257	2518.076511
436.694770	2519.425019
437.071222	2520.876872
437.447614	2520.128260
437.823946	2520.788652
438.200218	2520.042561
438.576429	2519.296470
438.952580	2520.246727
439.328670	2521.847294
439.704700	2519.561131
440.080670	2519.669515
440.456580	2519.054495
440.832429	2521.814526
441.208218	2520.569361
441.583947	2520.871831
441.959616	2520.034999
442.335224	2518.628517
442.710773	2521.917870
443.086261	2523.142870
443.461689	2518.968795
443.837057	2521.698580
444.212365	2521.229753
444.587612	2518.988960
444.962800	2518.696573
445.337927	2518.305883
445.712995	2516.503671
446.088002	2519.248579
446.462949	2521.315452
446.837837	2519.109947
447.212664	2521.431399
447.587431	2521.040709
447.962139	2521.854856
448.336786	2519.515760
448.711374	2518.943589
449.085901	2523.067253
449.460369	2521.063394
449.834776	2521.234794
450.209124	2520.576923
450.583412	2523.737727
450.957640	2523.891482
451.331808	2522.091790
451.705917	2521.698580
452.079965	2519.097344
452.453954	2522.439629
452.827883	2521.650689
453.201752	2520.292098
453.575562	2522.144722
453.949311	2521.988446
454.323001	2521.234794
454.696632	2520.002232
455.070202	2522.623632
455.443713	2521.469207
455.817164	2519.611542
456.190556	2521.708662
456.563888	2523.324352
456.937160	2519.795544
457.310373	2525.822244
457.683526	2519.417458
458.056619	2521.028106
458.429653	2520.818898
458.802628	2525.267717
459.175542	2521.040709
459.548398	2523.841070
459.921194	2523.316790
460.293930	2524.065402
460.666607	2522.558097
461.039224	2521.658251
461.411782	2519.951820
461.784280	2523.367202
462.156719	2522.825278
462.529099	2522.190092
462.901419	2520.753363
463.273680	2518.494927
463.645882	2519.183044
464.018024	2520.503826
464.390106	2516.990142
464.762130	2524.332583
465.134094	2523.231091
465.505999	2523.112623
465.877845	2523.253776
466.249631	2523.256296
466.621358	2523.110103
466.993026	2523.004239
467.364634	2527.667306
467.736184	2524.249404
468.107674	2524.781245
468.479105	2523.228570
468.850477	2524.158663
469.221790	2525.013138
469.593043	2520.440812
469.964238	2523.402490
470.335373	2522.530370
470.706449	2523.909126
471.077467	2522.772346
471.448425	2526.636390
471.819324	2525.373581
472.190164	2524.380474
472.560945	2524.269568
472.931667	2524.904754
473.302330	2523.762932
473.672934	2527.072450
474.043479	2525.945752
474.413965	2523.173117
474.784393	2523.125226
475.154761	2528.020187
475.525070	2525.048427
475.895321	2524.806451
476.265513	2525.378622
476.635645	2526.361647
477.005719	2524.428365
477.375734	2526.444826
477.745691	2527.427851
478.115588	2526.722090
478.485427	2524.536749
478.855207	2529.298119
479.224928	2527.861390
479.594591	2528.025228
479.964194	2523.921729
480.333739	2526.838036
480.703226	2527.455578
481.072653	2528.063037
481.442022	2527.213602
481.811333	2525.875176
482.180584	2524.032634
482.549777	2524.599764
482.918912	2523.904085
483.287988	2528.352903
483.657005	2525.219826
484.025964	2529.184693
484.394864	2525.633200
484.763706	2528.332738
485.132489	2524.730834
485.501213	2526.835516
485.869879	2524.612367
486.238487	2525.658406
486.607036	2527.213602
486.975527	2527.291740
487.343959	2527.715197
487.712333	2527.795855
488.080648	2528.458767
488.448905	2527.448016
488.817104	2529.555218
489.185244	2530.434899
489.553326	2530.510517
489.921350	2531.760723
490.289315	2531.634694
490.657222	2529.784591
491.025070	2529.580424
491.392861	2530.916330
491.760593	2530.336597
492.128267	2529.663603
492.495883	2528.252080
492.863440	2529.537574
493.230939	2527.818541
493.598380	2527.586647
493.965763	2527.337110
494.333088	2530.341638
494.700354	2525.562624
495.067563	2527.677388
495.434713	2527.533715
495.801805	2527.697553
496.168839	2529.996319
496.535815	2530.482790
496.902733	2527.105217
497.269593	2527.337110
497.636395	2530.596216
498.003139	2530.807945
498.369825	2531.102852
498.736453	2528.693181
499.103023	2529.764426
499.469535	2528.136133
499.835989	2529.461957
500.202385	2527.974816
500.568723	2528.549508
500.935003	2525.469363
501.301226	2524.398118
501.667390	2529.918181
502.033497	2531.180990
502.399546	2530.318953
502.765537	2528.166380
503.131470	2526.976668
503.497345	2529.272913
503.863163	2526.921215
504.228923	2527.856349
504.594625	2530.820548
504.960269	2530.928932
505.325856	2531.029756
505.691385	2528.741072
506.056856	2531.836340
506.422270	2530.003881
506.787625	2529.976154
507.152924	2530.291227
507.518164	2528.529343
507.883347	2527.082532
508.248472	2530.432379
508.613540	2530.669313
508.978550	2531.526309
509.343503	2531.488501
509.708398	2531.669982
510.073236	2533.956145
510.438016	2529.038500
510.802738	2529.875331
511.167403	2531.294416
511.532010	2530.223171
511.896561	2534.934129
512.261053	2531.634694
512.625488	2532.847092
512.989866	2528.637728
513.354186	2534.533358
513.718449	2531.458254
514.082655	2533.941022
514.446803	2530.893644
514.810894	2532.998326
515.174927	2535.607123
515.538904	2534.361958
515.902822	2536.305323
516.266684	2535.100487
516.630488	2538.556198
516.994235	2536.448996
517.357925	2537.472350
517.721558	2538.878832
518.085133	2537.716846
518.448651	2535.982689
518.812112	2536.224665
519.175516	2538.533513
519.538863	2535.831455
519.902152	2539.352701
520.265385	2539.040149
520.628560	2541.369162
520.991678	2541.008720
521.354739	2543.554502
521.717743	2541.369162
522.080690	2544.230017
522.443580	2545.606252
522.806413	2544.101467
523.169189	2546.395193
523.531908	2546.372507
523.894569	2548.217570
524.257174	2547.988197
524.619722	2550.476007
524.982213	2549.364432
525.344647	2552.963816
525.707025	2553.460370
526.069345	2553.094886
526.431608	2553.049516
526.793815	2553.236038
527.155964	2554.962633
527.518057	2555.854918
527.880093	2559.547563
528.242072	2555.650751
528.603995	2557.450443
528.965860	2559.144271
529.327669	2558.448591
529.689421	2562.383212
530.051117	2564.187945
530.412755	2560.941442
530.774337	2564.213151
531.135862	2563.590568
531.497331	2566.471588
531.858743	2564.810527
532.220098	2566.789180
532.581396	2568.987123
532.942638	2569.735735
533.303824	2570.902762
533.664953	2571.265725
534.026025	2572.294120
534.387040	2570.030642
534.747999	2571.721949
535.108902	2575.265881
535.469748	2576.087589
535.830537	2577.526838
536.191270	2578.008268
536.551947	2575.674214
536.912567	2576.523648
537.273131	2578.555233
537.633638	2576.470716
537.994089	2585.035637
538.354483	2588.095617
538.714821	2586.610997
539.075103	2588.791296
539.435328	2588.511512
539.795497	2589.456729
540.155609	2592.042841
540.515665	2591.042172
540.875665	2592.569641
541.235609	2592.171390
541.595496	2595.392687
541.955328	2596.474015
542.315102	2596.234560
542.674821	2598.011567
543.034483	2596.680702
543.394090	2597.865373
543.753640	2597.058789
544.113134	2602.268821
544.472571	2602.299068
544.831953	2604.925509
545.191278	2605.795108
545.550548	2604.502052
545.909761	2606.445417
546.268918	2609.197887
546.628019	2610.337188
546.987064	2607.400716
547.346053	2607.725870
547.704986	2609.787702
548.063863	2609.149996
548.422684	2609.583535
548.781449	2611.632764
549.140158	2613.871037
549.498811	2614.276850
549.857408	2613.129987
550.215949	2615.063270
550.574434	2615.469083
550.932864	2616.313476
551.291237	2615.433794
551.649555	2619.222222
552.007817	2618.070318
552.366022	2616.845317
552.724173	2620.646347
553.082267	2619.738940
553.440305	2622.146091
553.798288	2619.854886
554.156215	2618.198867
554.514086	2620.001080
554.871902	2617.924124
555.229661	2620.265740
555.587365	2618.173662
555.945014	2624.117182
556.302606	2625.243880
556.660143	2623.895371
557.017625	2624.880917
557.375050	2625.175824
557.732421	2625.740433
558.089735	2625.178345
558.446994	2625.808489
558.804197	2627.351082
559.161345	2629.286885
559.518437	2626.932666
559.875474	2626.226905
560.232455	2629.143212
560.589381	2628.127420
560.946251	2627.348562
561.303065	2630.038017
561.659825	2629.475928
562.016528	2629.049951
562.373177	2628.591206
562.729770	2629.924591
563.086307	2632.082205
563.442789	2629.725466
563.799216	2631.348717
564.155587	2630.733696
564.511904	2628.487862
564.868164	2627.976185
565.224370	2632.992133
565.580520	2630.640435
565.936615	2634.018008
566.292654	2631.358799
566.648638	2631.515075
567.004567	2631.729324
567.360441	2633.327370
567.716260	2630.952987
568.072023	2634.902731
568.427732	2631.719242
568.783385	2631.620939
569.138982	2632.936681
569.494525	2633.516413
569.850013	2633.728142
570.205445	2633.372740
570.560823	2634.875004
570.916145	2630.048099
571.271412	2632.969448
571.626625	2633.032462
571.981782	2632.099849
572.336884	2630.723614
572.691931	2630.035497
573.046923	2630.670682
573.401860	2627.005763
573.756743	2631.595734
574.111570	2631.305867
574.466342	2630.874849
574.821059	2632.319139
575.175722	2632.452730
575.530330	2634.630508
575.884882	2630.380816
576.239380	2632.939201
576.593823	2630.980713
576.948211	2633.629839
577.302544	2630.799231
577.656823	2632.898872
578.011047	2633.370220
578.365216	2633.284520
578.719330	2632.520785
579.073389	2631.583131
579.427394	2631.923409
579.781344	2631.366361
580.135239	2633.264356
580.489080	2633.924747
580.842866	2631.671351
581.196597	2635.734521
581.550273	2636.006743
581.903895	2635.469860
582.257463	2635.820221
582.610975	2633.390384
582.964434	2636.520941
583.317837	2634.501959
583.671186	2636.752834
584.024481	2635.830303
584.377721	2634.310395
584.730906	2634.252422
585.084037	2638.910448
585.437113	2639.222999
585.790135	2638.829789
586.143103	2638.665952
586.496016	2639.926240
586.848874	2641.678041
587.201679	2643.439925
587.554428	2642.154430
587.907124	2644.168371
588.259765	2646.797333
588.612352	2643.911272
588.964884	2644.044863
589.317362	2647.392189
589.669786	2647.677014
590.022155	2645.481592
590.374470	2647.734988
590.726731	2647.616521
591.078937	2647.026706
591.431090	2652.372849
591.783188	2652.922335
592.135232	2652.145997
592.487222	2657.444250
592.839157	2657.852583
593.191038	2655.097593
593.542866	2659.148160
593.894639	2657.451812
594.246358	2660.985661
594.598022	2665.852895
594.949633	2665.933553
595.301190	2665.550425
595.652692	2667.370282
596.004141	2673.374296
596.355535	2671.032680
596.706876	2672.050993
597.058162	2673.021415
597.409395	2676.363700
597.760573	2679.549710
598.111698	2680.220183
598.462768	2682.060204
598.813785	2686.539269
599.164748	2686.693025
599.515657	2692.190403
599.866511	2691.741740
600.217312	2695.091587
600.568060	2693.745599
600.918753	2704.510983
601.269392	2706.388813
601.619978	2707.334029
601.970510	2713.955585
602.320988	2718.527911
602.671412	2722.714589
603.021783	2722.276009
603.372100	2728.136350
603.722363	2728.282544
604.072572	2735.115828
604.422728	2740.267887
604.772830	2741.576067
605.122878	2748.323651
605.472872	2751.756677
605.822813	2757.223808
606.172701	2761.251690
606.522534	2769.224275
606.872314	2775.825666
607.222041	2782.401851
607.571714	2789.154477
607.921333	2787.647172
608.270899	2797.807617
608.620411	2802.639563
608.969870	2811.723722
609.319276	2821.591781
609.668627	2826.027996
610.017926	2838.976200
610.367171	2847.490709
610.716362	2857.005887
611.065500	2861.419417
611.414585	2874.407950
611.763616	2882.683004
612.112594	2894.567524
612.461518	2901.148750
612.810389	2913.665935
613.159207	2923.193716
613.507971	2934.909358
613.856682	2948.845628
614.205340	2958.638069
614.553945	2978.348980
614.902496	2981.618169
615.250994	2998.072495
615.599439	3013.737880
615.947830	3030.076260
616.296169	3043.289124
616.644454	3059.577092
616.992686	3075.371027
617.340864	3100.261724
617.688990	3109.786985
618.037063	3136.376551
618.385082	3152.067142
618.733048	3176.138652
619.080961	3193.644058
619.428821	3208.701985
619.776628	3225.771332
620.124382	3240.007550
620.472083	3255.345261
620.819731	3272.230606
621.167326	3283.333747
621.514868	3294.315901
621.862357	3298.734472
622.209793	3313.898263
622.557176	3319.851865
622.904506	3326.423009
623.251783	3332.353927
623.599007	3344.636698
623.946179	3357.683204
624.293297	3372.582335
624.640363	3377.250443
624.987376	3386.332082
625.334336	3400.525450
625.681243	3410.937954
626.028097	3425.637958
626.374899	3445.916000
626.721647	3464.981643
627.068343	3482.290445
627.414987	3495.417610
627.761577	3514.868902
628.108115	3542.043242
628.454600	3546.955846
628.801032	3574.967017
629.147412	3596.275975
629.493739	3618.552834
629.840014	3631.783342
630.186236	3670.325484
630.532405	3682.716640
630.878521	3714.856516
631.224585	3738.300402
631.570597	3755.906632
631.916556	3790.262095
632.262462	3812.511228
632.608316	3836.686081
632.954117	3860.243393
633.299866	3887.216087
633.645562	3908.361207
633.991206	3910.518820
634.336797	3919.923093
634.682336	3935.427162
635.027823	3948.642546
635.373257	3963.783652
635.718639	3967.100731
636.063968	3992.354391
636.409245	3984.757372
636.754470	4008.438193
637.099642	4020.821787
637.444762	4019.823639
637.789829	4053.354873
638.134845	4061.284608
638.479808	4084.927620
638.824719	4103.776494
639.169577	4112.117083
639.514383	4138.973830
639.859137	4147.019512
640.203839	4183.033515
640.548489	4196.483313
640.893086	4223.539186
641.237632	4236.656268
641.582125	4271.818317
641.926566	4287.849186
642.270955	4315.147034
642.615292	4342.296168
642.959576	4366.589488
643.303809	4394.676277
643.647990	4432.989046
643.992118	4463.636741
644.336195	4487.332685
