Dividing Wavelength (nm)	Counts (n)	Blue Motor Position (mm): 34.500000	Red Motor Position (mm): 0.000000	
326.493990	2129.630401
326.888308	2129.630401
327.282561	2129.630401
327.676750	2097.074630
328.070874	2095.958014
328.464933	2099.932964
328.858929	2103.751638
329.252859	2114.191868
329.646726	2129.363220
330.040528	2140.239509
330.434265	2157.694505
330.827938	2172.439880
331.221547	2191.351768
331.615091	2208.940354
332.008571	2231.343242
332.401986	2252.637076
332.795338	2269.792122
333.188625	2289.364402
333.581847	2306.824438
333.975006	2326.179948
334.368100	2344.978411
334.761129	2363.804600
335.154095	2377.239275
335.546996	2401.088974
335.939833	2426.650145
336.332606	2438.849737
336.725315	2452.329782
337.117960	2463.483335
337.510540	2468.766464
337.903056	2484.628455
338.295508	2485.576192
338.687896	2495.214878
339.080220	2505.123266
339.472480	2513.494102
339.864676	2517.043074
340.256807	2518.663805
340.648875	2522.016173
341.040879	2528.370547
341.432818	2526.928777
341.824694	2530.203006
342.216506	2527.836185
342.608253	2531.443130
342.999937	2531.642256
343.391557	2527.997502
343.783113	2529.940866
344.174605	2525.418951
344.566033	2525.625639
344.957397	2524.662778
345.348697	2522.575741
345.739934	2519.435102
346.131106	2518.386542
346.522215	2516.841428
346.913260	2517.529546
347.304241	2515.271109
347.695159	2512.800943
348.086012	2509.592249
348.476802	2507.379182
348.867528	2506.925478
349.258191	2505.042608
349.648789	2503.472288
350.039324	2503.227792
350.429796	2504.677124
350.820203	2500.472802
351.210548	2498.685713
351.600828	2498.786536
351.991045	2501.218892
352.381198	2498.073212
352.771288	2499.542709
353.161314	2495.086329
353.551276	2495.769405
353.941175	2498.748727
354.331010	2496.767553
354.720782	2497.972389
355.110490	2494.814106
355.500135	2495.834940
355.889717	2498.547081
356.279235	2495.988695
356.668689	2499.527585
357.058080	2497.622029
357.447408	2496.512975
357.836672	2495.484580
358.225873	2495.189672
358.615010	2494.103304
359.004084	2499.870384
359.393095	2500.442555
359.782043	2500.301402
360.170927	2502.416166
360.559748	2503.840292
360.948505	2503.258039
361.337199	2504.495642
361.725830	2501.584376
362.114398	2503.568070
362.502903	2505.284583
362.891344	2503.661331
363.279722	2506.507063
363.668037	2506.832217
364.056289	2506.527227
364.444478	2505.403050
364.832603	2505.766013
365.220665	2507.628719
365.608665	2508.460510
365.996601	2507.913545
366.384474	2509.809018
366.772284	2506.938081
367.160031	2508.452948
367.547715	2506.960767
367.935336	2510.091323
368.322893	2510.073679
368.710388	2509.945130
369.097820	2512.178361
369.485189	2511.414626
369.872495	2509.125942
370.259738	2510.350943
370.646918	2512.478309
371.034035	2510.335819
371.421090	2514.915707
371.808081	2511.830521
372.195010	2512.410254
372.581875	2513.325223
372.968678	2511.744822
373.355418	2510.708864
373.742096	2513.274812
374.128710	2514.469565
374.515262	2515.868485
374.901751	2515.936541
375.288177	2513.126098
375.674540	2516.508712
376.060841	2512.808505
376.447079	2516.299504
376.833254	2516.793537
377.219367	2512.581653
377.605417	2514.940913
377.991404	2510.539986
378.377329	2513.662981
378.763191	2514.620800
379.148991	2515.061901
379.534727	2517.043074
379.920402	2519.137674
380.306013	2515.669360
380.691563	2516.203722
381.077049	2518.331089
381.462474	2519.508198
381.847835	2517.756398
382.233134	2517.889988
382.618371	2515.341685
383.003545	2519.969464
383.388657	2520.319824
383.773706	2520.387880
384.158693	2520.587005
384.543618	2521.259999
384.928480	2521.144053
385.313280	2522.273271
385.698017	2521.665812
386.082692	2521.330576
386.467305	2525.292922
386.851856	2524.748478
387.236344	2522.560617
387.620770	2524.730834
388.005133	2523.251255
388.389435	2526.127233
388.773674	2522.898374
389.157851	2523.891482
389.541965	2524.680422
389.926018	2525.403828
390.310008	2524.841739
390.693936	2525.242511
391.077802	2525.061029
391.461606	2525.461801
391.845348	2529.403983
392.229027	2527.851308
392.612645	2525.081194
392.996200	2527.818541
393.379694	2528.254600
393.763125	2529.174611
394.146494	2530.737369
394.529801	2529.419107
394.913047	2532.842050
395.296230	2530.979344
395.679351	2530.225692
396.062410	2530.535722
396.445408	2530.225692
396.828343	2531.664941
397.211217	2530.172759
397.594028	2531.455733
397.976778	2529.288037
398.359466	2530.694519
398.742092	2528.932636
399.124656	2534.230888
399.507158	2533.547812
399.889598	2537.212731
400.271977	2536.867412
400.654294	2537.734490
401.036549	2535.939839
401.418742	2536.655683
401.800874	2539.214069
402.182944	2540.691127
402.564952	2541.159954
402.946898	2539.395550
403.328783	2542.800850
403.710606	2543.151210
404.092367	2542.722712
404.474067	2546.551468
404.855705	2547.428629
405.237282	2548.951058
405.618797	2555.083621
406.000250	2556.031358
406.381642	2561.064950
406.762972	2565.743141
407.144240	2571.288410
407.525447	2581.007755
407.906593	2588.345154
408.287677	2599.352514
408.668700	2604.885180
409.049661	2616.537807
409.430560	2631.746968
409.811399	2640.334574
410.192176	2663.218892
410.572891	2672.040911
410.953545	2692.941535
411.334138	2701.761033
411.714669	2723.732902
412.095139	2734.493245
412.475547	2763.278234
412.855894	2783.049639
413.236180	2806.392702
413.616405	2822.806699
413.996568	2855.110413
414.376670	2872.794781
414.756711	2889.866648
415.136691	2918.442429
415.516609	2962.839871
415.896466	2997.545694
416.276262	3035.049358
416.655997	3059.254458
417.035670	3131.985706
417.415283	3191.678008
417.794834	3213.942264
418.174324	3231.243504
418.553753	3248.242275
418.933121	3338.428517
419.312428	3399.610481
419.691674	3425.854728
420.070859	3505.688961
420.449983	3521.929038
420.829045	3609.289713
421.208047	3618.981332
421.586988	3693.222404
421.965867	3744.501021
422.344686	3858.068135
422.723444	3832.446471
423.102141	3793.637148
423.480777	3982.067917
423.859352	3913.694747
424.237866	4098.805917
424.616319	4142.018687
424.994712	4248.505501
425.373044	4228.809713
425.751314	4361.157645
426.129524	4297.422337
426.507673	4463.172955
426.885762	4560.008479
427.263789	4571.867793
427.641756	4527.840876
428.019662	4659.046987
428.397508	4707.439544
428.775292	4721.075865
429.153016	4835.447043
429.530679	4817.959280
429.908282	4926.195374
430.285824	4863.521229
430.663305	5111.825782
431.040726	4942.223723
431.418086	4978.729238
431.795385	5096.982104
432.172624	5143.534640
432.549802	5171.692004
432.926920	5210.213982
433.303977	5248.388119
433.680974	5308.604702
434.057910	5352.258573
434.434786	5382.593717
434.811601	5382.591196
435.188355	5615.565601
435.565050	5526.087640
435.941683	5530.952354
436.318257	5754.598103
436.694770	5754.809832
437.071222	5811.757226
437.447614	5761.731336
437.823946	5699.374783
438.200218	5860.880750
438.576429	5752.621971
438.952580	5853.891190
439.328670	5911.551908
439.704700	5834.477706
440.080670	5830.853117
440.456580	6107.854438
440.832429	5999.494836
441.208218	5856.603331
441.583947	6013.413462
441.959616	6028.100864
442.335224	5959.097550
442.710773	6102.573830
443.086261	6133.952492
443.461689	5932.780206
443.837057	6087.941881
444.212365	6244.084059
444.587612	6139.391897
444.962800	6294.183046
445.337927	6279.379698
445.712995	5895.422736
446.088002	6468.125539
446.462949	6300.804602
446.837837	6233.260702
447.212664	6409.741416
447.587431	6556.350772
447.962139	7098.466375
448.336786	8013.009820
448.711374	7754.781756
449.085901	6832.079203
449.460369	6756.285455
449.834776	6692.908068
450.209124	7086.493634
450.583412	7239.774958
450.957640	7379.672019
451.331808	7146.306925
451.705917	6705.881478
452.079965	6626.044724
452.453954	6836.296128
452.827883	6712.876079
453.201752	6810.389638
453.575562	6613.260358
453.949311	6809.825029
454.323001	6701.898966
454.696632	6776.727333
455.070202	6912.682212
455.443713	7069.298259
455.817164	7169.226531
456.190556	7249.746361
456.563888	7328.688309
456.937160	7369.504011
457.310373	7024.018615
457.683526	7050.724127
458.056619	6943.937365
458.429653	6935.576612
458.802628	6865.988524
459.175542	6973.964998
459.548398	7329.736869
459.921194	7491.381467
460.293930	7491.396591
460.666607	8024.448198
461.039224	8327.686205
461.411782	8453.833518
461.784280	8466.658214
462.156719	8361.214919
462.529099	8240.149089
462.901419	7829.151378
463.273680	7722.636838
463.645882	7736.865495
464.018024	7603.320288
464.390106	7767.775330
464.762130	8158.757140
465.134094	8626.576217
465.505999	9641.383171
465.877845	10863.132012
466.249631	11510.499344
466.621358	11124.067176
466.993026	10500.458801
467.364634	10240.083205
467.736184	9881.465602
468.107674	9549.666939
468.479105	9583.205735
468.850477	9345.306123
469.221790	9118.653326
469.593043	8794.338255
469.964238	8654.829363
470.335373	8661.594592
470.706449	8718.620124
471.077467	8701.603709
471.448425	10011.731538
471.819324	11076.186297
472.190164	11101.197981
472.560945	9851.947126
472.931667	9063.755161
473.302330	8935.780429
473.672934	8587.149353
474.043479	8939.873846
474.413965	8878.444866
474.784393	8763.904809
475.154761	8925.718286
475.525070	9011.168364
475.895321	8836.343669
476.265513	9012.973097
476.635645	9180.505763
477.005719	9176.162809
477.375734	9288.678842
477.745691	9532.259834
478.115588	9662.283795
478.485427	9907.871166
478.855207	10443.047620
479.224928	11253.561815
479.594591	11883.078422
479.964194	11693.364680
480.333739	11627.804474
480.703226	11543.294571
481.072653	11636.316462
481.442022	11871.942513
481.811333	12062.228427
482.180584	11863.100330
482.549777	11574.360681
482.918912	11399.533466
483.287988	11423.587332
483.657005	11435.212232
484.025964	11120.021650
484.394864	11251.409243
484.763706	11215.241484
485.132489	10976.240380
485.501213	10941.345513
485.869879	11013.905361
486.238487	10863.895746
486.607036	10970.863990
486.975527	10755.299210
487.343959	10939.170256
487.712333	10990.877371
488.080648	10914.899620
488.448905	10971.030348
488.817104	10905.991902
489.185244	11174.496358
489.553326	11324.831128
489.921350	11861.484640
490.289315	12925.647011
490.657222	13265.768620
491.025070	13171.662880
491.392861	13047.353068
491.760593	12664.187567
492.128267	12316.834423
492.495883	11992.680669
492.863440	11659.029381
493.230939	11310.995681
493.598380	11251.086609
493.965763	11122.184305
494.333088	11023.967504
494.700354	10942.694022
495.067563	11002.691315
495.434713	10832.683442
495.801805	10963.168668
496.168839	10880.551719
496.535815	10820.241875
496.902733	10824.821763
497.269593	10754.114539
497.636395	10862.630417
498.003139	10844.623415
498.369825	10709.311284
498.736453	10865.730726
499.103023	10797.493668
499.469535	10820.027626
499.835989	10807.679319
500.202385	10775.748651
500.568723	10623.891453
500.935003	10844.668786
501.301226	10654.551751
501.667390	10911.315360
502.033497	11010.658858
502.399546	10867.175017
502.765537	10776.772005
503.131470	10850.047697
503.497345	11021.371310
503.863163	10637.482404
504.228923	10951.349683
504.594625	11002.822385
504.960269	10756.236865
505.325856	10975.418672
505.691385	10770.120202
506.056856	10927.240365
506.422270	10951.773140
506.787625	10839.161325
507.152924	10945.776688
507.518164	10939.634042
507.883347	10860.024140
508.248472	10771.410738
508.613540	11014.079281
508.978550	10892.302648
509.343503	10872.944617
509.708398	10997.304842
510.073236	11097.636406
510.438016	11109.198292
510.802738	11056.646784
511.167403	11113.037131
511.532010	11008.481080
511.896561	11234.153373
512.261053	11306.486369
512.625488	11177.173211
512.989866	11153.331074
513.354186	11141.486883
513.718449	11041.727489
514.082655	11243.676112
514.446803	11138.270627
514.810894	11263.865934
515.174927	11124.878802
515.538904	11144.771195
515.902822	11304.543004
516.266684	11176.215392
516.630488	11126.449121
516.994235	11182.922647
517.357925	11247.464540
517.721558	11331.210708
518.085133	11350.604027
518.448651	11355.894718
518.812112	11241.669733
519.175516	11256.261353
519.538863	11375.625794
519.902152	11293.739811
520.265385	11452.967176
520.628560	11366.834022
520.991678	11348.597647
521.354739	11405.446739
521.717743	11342.828047
522.080690	11324.763072
522.443580	11453.274687
522.806413	11402.943807
523.169189	11442.418562
523.531908	11492.608289
523.894569	11312.223202
524.257174	11323.381796
524.619722	11444.248501
524.982213	11386.310519
525.344647	11444.258583
525.707025	11389.211703
526.069345	11482.173101
526.431608	11402.585885
526.793815	11508.918943
527.155964	11300.903291
527.518057	11352.905313
527.880093	11302.781121
528.242072	11370.846780
528.603995	11270.784917
528.965860	11199.291273
529.327669	11251.268090
529.689421	11203.072139
530.051117	11169.790441
530.412755	11270.595874
530.774337	11165.339102
531.135862	11145.008129
531.497331	11164.081334
531.858743	11022.956753
532.220098	11185.836434
532.581396	11057.181147
532.942638	11038.198682
533.303824	10999.631334
533.664953	11023.826352
534.026025	10929.755901
534.387040	11029.548062
534.747999	11030.871365
535.108902	11092.131466
535.469748	10849.440238
535.830537	10950.918665
536.191270	10933.856879
536.551947	10948.322470
536.912567	10954.709612
537.273131	10883.157995
537.633638	10859.693945
537.994089	10851.174395
538.354483	10789.369848
538.714821	10938.073805
539.075103	10941.390884
539.435328	10917.324415
539.795497	10742.043496
540.155609	10896.025540
540.515665	10983.164405
540.875665	10714.803621
541.235609	10789.339602
541.595496	10779.703436
541.955328	10946.837851
542.315102	10827.266723
542.674821	10770.946952
543.034483	10771.115830
543.394090	10776.023394
543.753640	10704.749040
544.113134	10930.575088
544.472571	10782.221492
544.831953	10926.348081
545.191278	10728.190405
545.550548	10765.888154
545.909761	10892.894984
546.268918	10877.723631
546.628019	10956.902514
546.987064	10823.458131
547.346053	10738.126520
547.704986	10838.959679
548.063863	10821.648357
548.422684	10817.698612
548.781449	10744.168342
549.140158	10837.129740
549.498811	10714.478467
549.857408	10577.278424
550.215949	10796.742536
550.574434	10652.205093
550.932864	10751.195711
551.291237	10812.770885
551.649555	10756.428429
552.007817	10768.950655
552.366022	10730.884902
552.724173	10730.020344
553.082267	10718.776051
553.440305	10846.390340
553.798288	10651.937912
554.156215	10807.364247
554.514086	10781.757706
554.871902	10632.035437
555.229661	10668.107413
555.587365	10644.048507
555.945014	10536.465242
556.302606	10660.434777
556.660143	10549.937726
557.017625	10705.157373
557.375050	10608.505851
557.732421	10738.688608
558.089735	10656.870681
558.446994	10657.926803
558.804197	10691.558861
559.161345	10689.300424
559.518437	10535.877948
559.875474	10626.374221
560.232455	10665.576754
560.589381	10605.042579
560.946251	10605.493762
561.303065	10714.254136
561.659825	10640.106324
562.016528	10580.681203
562.373177	10466.690632
562.729770	10575.282127
563.086307	10493.852369
563.442789	10581.628940
563.799216	10461.604108
564.155587	10513.331387
564.511904	10469.647269
564.868164	10459.128901
565.224370	10478.350821
565.580520	10402.773842
565.936615	10402.378112
566.292654	10272.069326
566.648638	10403.277958
567.004567	10361.663233
567.360441	10346.537251
567.716260	10251.496377
568.072023	10345.445841
568.427732	10301.063522
568.783385	10204.994253
569.138982	10281.579463
569.494525	10298.656371
569.850013	10172.453605
570.205445	10252.121480
570.560823	10145.115428
570.916145	10067.098531
571.271412	10138.445982
571.626625	10082.655532
571.981782	10059.793899
572.336884	10030.668633
572.691931	10037.002843
573.046923	9982.694492
573.401860	9938.798645
573.756743	9873.767761
574.111570	9919.107898
574.466342	9899.651565
574.821059	9927.244321
575.175722	9823.454525
575.530330	9833.705711
575.884882	9825.838990
576.239380	9750.350232
576.593823	9731.713086
576.948211	9742.463347
577.302544	9632.472932
577.656823	9642.008274
578.011047	9641.965424
578.365216	9619.023133
578.719330	9536.285196
579.073389	9547.363131
579.427394	9499.368826
579.781344	9475.675403
580.135239	9425.866283
580.489080	9432.402138
580.842866	9336.453857
581.196597	9345.588428
581.550273	9381.317606
581.903895	9349.487761
582.257463	9414.564016
582.610975	9293.977095
582.964434	9323.964399
583.317837	9242.217048
583.671186	9219.078152
584.024481	9219.234428
584.377721	9133.870049
584.730906	9116.563768
585.084037	9150.470568
585.437113	9085.603521
585.790135	9103.968445
586.143103	9003.173094
586.496016	8972.190163
586.848874	9032.316005
587.201679	9021.848049
587.554428	8900.973782
587.907124	8952.494375
588.259765	8918.169158
588.612352	8925.292308
588.964884	8800.012074
589.317362	8820.892533
589.669786	8819.455804
590.022155	8867.150161
590.374470	8885.782265
590.726731	8824.317997
591.078937	8675.165378
591.431090	8789.062687
591.783188	8664.498297
592.135232	8652.855752
592.487222	8655.391452
592.839157	8705.702167
593.191038	8636.219944
593.542866	8581.180626
593.894639	8479.659350
594.246358	8535.679172
594.598022	8550.348929
594.949633	8446.480996
595.301190	8420.496368
595.652692	8453.314280
596.004141	8562.251094
596.355535	8338.421342
596.706876	8315.864699
597.058162	8253.843384
597.409395	8330.080753
597.760573	8387.774238
598.111698	8301.257956
598.462768	8286.263044
598.813785	8254.236594
599.164748	8218.668733
599.515657	8210.169347
599.866511	8123.196841
600.217312	8249.238290
600.568060	8104.378213
600.918753	8211.984163
601.269392	8175.874378
601.619978	8085.564627
601.970510	8161.174373
602.320988	8154.998960
602.671412	8207.232875
603.021783	8145.745922
603.372100	8120.207436
603.722363	8115.073021
604.072572	8092.750792
604.422728	8107.125642
604.772830	8030.603447
605.122878	8038.732308
605.472872	8041.565436
605.822813	8062.576966
606.172701	8012.304059
606.522534	8086.083866
606.872314	8081.135973
607.222041	8056.794762
607.571714	8104.506763
607.921333	8069.027122
608.270899	8077.765962
608.620411	8169.313316
608.969870	8072.520642
609.319276	8068.770023
609.668627	8076.291425
610.017926	8114.705017
610.367171	8160.387953
610.716362	8140.745097
611.065500	8129.901575
611.414585	8153.267323
611.763616	8141.637381
612.112594	8125.230946
612.461518	8139.583111
612.810389	8197.695012
613.159207	8139.729305
613.507971	8093.201975
613.856682	8207.071558
614.205340	8163.815938
614.553945	8239.551712
614.902496	8143.386662
615.250994	8198.446144
615.599439	8182.800923
615.947830	8193.261317
616.296169	8165.214858
616.644454	8175.692896
616.992686	8171.037391
617.340864	8232.504179
617.688990	8136.402143
618.037063	8232.557112
618.385082	8174.349429
618.733048	8260.956452
619.080961	8198.294909
619.428821	8220.458342
619.776628	8221.690904
620.124382	8168.940271
620.472083	8153.552148
620.819731	8186.465842
621.167326	8076.324192
621.514868	8085.335255
621.862357	7975.594377
622.209793	7991.610122
622.557176	7922.682426
622.904506	7895.911378
623.251783	7828.254052
623.599007	7781.860314
623.946179	7791.471273
624.293297	7741.271463
624.640363	7660.282806
624.987376	7642.656412
625.334336	7589.588185
625.681243	7537.369393
626.028097	7533.303703
626.374899	7503.346646
626.721647	7498.860019
627.068343	7431.661438
627.414987	7402.334526
627.761577	7355.996240
628.108115	7395.140799
628.454600	7289.576517
628.801032	7337.192736
629.147412	7300.397354
629.493739	7284.971423
629.840014	7224.989254
630.186236	7279.370701
630.532405	7164.777712
630.878521	7217.387194
631.224585	7173.196439
631.570597	7096.691889
631.916556	7129.645911
632.262462	7128.957794
632.608316	7091.602844
632.954117	7063.523617
633.299866	7056.445837
633.645562	7046.847480
633.991206	6964.351518
634.336797	6910.176758
634.682336	6866.976590
635.027823	6835.968453
635.373257	6826.687689
635.718639	6754.705053
636.063968	6771.643330
636.409245	6668.609707
636.754470	6662.323388
637.099642	6619.430731
637.444762	6567.118677
637.789829	6578.922539
638.134845	6521.460947
638.479808	6502.831363
638.824719	6506.841601
639.169577	6432.945847
639.514383	6452.626512
639.859137	6383.187138
640.203839	6388.883642
640.548489	6382.204113
