Dividing Wavelength (nm)	Counts (n)	Blue Motor Position (mm): 13.000000	Red Motor Position (mm): 0.000000	
326.493990	2104.916144
326.888308	2104.916144
327.282561	2104.916144
327.676750	2079.133163
328.070874	2081.520149
328.464933	2089.167580
328.858929	2098.271904
329.252859	2112.162803
329.646726	2126.086470
330.040528	2140.622637
330.434265	2161.576193
330.827938	2181.057732
331.221547	2201.416432
331.615091	2222.029710
332.008571	2242.234655
332.401986	2260.907088
332.795338	2280.411313
333.188625	2301.639612
333.581847	2320.266675
333.975006	2338.666887
334.368100	2356.603312
334.761129	2375.293390
335.154095	2388.271840
335.546996	2423.086049
335.939833	2476.393730
336.332606	2487.968219
336.725315	2502.027998
337.117960	2510.686179
337.510540	2517.287570
337.903056	2525.600433
338.295508	2531.649818
338.687896	2539.234233
339.080220	2546.342260
339.472480	2553.029351
339.864676	2555.237376
340.256807	2559.776935
340.648875	2558.453632
341.040879	2562.393294
341.432818	2563.537636
341.824694	2561.304405
342.216506	2562.413459
342.608253	2561.501010
342.999937	2559.212326
343.391557	2559.174518
343.783113	2559.882800
344.174605	2557.246276
344.566033	2553.803168
344.957397	2554.929866
345.348697	2554.022458
345.739934	2552.721841
346.131106	2549.099772
346.522215	2548.807385
346.913260	2543.410829
347.304241	2543.335212
347.695159	2541.480068
348.086012	2543.307486
348.476802	2540.184491
348.867528	2538.462937
349.258191	2534.913965
349.648789	2536.065868
350.039324	2533.820034
350.429796	2536.257432
350.820203	2533.043697
351.210548	2532.816845
351.600828	2529.197296
351.991045	2531.433048
352.381198	2529.585465
352.771288	2528.486493
353.161314	2526.558252
353.551276	2529.502286
353.941175	2529.134282
354.331010	2529.915661
354.720782	2534.286341
355.110490	2534.145189
355.500135	2530.921371
355.889717	2530.268541
356.279235	2532.395908
356.668689	2532.426155
357.058080	2531.969931
357.447408	2532.048069
357.836672	2529.782070
358.225873	2532.907585
358.615010	2531.435568
359.004084	2534.185518
359.393095	2532.713501
359.782043	2535.463450
360.170927	2533.560415
360.559748	2535.037473
360.948505	2537.484953
361.337199	2537.248019
361.725830	2539.541744
362.114398	2541.086857
362.502903	2536.640560
362.891344	2539.662732
363.279722	2538.135262
363.668037	2540.605427
364.056289	2539.987886
364.444478	2542.137938
364.832603	2541.780016
365.220665	2539.811446
365.608665	2540.255067
365.996601	2543.005017
366.384474	2541.490150
366.772284	2542.097609
367.160031	2544.761859
367.547715	2542.795809
367.935336	2542.931920
368.322893	2543.488967
368.710388	2546.286808
369.097820	2548.525080
369.485189	2544.890408
369.872495	2545.447456
370.259738	2548.089020
370.646918	2543.073072
371.034035	2549.278732
371.421090	2548.857796
371.808081	2546.909390
372.195010	2545.205480
372.581875	2548.512477
372.968678	2545.732281
373.355418	2545.757487
373.742096	2546.760676
374.128710	2546.995090
374.515262	2551.902653
374.901751	2547.194215
375.288177	2548.825029
375.674540	2547.126160
376.060841	2548.625903
376.447079	2551.980791
376.833254	2551.154042
377.219367	2544.252702
377.605417	2548.305790
377.991404	2547.617672
378.377329	2547.242106
378.763191	2545.427291
379.148991	2553.246121
379.534727	2550.924669
379.920402	2552.121943
380.306013	2553.233518
380.691563	2553.692263
381.077049	2551.068342
381.462474	2551.007848
381.847835	2551.895091
382.233134	2552.489947
382.618371	2553.588919
383.003545	2555.224773
383.388657	2553.465411
383.773706	2552.810061
384.158693	2554.566903
384.543618	2554.493806
384.928480	2553.495658
385.313280	2555.325597
385.698017	2556.986657
386.082692	2556.016235
386.467305	2555.222253
386.851856	2556.283416
387.236344	2556.348951
387.620770	2558.448591
388.005133	2556.845504
388.389435	2556.167469
388.773674	2557.384908
389.157851	2556.953889
389.541965	2555.759136
389.926018	2558.907336
390.310008	2559.950855
390.693936	2561.359858
391.077802	2558.380536
391.461606	2559.502192
391.845348	2558.020093
392.229027	2559.446740
392.612645	2558.246945
392.996200	2560.679302
393.379694	2560.094528
393.763125	2560.540670
394.146494	2562.108469
394.529801	2563.204920
394.913047	2559.482028
395.296230	2563.106617
395.679351	2561.632080
396.062410	2563.502348
396.445408	2563.157029
396.828343	2559.696277
397.211217	2560.074363
397.594028	2560.974209
397.976778	2558.723334
398.359466	2564.192986
398.742092	2560.449929
399.124656	2563.295661
399.507158	2563.439334
399.889598	2563.956052
400.271977	2564.382029
400.654294	2566.832030
401.036549	2563.991340
401.418742	2563.449416
401.800874	2565.536454
402.182944	2567.273131
402.564952	2565.828841
402.946898	2566.290106
403.328783	2565.937225
403.710606	2567.227761
404.092367	2567.121897
404.474067	2565.128120
404.855705	2566.779098
405.237282	2566.915209
405.618797	2568.901424
406.000250	2564.898748
406.381642	2567.026115
406.762972	2566.340518
407.144240	2568.876218
407.525447	2568.301527
407.906593	2567.946125
408.287677	2566.751372
408.668700	2568.616599
409.049661	2568.165415
409.430560	2568.225909
409.811399	2570.983420
410.192176	2569.123235
410.572891	2569.430745
410.953545	2569.828996
411.334138	2569.529048
411.714669	2569.440827
412.095139	2572.624316
412.475547	2572.223544
412.855894	2569.201373
413.236180	2572.349573
413.616405	2573.100705
413.996568	2571.595921
414.376670	2568.820765
414.756711	2572.021898
415.136691	2571.729511
415.516609	2569.748338
415.896466	2573.665314
416.276262	2572.846127
416.655997	2567.043759
417.035670	2569.312278
417.415283	2573.002402
417.794834	2566.973182
418.174324	2570.980900
418.553753	2572.052145
418.933121	2572.495767
419.312428	2574.144224
419.691674	2569.584500
420.070859	2575.752352
420.449983	2570.764130
420.829045	2573.047773
421.208047	2574.408884
421.586988	2574.287897
421.965867	2572.904100
422.344686	2573.756055
422.723444	2574.139183
423.102141	2572.934347
423.480777	2574.560119
423.859352	2577.783937
424.237866	2576.609348
424.616319	2576.712692
424.994712	2575.079358
425.373044	2574.121539
425.751314	2574.849985
426.129524	2575.575912
426.507673	2576.468196
426.885762	2576.944585
427.263789	2576.223700
427.641756	2575.754872
428.019662	2578.588001
428.397508	2575.812846
428.775292	2577.867116
429.153016	2576.422825
429.530679	2578.053639
429.908282	2577.269739
430.285824	2575.311251
430.663305	2574.933164
431.040726	2576.712692
431.418086	2575.913669
431.795385	2578.950964
432.172624	2577.607497
432.549802	2575.560788
432.926920	2575.560788
433.303977	2578.829976
433.680974	2576.536251
434.057910	2578.129256
434.434786	2579.031623
434.811601	2579.465162
435.188355	2577.307548
435.565050	2577.892322
435.941683	2578.189750
436.318257	2577.768813
436.694770	2573.718246
437.071222	2576.105233
437.447614	2573.763617
437.823946	2573.693041
438.200218	2581.113619
438.576429	2580.831314
438.952580	2576.816035
439.328670	2579.631520
439.704700	2579.828125
440.080670	2579.906263
440.456580	2580.811150
440.832429	2579.664287
441.208218	2579.606314
441.583947	2579.707137
441.959616	2576.561457
442.335224	2580.740574
442.710773	2577.052970
443.086261	2578.595563
443.461689	2580.390213
443.837057	2581.272415
444.212365	2579.921386
444.587612	2579.631520
444.962800	2579.336612
445.337927	2581.708475
445.712995	2582.847776
446.088002	2582.068918
446.462949	2583.276274
446.837837	2585.496902
447.212664	2579.460121
447.587431	2583.480441
447.962139	2582.638568
448.336786	2584.352560
448.711374	2584.881882
449.085901	2584.718044
449.460369	2582.535224
449.834776	2584.660071
450.209124	2584.818867
450.583412	2585.537232
450.957640	2586.517736
451.331808	2587.258786
451.705917	2585.852304
452.079965	2587.624269
452.453954	2585.547314
452.827883	2588.287181
453.201752	2586.263158
453.575562	2584.612180
453.949311	2588.924887
454.323001	2588.062850
454.696632	2588.793817
455.070202	2590.696852
455.443713	2589.814651
455.817164	2586.089238
456.190556	2589.121492
456.563888	2587.626790
456.937160	2584.433219
457.310373	2588.801379
457.683526	2588.206522
458.056619	2588.234249
458.429653	2590.507809
458.802628	2591.775659
459.175542	2592.007552
459.548398	2592.156267
459.921194	2592.920001
460.293930	2595.370002
460.666607	2596.201792
461.039224	2596.002667
461.411782	2597.288161
461.784280	2596.408480
462.156719	2595.571648
462.529099	2598.356886
462.901419	2595.914447
463.273680	2596.267328
463.645882	2593.091401
464.018024	2596.353027
464.390106	2597.179776
464.762130	2599.259252
465.134094	2601.283276
465.505999	2605.830396
465.877845	2609.724688
466.249631	2612.542693
466.621358	2609.102105
466.993026	2610.556478
467.364634	2609.192846
467.736184	2606.775613
468.107674	2604.169336
468.479105	2604.930550
468.850477	2603.093050
469.221790	2603.445931
469.593043	2603.057762
469.964238	2604.885180
470.335373	2599.715477
470.706449	2604.935592
471.077467	2605.369131
471.448425	2610.274173
471.819324	2611.355501
472.190164	2609.250819
472.560945	2608.696292
472.931667	2603.577001
473.302330	2605.152361
473.672934	2604.199583
474.043479	2605.217896
474.413965	2604.247474
474.784393	2600.801845
475.154761	2605.036415
475.525070	2604.736466
475.895321	2602.599017
476.265513	2600.146495
476.635645	2609.631426
477.005719	2608.154368
477.375734	2608.713936
477.745691	2607.398195
478.115588	2612.903135
478.485427	2612.915738
478.855207	2614.576798
479.224928	2616.172323
479.594591	2621.231121
479.964194	2617.490585
480.333739	2619.438991
480.703226	2618.713065
481.072653	2621.566358
481.442022	2622.171297
481.811333	2622.488889
482.180584	2622.128447
482.549777	2620.197685
482.918912	2618.420678
483.287988	2624.520474
483.657005	2621.677263
484.025964	2621.457973
484.394864	2620.669033
484.763706	2620.805144
485.132489	2621.878910
485.501213	2622.975361
485.869879	2623.678602
486.238487	2624.621297
486.607036	2626.161370
486.975527	2628.094652
487.343959	2625.788324
487.712333	2628.238325
488.080648	2628.860908
488.448905	2632.787967
488.817104	2631.368882
489.185244	2636.893986
489.553326	2640.319450
489.921350	2644.150727
490.289315	2650.363949
490.657222	2653.675987
491.025070	2655.926863
491.392861	2656.196564
491.760593	2656.811585
492.128267	2654.578354
492.495883	2654.651451
492.863440	2653.421409
493.230939	2654.028868
493.598380	2656.620021
493.965763	2653.875113
494.333088	2655.084990
494.700354	2654.182623
495.067563	2656.889723
495.434713	2662.321566
495.801805	2664.713594
496.168839	2666.261228
496.535815	2668.900272
496.902733	2669.023780
497.269593	2673.533092
497.636395	2675.421005
498.003139	2677.631551
498.369825	2678.118022
498.736453	2682.980215
499.103023	2682.231603
499.469535	2690.660413
499.835989	2689.137984
500.202385	2691.096472
500.568723	2692.104703
500.935003	2694.897502
501.301226	2698.811958
501.667390	2703.301106
502.033497	2704.876467
502.399546	2706.724049
502.765537	2707.626416
503.131470	2714.363918
503.497345	2714.265616
503.863163	2713.960626
504.228923	2716.914742
504.594625	2724.022769
504.960269	2724.431102
505.325856	2730.200703
505.691385	2727.347410
506.056856	2733.663976
506.422270	2736.426528
506.787625	2739.849471
507.152924	2744.043711
507.518164	2748.900863
507.883347	2748.505132
508.248472	2750.153590
508.613540	2755.078797
508.978550	2759.877976
509.343503	2761.198758
509.708398	2764.276382
510.073236	2771.734769
510.438016	2771.644029
510.802738	2774.378855
511.167403	2779.782972
511.532010	2784.809002
511.896561	2789.666154
512.261053	2795.284520
512.625488	2794.344344
512.989866	2798.057154
513.354186	2800.958338
513.718449	2799.914819
514.082655	2808.262970
514.446803	2812.550472
514.810894	2819.426605
515.174927	2819.734116
515.538904	2823.840136
515.902822	2826.675785
516.266684	2826.010352
516.630488	2833.574604
516.994235	2835.109635
517.357925	2843.583815
517.721558	2846.994155
518.085133	2850.822912
518.448651	2857.058819
518.812112	2856.887420
519.175516	2858.281299
519.538863	2863.685416
519.902152	2865.293544
520.265385	2872.399050
520.628560	2875.698485
520.991678	2874.841489
521.354739	2881.999928
521.717743	2887.194837
522.080690	2890.635424
522.443580	2896.614233
522.806413	2900.037176
523.169189	2899.351579
523.531908	2903.792836
523.894569	2908.513876
524.257174	2909.043197
524.619722	2916.040319
524.982213	2920.557193
525.344647	2923.344951
525.707025	2923.294539
526.069345	2932.600509
526.431608	2932.393822
526.793815	2937.225768
527.155964	2938.445727
527.518057	2942.231634
527.880093	2942.690379
528.242072	2948.714558
528.603995	2953.118005
528.965860	2955.517595
529.327669	2957.828964
529.689421	2958.464149
530.051117	2964.692495
530.412755	2967.525623
530.774337	2969.085860
531.135862	2972.072744
531.497331	2977.209680
531.858743	2975.866212
532.220098	2982.273519
532.581396	2982.505412
532.942638	2984.826863
533.303824	2995.161228
533.664953	3000.046107
534.026025	2997.586023
534.387040	3007.602796
534.747999	3011.058507
535.108902	3018.030423
535.469748	3015.494722
535.830537	3021.350023
536.191270	3030.973585
536.551947	3030.739172
536.912567	3035.326622
537.273131	3046.444887
537.633638	3044.970349
537.994089	3054.525856
538.354483	3058.188254
538.714821	3069.301478
539.075103	3079.701378
539.435328	3082.569795
539.795497	3087.192533
540.155609	3095.084459
540.515665	3108.756069
540.875665	3110.016357
541.235609	3121.742081
541.595496	3129.777680
541.955328	3147.162099
542.315102	3144.278559
542.674821	3153.234169
543.034483	3160.478307
543.394090	3173.731501
543.753640	3181.389013
544.113134	3203.791901
544.472571	3206.773743
544.831953	3227.535736
545.191278	3232.655027
545.550548	3237.998650
545.909761	3259.935231
546.268918	3275.078858
546.628019	3295.354378
546.987064	3298.280768
547.346053	3304.025163
547.704986	3331.617918
548.063863	3337.957169
548.422684	3358.066332
548.781449	3373.462016
549.140158	3397.404976
549.498811	3409.579363
549.857408	3415.485074
550.215949	3446.281483
550.574434	3467.093887
550.932864	3477.587049
551.291237	3511.468644
551.649555	3523.292670
552.007817	3554.804923
552.366022	3565.091397
552.724173	3594.922425
553.082267	3627.964668
553.440305	3656.283350
553.798288	3666.854649
554.156215	3699.100390
554.514086	3731.439392
554.871902	3748.816249
555.229661	3776.802215
555.587365	3802.670896
555.945014	3832.015452
556.302606	3858.499154
556.660143	3899.445926
557.017625	3927.590688
557.375050	3956.713434
557.732421	4001.854446
558.089735	4029.724465
558.446994	4064.339548
558.804197	4115.794605
559.161345	4150.170233
559.518437	4158.730112
559.875474	4208.781208
560.232455	4250.998351
560.589381	4299.186741
560.946251	4327.707069
561.303065	4391.200401
561.659825	4428.492337
562.016528	4456.934527
562.373177	4492.245289
562.729770	4558.561668
563.086307	4579.547991
563.442789	4652.788395
563.799216	4700.896126
564.155587	4742.213423
564.511904	4797.771980
564.868164	4854.333726
565.224370	4920.531638
565.580520	4960.664263
565.936615	5029.584398
566.292654	5075.799176
566.648638	5143.852232
567.004567	5202.866500
567.360441	5272.502478
567.716260	5331.027754
568.072023	5412.001288
568.427732	5474.239373
568.783385	5515.864180
569.138982	5611.300784
569.494525	5678.703532
569.850013	5739.285598
570.205445	5813.246887
570.560823	5881.829264
570.916145	5951.397188
571.271412	6029.963570
571.626625	6091.062355
571.981782	6173.838101
572.336884	6229.237861
572.691931	6342.694070
573.046923	6388.097222
573.401860	6455.517613
573.756743	6539.803185
574.111570	6633.689634
574.466342	6708.649071
574.821059	6803.463093
575.175722	6844.694690
575.530330	6932.012516
575.884882	6993.277659
576.239380	7080.749240
576.593823	7170.680904
576.948211	7259.132989
577.302544	7299.711757
577.656823	7395.682723
578.011047	7525.573093
578.365216	7591.657579
578.719330	7668.356214
579.073389	7756.437775
579.427394	7869.281483
579.781344	7967.856205
580.135239	8026.653703
580.489080	8146.567630
580.842866	8193.987243
581.196597	8360.342800
581.550273	8468.387330
581.903895	8569.132269
582.257463	8740.967559
582.610975	8769.235829
582.964434	8924.644520
583.317837	8992.692535
583.671186	9085.016227
584.024481	9232.583403
584.377721	9273.121842
584.730906	9434.065719
585.084037	9559.827384
585.437113	9631.830185
585.790135	9752.913659
586.143103	9805.061875
586.496016	9946.824162
586.848874	10078.456251
587.201679	10211.373834
587.554428	10237.343338
587.907124	10409.902034
588.259765	10497.328244
588.612352	10675.878352
588.964884	10693.683707
589.317362	10878.288241
589.669786	10997.501447
590.022155	11074.817623
590.374470	11304.311111
590.726731	11327.971767
591.078937	11352.774243
591.431090	11502.262099
591.783188	11553.402084
592.135232	11610.936773
592.487222	11800.368211
592.839157	11964.092285
593.191038	12004.459325
593.542866	12090.542068
593.894639	12075.572361
594.246358	12275.610387
594.598022	12416.845874
594.949633	12445.398969
595.301190	12568.526631
595.652692	12658.720435
596.004141	12892.735838
596.355535	12757.567380
596.706876	12881.196637
597.058162	12968.917755
597.409395	13235.617479
597.760573	13408.004776
598.111698	13425.928598
598.462768	13566.569229
598.813785	13716.664543
599.164748	13690.876521
599.515657	13947.940079
599.866511	13936.421042
600.217312	14260.751237
600.568060	14088.605915
600.918753	14461.810096
601.269392	14583.493468
601.619978	14622.285147
601.970510	14830.184852
602.320988	15032.569535
602.671412	15278.610610
603.021783	15347.006465
603.372100	15370.906575
603.722363	15541.015270
604.072572	15727.046450
604.422728	15870.076588
604.772830	15948.683300
605.122878	16139.755633
605.472872	16256.095382
605.822813	16508.876480
606.172701	16593.895539
606.522534	16839.238415
606.872314	17080.412256
607.222041	17144.044220
607.571714	17453.263556
607.921333	17381.154891
608.270899	17659.930699
608.620411	17965.457390
608.969870	18034.125467
609.319276	18186.070885
609.668627	18366.372793
610.017926	18725.865036
610.367171	18950.824006
610.716362	19149.415220
611.065500	19279.338358
611.414585	19518.856180
611.763616	19816.042281
612.112594	19933.483522
612.461518	20195.593275
612.810389	20491.287195
613.159207	20593.846949
613.507971	20787.081938
613.856682	21169.773571
614.205340	21276.207452
614.553945	21783.077827
614.902496	21662.969816
615.250994	22059.340619
615.599439	22243.993044
615.947830	22508.993898
616.296169	22714.367986
616.644454	22946.515641
616.992686	23197.555020
617.340864	23627.789774
617.688990	23651.382374
618.037063	24134.483709
618.385082	24277.541573
618.733048	24602.292704
619.080961	24759.057465
619.428821	24923.777167
619.776628	25131.911286
620.124382	25206.981628
620.472083	25411.707927
620.819731	25645.360367
621.167326	25594.553098
621.514868	25732.058131
621.862357	25621.548477
622.209793	25777.143690
622.557176	25730.291206
622.904506	25714.230090
623.251783	25645.259544
623.599007	25664.642780
623.946179	25676.481930
624.293297	25784.405472
624.640363	25570.572329
624.987376	25698.426073
625.334336	25700.732401
625.681243	25607.841579
626.028097	25730.969241
626.374899	25769.539109
626.721647	25890.257100
627.068343	25957.259076
627.414987	25935.471209
627.761577	25930.377123
628.108115	26277.697499
628.454600	26038.645984
628.801032	26299.137527
629.147412	26392.441723
629.493739	26521.281012
629.840014	26397.261066
630.186236	26756.455880
630.532405	26603.222447
630.878521	26873.501390
631.224585	26909.066731
631.570597	26822.210170
631.916556	27051.169296
632.262462	27120.860727
632.608316	27260.442715
632.954117	27294.843549
633.299866	27386.491726
633.645562	27449.382641
633.991206	27221.872847
634.336797	27031.544084
634.682336	27148.168657
635.027823	27091.309483
635.373257	27070.297954
635.718639	27014.452052
636.063968	27004.803283
636.409245	26722.349954
636.754470	26857.435233
637.099642	26797.185883
637.444762	26554.194706
637.789829	26752.664933
638.134845	26613.574457
638.479808	26672.671903
638.824719	26699.367333
639.169577	26517.089293
639.514383	26653.984346
639.859137	26525.997012
640.203839	26791.151622
640.548489	26622.167103
640.893086	26755.392197
641.237632	26660.426941
641.582125	26830.865832
641.926566	26869.496193
