Dividing Wavelength (nm)	Counts (n)	Blue Motor Position (mm): 27.500000	Red Motor Position (mm): 0.000000	
326.493990	2153.248207
326.888308	2153.248207
327.282561	2153.248207
327.676750	2131.581328
328.070874	2134.895886
328.464933	2137.101391
328.858929	2146.500623
329.252859	2158.468322
329.646726	2174.395847
330.040528	2185.998063
330.434265	2207.329705
330.827938	2224.174721
331.221547	2242.771538
331.615091	2263.430186
332.008571	2283.539349
332.401986	2303.303192
332.795338	2324.574341
333.188625	2345.784996
333.581847	2364.061699
333.975006	2385.269833
334.368100	2402.492935
334.761129	2419.133784
335.154095	2435.998964
335.546996	2458.812706
335.939833	2491.693632
336.332606	2504.213338
336.725315	2515.646675
337.117960	2523.052130
337.510540	2531.790970
337.903056	2540.665921
338.295508	2546.846376
338.687896	2556.197716
339.080220	2561.891699
339.472480	2566.620302
339.864676	2572.778071
340.256807	2576.828638
340.648875	2577.063052
341.040879	2580.740574
341.432818	2579.971798
341.824694	2579.939030
342.216506	2581.859710
342.608253	2581.015317
342.999937	2576.538772
343.391557	2578.371231
343.783113	2581.383321
344.174605	2575.596076
344.566033	2576.299317
344.957397	2571.656414
345.348697	2570.358317
345.739934	2570.179356
346.131106	2567.961249
346.522215	2565.211299
346.913260	2563.179714
347.304241	2563.983778
347.695159	2558.680484
348.086012	2560.152501
348.476802	2558.148643
348.867528	2559.000598
349.258191	2555.015566
349.648789	2551.950544
350.039324	2553.977088
350.429796	2552.424413
350.820203	2551.065822
351.210548	2549.467776
351.600828	2550.276881
351.991045	2547.194215
352.381198	2548.560368
352.771288	2547.577343
353.161314	2549.538352
353.551276	2547.433670
353.941175	2544.809750
354.331010	2550.072714
354.720782	2548.237734
355.110490	2551.096068
355.500135	2547.499205
355.889717	2549.881150
356.279235	2549.359391
356.668689	2552.247972
357.058080	2550.140770
357.447408	2548.199926
357.836672	2549.840821
358.225873	2547.968033
358.615010	2548.134391
359.004084	2553.495658
359.393095	2551.617828
359.782043	2552.610935
360.170927	2552.694114
360.559748	2556.767367
360.948505	2556.666543
361.337199	2554.929866
361.725830	2556.036399
362.114398	2556.623694
362.502903	2558.194013
362.891344	2557.573951
363.279722	2558.438509
363.668037	2555.668395
364.056289	2556.709393
364.444478	2559.464384
364.832603	2559.537481
365.220665	2558.930022
365.608665	2563.338511
365.996601	2561.027142
366.384474	2561.674930
366.772284	2560.608726
367.160031	2563.139385
367.547715	2562.947821
367.935336	2559.040927
368.322893	2561.102759
368.710388	2563.824982
369.097820	2565.425548
369.485189	2561.564024
369.872495	2562.153839
370.259738	2563.885476
370.646918	2561.614436
371.034035	2567.568039
371.421090	2567.031156
371.808081	2566.567370
372.195010	2565.700291
372.581875	2565.259190
372.968678	2565.909499
373.355418	2566.706001
373.742096	2566.453944
374.128710	2567.477298
374.515262	2569.589541
374.901751	2568.893862
375.288177	2565.738100
375.674540	2569.687844
376.060841	2569.085426
376.447079	2567.137020
376.833254	2567.373954
377.219367	2563.351113
377.605417	2563.106618
377.991404	2563.711556
378.377329	2566.655590
378.763191	2566.927812
379.148991	2569.934860
379.534727	2569.652556
379.920402	2570.438976
380.306013	2569.266907
380.691563	2572.710016
381.077049	2571.762279
381.462474	2571.006106
381.847835	2572.276476
382.233134	2572.213462
382.618371	2570.806980
383.003545	2570.499470
383.388657	2572.773030
383.773706	2572.253791
384.158693	2572.780592
384.543618	2575.162537
384.928480	2572.997361
385.313280	2572.137845
385.698017	2575.432239
386.082692	2574.171950
386.467305	2573.914851
386.851856	2574.040880
387.236344	2576.745459
387.620770	2576.405181
388.005133	2576.763103
388.389435	2576.087589
388.773674	2573.995510
389.157851	2574.499625
389.541965	2576.692527
389.926018	2576.871488
390.310008	2575.293607
390.693936	2577.594894
391.077802	2574.176991
391.461606	2578.184709
391.845348	2579.049267
392.229027	2578.212435
392.612645	2577.050449
392.996200	2577.879719
393.379694	2578.734194
393.763125	2580.831314
394.146494	2577.972980
394.529801	2578.852662
394.913047	2580.669998
395.296230	2578.368711
395.679351	2580.327199
396.062410	2581.075810
396.445408	2579.709658
396.828343	2581.622776
397.211217	2576.231262
397.594028	2574.048442
397.976778	2577.143710
398.359466	2579.177816
398.742092	2578.109091
399.124656	2581.085893
399.507158	2583.976994
399.889598	2580.503639
400.271977	2584.234093
400.654294	2585.721234
401.036549	2581.655543
401.418742	2582.668815
401.800874	2583.009093
402.182944	2583.908939
402.564952	2585.912797
402.946898	2583.528332
403.328783	2584.024885
403.710606	2583.669484
404.092367	2581.768969
404.474067	2585.363312
404.855705	2585.491861
405.237282	2584.302149
405.618797	2585.219639
406.000250	2587.962027
406.381642	2584.642427
406.762972	2585.943044
407.144240	2586.477407
407.525447	2589.060998
407.906593	2586.555545
408.287677	2582.295770
408.668700	2587.515884
409.049661	2588.929928
409.430560	2586.910946
409.811399	2588.428333
410.192176	2587.866245
410.572891	2589.761718
410.953545	2588.060329
411.334138	2587.715010
411.714669	2591.203488
412.095139	2591.631987
412.475547	2588.657706
412.855894	2588.261975
413.236180	2589.991091
413.616405	2590.333889
413.996568	2589.280288
414.376670	2589.333220
414.756711	2591.256421
415.136691	2589.466811
415.516609	2588.388004
415.896466	2593.328335
416.276262	2591.498396
416.655997	2588.388004
417.035670	2588.640062
417.415283	2588.990422
417.794834	2586.865576
418.174324	2590.976637
418.553753	2593.557707
418.933121	2594.371854
419.312428	2592.887234
419.691674	2591.994950
420.070859	2592.186513
420.449983	2589.900350
420.829045	2595.337235
421.208047	2593.398911
421.586988	2593.701380
421.965867	2595.939652
422.344686	2597.121803
422.723444	2596.403439
423.102141	2592.015114
423.480777	2592.796493
423.859352	2594.800352
424.237866	2597.333532
424.616319	2594.868407
424.994712	2598.074581
425.373044	2598.180445
425.751314	2597.880497
426.129524	2595.503593
426.507673	2599.281937
426.885762	2599.985178
427.263789	2598.165322
427.641756	2598.709767
428.019662	2598.876125
428.397508	2596.398397
428.775292	2600.073399
429.153016	2598.266145
429.530679	2599.982658
429.908282	2601.008533
430.285824	2600.078440
430.663305	2600.068357
431.040726	2600.438882
431.418086	2602.820827
431.795385	2603.171188
432.172624	2602.127669
432.549802	2601.477360
432.926920	2604.002978
433.303977	2602.992227
433.680974	2601.734459
434.057910	2607.448607
434.434786	2606.679831
434.811601	2605.245622
435.188355	2606.672269
435.565050	2605.888370
435.941683	2607.473813
436.318257	2605.545571
436.694770	2608.895418
437.071222	2605.759820
437.447614	2608.429111
437.823946	2606.715119
438.200218	2614.017230
438.576429	2611.254678
438.952580	2616.515122
439.328670	2616.046295
439.704700	2617.558641
440.080670	2619.743981
440.456580	2621.087448
440.832429	2622.259517
441.208218	2625.090125
441.583947	2625.284209
441.959616	2626.415948
442.335224	2632.099849
442.710773	2633.763430
443.086261	2639.580921
443.461689	2640.879018
443.837057	2642.451858
444.212365	2650.154742
444.587612	2650.721871
444.962800	2655.082469
445.337927	2663.171001
445.712995	2660.746206
446.088002	2672.025787
446.462949	2682.594567
446.837837	2685.410051
447.212664	2692.087059
447.587431	2710.141952
447.962139	2730.669530
448.336786	2755.260279
448.711374	2764.447782
449.085901	2755.623242
449.460369	2759.953593
449.834776	2767.878287
450.209124	2796.532205
450.583412	2810.350008
450.957640	2828.974551
451.331808	2830.464212
451.705917	2834.068637
452.079965	2847.064731
452.453954	2865.369161
452.827883	2875.819473
453.201752	2892.611556
453.575562	2912.914803
453.949311	2945.210956
454.323001	2959.132102
454.696632	2978.868219
455.070202	3020.430012
455.443713	3042.041439
455.817164	3073.891449
456.190556	3110.598610
456.563888	3126.253914
456.937160	3162.923267
457.310373	3158.907988
457.683526	3194.251517
458.056619	3216.011658
458.429653	3237.630646
458.802628	3274.763785
459.175542	3306.828044
459.548398	3368.282230
459.921194	3442.477933
460.293930	3495.679750
460.666607	3596.182713
461.039224	3688.254347
461.411782	3758.875872
461.784280	3769.384157
462.156719	3806.056030
462.529099	3826.293743
462.901419	3821.325685
463.273680	3815.306548
463.645882	3850.239223
464.018024	3891.722878
464.390106	3950.154892
464.762130	4087.307045
465.134094	4285.081592
465.505999	4580.548660
465.877845	4911.049227
466.249631	5108.362509
466.621358	5129.686590
466.993026	5103.981747
467.364634	5070.745419
467.736184	5005.497765
468.107674	4995.964943
468.479105	5010.251573
468.850477	5036.495820
469.221790	5009.389536
469.593043	4952.013643
469.964238	4950.158499
470.335373	4992.032843
470.706449	5127.743225
471.077467	5282.365496
471.448425	5701.711358
471.819324	6073.289767
472.190164	6152.952601
472.560945	5934.847079
472.931667	5715.511517
473.302330	5665.215925
473.672934	5644.476618
474.043479	5742.516978
474.413965	5732.361573
474.784393	5749.622484
475.154761	5899.962295
475.525070	5957.872550
475.895321	5977.376774
476.265513	6090.500266
476.635645	6249.941880
477.005719	6296.436442
477.375734	6405.597587
477.745691	6533.353029
478.115588	6730.537761
478.485427	6948.353416
478.855207	7348.510126
479.224928	7736.981442
479.594591	8079.507681
479.964194	8144.727609
480.333739	8262.844364
480.703226	8333.760796
481.072653	8469.347669
481.442022	8611.485523
481.811333	8783.605638
482.180584	8712.822797
482.549777	8714.987973
482.918912	8719.303201
483.287988	8754.961802
483.657005	8729.635045
484.025964	8710.367755
484.394864	8808.062796
484.763706	8813.706368
485.132489	8782.708313
485.501213	8812.743508
485.869879	8899.892455
486.238487	8889.487513
486.607036	8991.911157
486.975527	8982.955547
487.343959	9056.526146
487.712333	9135.931881
488.080648	9203.516110
488.448905	9330.011263
488.817104	9371.053817
489.185244	9552.366477
489.553326	9775.805538
489.921350	10235.969623
490.289315	10844.275576
490.657222	11145.650876
491.025070	11340.098262
491.392861	11282.939139
491.760593	11159.272074
492.128267	10950.835486
492.495883	10756.529252
492.863440	10554.341174
493.230939	10363.387307
493.598380	10204.936280
493.965763	10203.202123
494.333088	10091.888405
494.700354	10038.807576
495.067563	10027.535556
495.434713	10044.141117
495.801805	10100.491134
496.168839	10069.588861
496.535815	10051.261746
496.902733	10108.453637
497.269593	10077.581611
497.636395	10095.026523
498.003139	10208.976765
498.369825	10146.786571
498.736453	10247.675183
499.103023	10190.148055
499.469535	10213.596983
499.835989	10266.047668
500.202385	10248.610317
500.568723	10274.075705
500.935003	10341.758237
501.301226	10314.455348
501.667390	10478.008022
502.033497	10583.824362
502.399546	10513.959011
502.765537	10428.128326
503.131470	10530.010045
503.497345	10625.222317
503.863163	10407.315922
504.228923	10550.444362
504.594625	10662.743626
504.960269	10579.912427
505.325856	10734.696014
505.691385	10607.235481
506.056856	10684.208859
506.422270	10784.358942
506.787625	10718.569363
507.152924	10779.080853
507.518164	10839.206695
507.883347	10706.773063
508.248472	10785.336925
508.613540	10894.800540
508.978550	10972.945986
509.343503	10948.788777
509.708398	10997.572023
510.073236	11132.450615
510.438016	11152.353090
510.802738	11066.711448
511.167403	11195.858248
511.532010	11253.992834
511.896561	11353.043945
512.261053	11546.246166
512.625488	11460.019750
512.989866	11454.769389
513.354186	11431.237282
513.718449	11445.657503
514.082655	11596.690472
514.446803	11551.186497
514.810894	11657.743887
515.174927	11652.952270
515.538904	11641.632359
515.902822	11791.072323
516.266684	11677.384222
516.630488	11766.632810
516.994235	11765.881678
517.357925	11880.202444
517.721558	11930.377048
518.085133	11994.939106
518.448651	12022.307530
518.812112	11988.105822
519.175516	11996.942964
519.538863	12086.176428
519.902152	12088.268507
520.265385	12201.288656
520.628560	12230.197153
520.991678	12177.481807
521.354739	12230.086247
521.717743	12310.830408
522.080690	12278.766149
522.443580	12406.466138
522.806413	12427.074375
523.169189	12415.497365
523.531908	12486.557470
523.894569	12446.235801
524.257174	12456.623098
524.619722	12566.779872
524.982213	12534.163606
525.344647	12531.408616
525.707025	12539.247610
526.069345	12643.342396
526.431608	12620.987399
526.793815	12700.907331
527.155964	12594.760796
527.518057	12624.115435
527.880093	12581.590782
528.242072	12709.845297
528.603995	12619.202830
528.965860	12632.153555
529.327669	12667.887774
529.689421	12611.691511
530.051117	12641.013383
530.412755	12664.502639
530.774337	12669.352229
531.135862	12629.844706
531.497331	12680.430164
531.858743	12652.469405
532.220098	12741.516346
532.581396	12667.776868
532.942638	12595.534613
533.303824	12654.732883
533.664953	12634.853093
534.026025	12584.950711
534.387040	12696.183770
534.747999	12669.745439
535.108902	12711.919732
535.469748	12597.074686
535.830537	12611.724279
536.191270	12659.768995
536.551947	12582.707397
536.912567	12646.737613
537.273131	12681.259434
537.633638	12555.114642
537.994089	12618.973458
538.354483	12534.423226
538.714821	12658.806135
539.075103	12748.919281
539.435328	12670.236951
539.795497	12647.897078
540.155609	12640.088331
540.515665	12746.633117
540.875665	12600.621137
541.235609	12701.776930
541.595496	12672.765090
541.955328	12845.931245
542.315102	12701.013196
542.674821	12636.541879
543.034483	12652.461843
543.394090	12648.244918
543.753640	12625.718522
544.113134	12867.232641
544.472571	12632.536682
544.831953	12908.708734
545.191278	12728.101836
545.550548	12655.809169
545.909761	12765.373607
546.268918	12816.314466
546.628019	12881.993139
546.987064	12768.436108
547.346053	12614.902726
547.704986	12807.399186
548.063863	12692.881814
548.422684	12741.221439
548.781449	12704.907487
549.140158	12806.269967
549.498811	12749.214188
549.857408	12620.077471
550.215949	12823.820744
550.574434	12798.473823
550.932864	12736.621386
551.291237	12937.821398
551.649555	12822.043738
552.007817	12886.603274
552.366022	12795.577680
552.724173	12836.037981
553.082267	12919.484200
553.440305	13019.699818
553.798288	12841.719361
554.156215	12916.270465
554.514086	12965.003299
554.871902	12899.790933
555.229661	12928.122218
555.587365	12881.791493
555.945014	12892.435889
556.302606	12882.751833
556.660143	12941.055298
557.017625	12975.025113
557.375050	12930.668000
557.732421	13038.246223
558.089735	13033.205069
558.446994	12997.508659
558.804197	13122.655303
559.161345	13112.242800
559.518437	12935.467179
559.875474	13018.938604
560.232455	13050.375239
560.589381	13092.385695
560.946251	13030.845809
561.303065	13211.298953
561.659825	13162.487980
562.016528	13079.659302
562.373177	13015.225794
562.729770	13140.067449
563.086307	13030.722301
563.442789	13128.699647
563.799216	13175.378211
564.155587	13119.416362
564.511904	13150.600940
564.868164	13149.063388
565.224370	13212.813819
565.580520	13154.671671
565.936615	13219.841188
566.292654	13153.212257
566.648638	13222.714645
567.004567	13223.251528
567.360441	13223.753123
567.716260	13198.411243
568.072023	13284.461218
568.427732	13277.605249
568.783385	13168.209690
569.138982	13288.214357
569.494525	13268.301800
569.850013	13223.284296
570.205445	13205.365514
570.560823	13217.635683
570.916145	13180.230321
571.271412	13188.210468
571.626625	13142.668684
571.981782	13144.042398
572.336884	13088.370416
572.691931	13176.179754
573.046923	13073.274681
573.401860	13036.950647
573.756743	13047.151422
574.111570	13064.961818
574.466342	13039.929969
574.821059	13096.970624
575.175722	12967.264257
575.530330	12986.586999
575.884882	12926.007453
576.239380	12918.186103
576.593823	12901.557857
576.948211	12894.593503
577.302544	12777.300977
577.656823	12799.529945
578.011047	12858.750899
578.365216	12790.347483
578.719330	12730.468658
579.073389	12699.079913
579.427394	12710.467880
579.781344	12707.183568
580.135239	12641.343578
580.489080	12659.620281
580.842866	12541.775748
581.196597	12637.633289
581.550273	12624.889252
581.903895	12588.744179
582.257463	12701.005634
582.610975	12544.182899
582.964434	12603.121550
583.317837	12524.724046
583.671186	12483.305926
584.024481	12539.287939
584.377721	12422.865012
584.730906	12489.809014
585.084037	12506.764935
585.437113	12422.456678
585.790135	12448.005246
586.143103	12359.003675
586.496016	12374.921118
586.848874	12385.971327
587.201679	12381.116696
587.554428	12253.840164
587.907124	12307.331848
588.259765	12240.322310
588.612352	12317.618322
588.964884	12173.464007
589.317362	12227.658932
589.669786	12216.757437
590.022155	12183.667303
590.374470	12282.673044
590.726731	12164.193325
591.078937	12046.011035
591.431090	12069.747308
591.783188	12004.804644
592.135232	11924.741038
592.487222	11988.932571
592.839157	12002.692400
593.191038	11932.970722
593.542866	11880.489790
593.894639	11735.125598
594.246358	11795.082561
594.598022	11796.226903
594.949633	11705.113089
595.301190	11690.241685
595.652692	11645.158646
596.004141	11737.167265
596.355535	11508.291319
596.706876	11495.398568
597.058162	11465.207098
597.409395	11550.768081
597.760573	11585.766292
598.111698	11481.858029
598.462768	11484.766775
598.813785	11491.035449
599.164748	11364.200019
599.515657	11447.837802
599.866511	11317.153450
600.217312	11449.145982
600.568060	11212.660413
600.918753	11372.467511
601.269392	11374.907429
601.619978	11279.044848
601.970510	11321.420787
602.320988	11365.316634
602.671412	11424.900552
603.021783	11364.252951
603.372100	11285.207658
603.722363	11300.434464
604.072572	11297.956737
604.422728	11303.590226
604.772830	11259.744790
605.122878	11258.938206
605.472872	11231.070707
605.822813	11288.786878
606.172701	11255.089285
606.522534	11288.814604
606.872314	11344.791576
607.222041	11274.714497
607.571714	11347.337359
607.921333	11216.947915
608.270899	11278.727255
608.620411	11336.352685
608.969870	11283.249170
609.319276	11262.580439
609.668627	11277.020825
610.017926	11364.376459
610.367171	11393.743701
610.716362	11385.241795
611.065500	11358.390089
611.414585	11363.214473
611.763616	11437.853797
612.112594	11398.968857
612.461518	11430.965060
612.810389	11473.126750
613.159207	11413.678944
613.507971	11410.797924
613.856682	11510.030517
614.205340	11476.350568
614.553945	11601.663571
614.902496	11490.105357
615.250994	11554.274204
615.599439	11535.102696
615.947830	11568.248282
616.296169	11533.600432
616.644454	11546.732638
616.992686	11561.079762
617.340864	11659.203301
617.688990	11547.609798
618.037063	11679.569562
618.385082	11646.292906
618.733048	11682.221209
619.080961	11677.207782
619.428821	11663.589104
619.776628	11664.516677
620.124382	11613.101949
620.472083	11633.939558
620.819731	11647.580920
621.167326	11574.920249
621.514868	11556.575491
621.862357	11463.528393
622.209793	11447.711773
622.557176	11368.802592
622.904506	11313.395270
623.251783	11227.695655
623.599007	11176.822851
623.946179	11132.546397
624.293297	11100.580440
624.640363	10960.577515
624.987376	10950.633839
625.334336	10884.587162
625.681243	10805.025152
626.028097	10778.112952
626.374899	10737.261962
626.721647	10712.852695
627.068343	10671.966417
627.414987	10605.433268
627.761577	10531.103975
628.108115	10597.576630
628.454600	10461.399941
628.801032	10482.464402
629.147412	10460.487492
629.493739	10431.876423
629.840014	10361.179282
630.186236	10402.602443
630.532405	10300.284664
630.878521	10343.550367
631.224585	10291.366863
631.570597	10218.910359
631.916556	10220.392458
632.262462	10206.436023
632.608316	10187.141007
632.954117	10163.223253
633.299866	10141.997474
633.645562	10122.780596
633.991206	10022.164206
634.336797	9923.329865
634.682336	9911.276466
635.027823	9854.485347
635.373257	9819.340943
635.718639	9753.843752
636.063968	9728.229649
636.409245	9600.617881
636.754470	9592.352909
637.099642	9538.677223
637.444762	9445.322616
637.789829	9448.677504
638.134845	9378.938181
638.479808	9356.230304
