Dividing Wavelength (nm)	Counts (n)	Blue Motor Position (mm): 19.300000	Red Motor Position (mm): 0.000000	
326.493990	2134.263222
326.888308	2134.263222
327.282561	2134.263222
327.676750	2099.885073
328.070874	2099.842223
328.464933	2104.943871
328.858929	2109.715323
329.252859	2118.073556
329.646726	2130.255504
330.040528	2143.044912
330.434265	2161.689619
330.827938	2179.202588
331.221547	2194.862932
331.615091	2215.496375
332.008571	2235.013202
332.401986	2254.202354
332.795338	2272.698347
333.188625	2291.907664
333.581847	2308.727474
333.975006	2330.527944
334.368100	2350.369925
334.761129	2366.254601
335.154095	2383.578526
335.546996	2402.404715
335.939833	2422.110586
336.332606	2437.808739
336.725315	2450.840121
337.117960	2460.861935
337.510540	2466.364355
337.903056	2480.199801
338.295508	2485.803044
338.687896	2496.462564
339.080220	2505.866836
339.472480	2511.273474
339.864676	2513.857065
340.256807	2522.535411
340.648875	2520.224042
341.040879	2522.835360
341.432818	2525.925587
341.824694	2529.156967
342.216506	2528.305012
342.608253	2527.758047
342.999937	2527.296781
343.391557	2527.228726
343.783113	2526.018849
344.174605	2525.078673
344.566033	2524.307377
344.957397	2521.229752
345.348697	2520.758405
345.739934	2519.089783
346.131106	2515.003927
346.522215	2514.638444
346.913260	2511.323885
347.304241	2509.740963
347.695159	2509.776251
348.086012	2507.422032
348.476802	2505.319871
348.867528	2504.830879
349.258191	2503.414315
349.648789	2502.489263
350.039324	2501.866681
350.429796	2498.652945
350.820203	2495.895434
351.210548	2501.201248
351.600828	2494.488952
351.991045	2497.027173
352.381198	2495.209837
352.771288	2493.626915
353.161314	2493.200937
353.551276	2494.257059
353.941175	2494.357882
354.331010	2495.063643
354.720782	2494.952738
355.110490	2493.793273
355.500135	2490.619866
355.889717	2492.422079
356.279235	2493.190855
356.668689	2497.564056
357.058080	2493.994919
357.447408	2494.226812
357.836672	2492.946359
358.225873	2494.461226
358.615010	2492.069198
359.004084	2495.897954
359.393095	2498.663027
359.782043	2497.891731
360.170927	2497.649755
360.559748	2498.151350
360.948505	2501.503718
361.337199	2499.635970
361.725830	2501.450785
362.114398	2501.894407
362.502903	2502.665703
362.891344	2503.187463
363.279722	2503.159737
363.668037	2504.450272
364.056289	2503.071516
364.444478	2505.554285
364.832603	2502.496825
365.220665	2503.409274
365.608665	2504.541013
365.996601	2507.235509
366.384474	2505.145951
366.772284	2508.102588
367.160031	2505.408091
367.547715	2507.416991
367.935336	2508.193329
368.322893	2509.914883
368.710388	2506.292814
369.097820	2507.779954
369.485189	2509.660304
369.872495	2508.190808
370.259738	2507.931189
370.646918	2508.178205
371.034035	2508.437825
371.421090	2509.912362
371.808081	2510.565192
372.195010	2507.298524
372.581875	2509.335150
372.968678	2510.126611
373.355418	2510.603000
373.742096	2509.052845
374.128710	2509.914883
374.515262	2510.913031
374.901751	2513.229441
375.288177	2512.992507
375.674540	2511.964112
376.060841	2512.811026
376.447079	2512.868999
376.833254	2511.638957
377.219367	2505.518997
377.605417	2512.475789
377.991404	2508.369769
378.377329	2511.828001
378.763191	2506.219717
379.148991	2515.414782
379.534727	2511.250788
379.920402	2514.209946
380.306013	2511.011334
380.691563	2513.846983
381.077049	2514.318331
381.462474	2514.749349
381.847835	2514.262878
382.233134	2516.675070
382.618371	2514.688855
383.003545	2514.756911
383.388657	2518.154649
383.773706	2513.501664
384.158693	2516.612056
384.543618	2514.996366
384.928480	2517.494258
385.313280	2515.447549
385.698017	2517.101048
386.082692	2515.238341
386.467305	2518.290760
386.851856	2517.060718
387.236344	2517.320338
387.620770	2519.666995
388.005133	2518.507529
388.389435	2520.793693
388.773674	2519.041892
389.157851	2518.348733
389.541965	2519.278826
389.926018	2517.882426
390.310008	2520.891995
390.693936	2520.075328
391.077802	2519.044412
391.461606	2517.693383
391.845348	2522.212778
392.229027	2519.253620
392.612645	2523.047088
392.996200	2522.343847
393.379694	2522.749660
393.763125	2521.932993
394.146494	2521.204547
394.529801	2524.541791
394.913047	2522.270751
395.296230	2524.670340
395.679351	2523.097500
396.062410	2521.217150
396.445408	2524.856863
396.828343	2524.357788
397.211217	2519.871162
397.594028	2521.507016
397.976778	2519.989629
398.359466	2522.830319
398.742092	2520.750843
399.124656	2522.139681
399.507158	2524.188910
399.889598	2523.538601
400.271977	2525.315608
400.654294	2523.462984
401.036549	2523.278982
401.418742	2525.880217
401.800874	2527.400125
402.182944	2527.407687
402.564952	2526.399456
402.946898	2526.351565
403.328783	2523.606657
403.710606	2527.238808
404.092367	2526.457429
404.474067	2526.132275
404.855705	2523.525998
405.237282	2528.657893
405.618797	2529.061185
406.000250	2525.655886
406.381642	2525.897861
406.762972	2527.780732
407.144240	2524.619928
407.525447	2528.877183
407.906593	2528.095804
408.287677	2526.651513
408.668700	2525.597912
409.049661	2529.842564
409.430560	2529.885414
409.811399	2532.025383
410.192176	2525.461801
410.572891	2530.059333
410.953545	2530.291227
411.334138	2530.996988
411.714669	2532.080836
412.095139	2530.535723
412.475547	2530.008922
412.855894	2529.711494
413.236180	2528.428520
413.616405	2532.915147
413.996568	2532.131248
414.376670	2530.087060
414.756711	2531.664941
415.136691	2530.896165
415.516609	2528.110928
415.896466	2530.835671
416.276262	2531.755682
416.655997	2526.394415
417.035670	2527.122861
417.415283	2529.905578
417.794834	2526.059178
418.174324	2528.627646
418.553753	2533.396577
418.933121	2532.642925
419.312428	2531.627132
419.691674	2532.731145
420.070859	2530.961700
420.449983	2534.422452
420.829045	2530.497914
421.208047	2532.816845
421.586988	2532.509334
421.965867	2531.911958
422.344686	2533.749458
422.723444	2536.017977
423.102141	2532.025383
423.480777	2534.253573
423.859352	2533.734335
424.237866	2531.942204
424.616319	2535.844057
424.994712	2534.815662
425.373044	2534.926568
425.751314	2536.542257
426.129524	2532.834489
426.507673	2536.373379
426.885762	2537.981507
427.263789	2536.396064
427.641756	2532.862215
428.019662	2534.747607
428.397508	2536.665766
428.775292	2533.429345
429.153016	2535.498738
429.530679	2536.874973
429.908282	2536.232226
430.285824	2536.408667
430.663305	2533.658717
431.040726	2537.489994
431.418086	2533.157123
431.795385	2535.796167
432.172624	2537.560570
432.549802	2538.757844
432.926920	2537.618544
433.303977	2539.332536
433.680974	2537.011085
434.057910	2536.877494
434.434786	2538.609130
434.811601	2535.912113
435.188355	2538.157947
435.565050	2536.902700
435.941683	2540.083668
436.318257	2535.123172
436.694770	2535.188708
437.071222	2533.898172
437.447614	2536.002854
437.823946	2533.948584
438.200218	2535.881866
438.576429	2540.668442
438.952580	2537.384130
439.328670	2538.097453
439.704700	2541.790098
440.080670	2538.951929
440.456580	2539.617361
440.832429	2538.856147
441.208218	2539.675334
441.583947	2538.929244
441.959616	2539.236754
442.335224	2541.729605
442.710773	2538.959491
443.086261	2539.945036
443.461689	2538.367155
443.837057	2539.897145
444.212365	2539.962680
444.587612	2541.462423
444.962800	2539.274563
445.337927	2539.899666
445.712995	2538.273894
446.088002	2541.759852
446.462949	2540.023174
446.837837	2542.538710
447.212664	2540.451672
447.587431	2541.091899
447.962139	2541.868236
448.336786	2544.804708
448.711374	2543.607434
449.085901	2541.003678
449.460369	2545.039122
449.834776	2540.925541
450.209124	2540.965870
450.583412	2543.778834
450.957640	2544.371169
451.331808	2543.239430
451.705917	2542.117773
452.079965	2543.705737
452.453954	2542.740356
452.827883	2543.786395
453.201752	2540.824718
453.575562	2543.703216
453.949311	2542.458051
454.323001	2544.663556
454.696632	2543.829245
455.070202	2543.277239
455.443713	2543.798998
455.817164	2542.601724
456.190556	2540.917979
456.563888	2541.011240
456.937160	2541.235572
457.310373	2544.867723
457.683526	2544.217414
458.056619	2543.287321
458.429653	2545.512991
458.802628	2543.282280
459.175542	2543.390665
459.548398	2546.301931
459.921194	2544.272867
460.293930	2544.199770
460.666607	2547.542055
461.039224	2547.370656
461.411782	2547.443752
461.784280	2548.358722
462.156719	2549.334185
462.529099	2546.485933
462.901419	2548.358722
463.273680	2548.260419
463.645882	2545.946530
464.018024	2546.148176
464.390106	2547.189174
464.762130	2549.124977
465.134094	2547.007693
465.505999	2549.142621
465.877845	2548.756973
466.249631	2550.536500
466.621358	2552.250493
466.993026	2554.748384
467.364634	2553.820812
467.736184	2548.129349
468.107674	2546.954761
468.479105	2551.280071
468.850477	2549.503064
469.221790	2548.663712
469.593043	2547.660522
469.964238	2548.686397
470.335373	2551.390976
470.706449	2550.753270
471.077467	2551.010369
471.448425	2551.348126
471.819324	2552.895760
472.190164	2551.985832
472.560945	2550.130687
472.931667	2552.126984
473.302330	2548.855276
473.672934	2549.883671
474.043479	2550.758311
474.413965	2551.383414
474.784393	2549.097251
475.154761	2548.809905
475.525070	2549.092210
475.895321	2549.203115
476.265513	2545.505429
476.635645	2552.008517
477.005719	2551.305276
477.375734	2553.546069
477.745691	2552.931048
478.115588	2552.265616
478.485427	2555.718807
478.855207	2555.096224
479.224928	2554.645041
479.594591	2556.124619
479.964194	2556.227963
480.333739	2556.699311
480.703226	2555.343241
481.072653	2556.825340
481.442022	2558.889692
481.811333	2558.330124
482.180584	2556.664023
482.549777	2558.292316
482.918912	2556.359033
483.287988	2559.855073
483.657005	2557.974723
484.025964	2559.353478
484.394864	2554.773590
484.763706	2562.955383
485.132489	2559.131668
485.501213	2561.944632
485.869879	2562.277348
486.238487	2560.248283
486.607036	2561.969837
486.975527	2562.657955
487.343959	2563.038562
487.712333	2563.257852
488.080648	2562.849519
488.448905	2564.558470
488.817104	2562.327759
489.185244	2565.102914
489.553326	2566.307750
489.921350	2567.895714
490.289315	2569.309757
490.657222	2575.558267
491.025070	2573.428380
491.392861	2575.505335
491.760593	2573.282187
492.128267	2579.618917
492.495883	2577.380645
492.863440	2578.257805
493.230939	2578.903073
493.598380	2582.908270
493.965763	2575.381827
494.333088	2583.619072
494.700354	2582.578074
495.067563	2588.120823
495.434713	2586.774835
495.801805	2596.595003
496.168839	2596.461412
496.535815	2600.234716
496.902733	2604.146651
497.269593	2609.044132
497.636395	2613.671911
498.003139	2619.885133
498.369825	2621.745319
498.736453	2628.175311
499.103023	2630.360651
499.469535	2636.311733
499.835989	2641.738535
500.202385	2650.502581
500.568723	2652.937458
500.935003	2663.725528
501.301226	2670.878925
501.667390	2677.772703
502.033497	2688.878365
502.399546	2691.610670
502.765537	2698.965714
503.131470	2706.676158
503.497345	2721.265258
503.863163	2722.245762
504.228923	2738.135479
504.594625	2748.033785
504.960269	2754.975453
505.325856	2768.591610
505.691385	2776.276849
506.056856	2793.000877
506.422270	2805.545788
506.787625	2813.800678
507.152924	2832.473112
507.518164	2840.964935
507.883347	2857.857842
508.248472	2865.071733
508.613540	2890.905126
508.978550	2906.963721
509.343503	2920.153900
509.708398	2942.176181
510.073236	2964.447999
510.438016	2983.140597
510.802738	2999.103411
511.167403	3024.331865
511.532010	3045.499670
511.896561	3071.701067
512.261053	3100.443206
512.625488	3113.945937
512.989866	3134.158443
513.354186	3158.114006
513.718449	3178.359280
514.082655	3218.307903
514.446803	3241.540061
514.810894	3273.047272
515.174927	3293.032927
515.538904	3322.064932
515.902822	3364.937425
516.266684	3384.335785
516.630488	3415.772420
516.994235	3448.643264
517.357925	3492.287053
517.721558	3528.835419
518.085133	3567.755647
518.448651	3600.944083
518.812112	3626.442239
519.175516	3666.945390
519.538863	3716.257957
519.902152	3738.852408
520.265385	3809.216834
520.628560	3822.865758
520.991678	3869.577089
521.354739	3912.247936
521.717743	3943.727421
522.080690	3975.249756
522.443580	4052.835635
522.806413	4091.526490
523.169189	4134.497286
523.531908	4195.301163
523.894569	4205.789283
524.257174	4258.028240
524.619722	4331.341741
524.982213	4350.931664
525.344647	4424.716513
525.707025	4452.488229
526.069345	4522.328375
526.431608	4571.489707
526.793815	4641.707939
527.155964	4648.347138
527.518057	4703.459553
527.880093	4744.313064
528.242072	4811.746058
528.603995	4844.949618
528.965860	4874.984812
529.327669	4946.198672
529.689421	4983.820803
530.051117	5026.302607
530.412755	5118.288541
530.774337	5134.846211
531.135862	5197.028844
531.497331	5241.592644
531.858743	5260.277680
532.220098	5363.165110
532.581396	5376.955186
532.942638	5427.404533
533.303824	5468.666378
533.664953	5538.330082
534.026025	5559.109719
534.387040	5656.557743
534.747999	5705.572882
535.108902	5794.317354
535.469748	5755.387044
535.830537	5847.609912
536.191270	5903.004631
536.551947	5973.898378
536.912567	6026.689341
537.273131	6046.370005
537.633638	6089.121511
537.994089	6149.978320
538.354483	6182.334966
538.714821	6294.241019
539.075103	6358.505649
539.435328	6402.822432
539.795497	6368.860179
540.155609	6507.081055
540.515665	6598.036074
540.875665	6533.242123
541.235609	6628.688810
541.595496	6675.216139
541.955328	6816.970865
542.315102	6806.003834
542.674821	6840.102199
543.034483	6888.623305
543.394090	6946.460463
543.753640	6969.710264
544.113134	7141.348950
544.472571	7118.545291
544.831953	7262.692044
545.191278	7208.300514
545.550548	7268.378465
545.909761	7397.336222
546.268918	7448.829088
546.628019	7548.079325
546.987064	7525.646190
547.346053	7520.174018
547.704986	7650.162690
548.063863	7684.540839
548.422684	7720.441416
548.781449	7731.935247
549.140158	7841.474478
549.498811	7823.895975
549.857408	7763.807942
550.215949	7976.378276
550.574434	7925.898682
550.932864	8046.909059
551.291237	8117.346582
551.649555	8146.308010
552.007817	8200.412194
552.366022	8215.175213
552.724173	8266.327801
553.082267	8298.006412
553.440305	8448.142056
553.798288	8337.216507
554.156215	8500.590220
554.514086	8533.153554
554.871902	8461.407852
555.229661	8530.668265
555.587365	8549.388590
555.945014	8514.123198
556.302606	8655.225094
556.660143	8605.657949
557.017625	8771.705995
557.375050	8733.027742
557.732421	8876.052838
558.089735	8854.829581
558.446994	8885.492399
558.804197	8957.943862
559.161345	8994.822423
559.518437	8907.184484
559.875474	9020.207153
560.232455	9082.954395
560.589381	9066.076612
560.946251	9112.382131
561.303065	9216.807112
561.659825	9212.965753
562.016528	9189.126136
562.373177	9114.630485
562.729770	9248.311803
563.086307	9208.768992
563.442789	9308.926637
563.799216	9253.884798
564.155587	9315.492740
564.511904	9311.238006
564.868164	9330.711983
565.224370	9365.705153
565.580520	9334.323970
565.936615	9357.742650
566.292654	9278.042008
566.648638	9408.509590
567.004567	9399.947190
567.360441	9413.704499
567.716260	9354.420530
568.072023	9466.901275
568.427732	9447.964180
568.783385	9381.211742
569.138982	9467.206265
569.494525	9508.790743
569.850013	9414.775744
570.205445	9511.989355
570.560823	9432.011449
570.916145	9378.630671
571.271412	9460.612435
571.626625	9426.874513
571.981782	9424.797558
572.336884	9419.847145
572.691931	9440.316750
573.046923	9408.197038
573.401860	9384.680056
573.756743	9345.371658
574.111570	9399.143126
574.466342	9397.290502
574.821059	9437.276934
575.175722	9353.750056
575.530330	9374.895176
575.884882	9377.834169
576.239380	9325.469183
576.593823	9312.016864
576.948211	9341.371503
577.302544	9238.211851
577.656823	9267.112786
578.011047	9280.771792
578.365216	9263.031972
578.719330	9203.170791
579.073389	9221.255930
579.427394	9186.983646
579.781344	9170.075616
580.135239	9131.810738
580.489080	9154.314448
580.842866	9059.165190
581.196597	9075.226306
581.550273	9112.359445
581.903895	9096.026107
582.257463	9170.032766
582.610975	9057.254593
582.964434	9089.515457
583.317837	9020.260085
583.671186	9003.084874
584.024481	9007.427828
584.377721	8938.227909
584.730906	8920.755270
585.084037	8957.399417
585.437113	8898.732989
585.790135	8926.466897
586.143103	8824.910332
586.496016	8810.006161
586.848874	8870.948670
587.201679	8866.862815
587.554428	8756.438860
587.907124	8800.241446
588.259765	8782.115978
588.612352	8787.230228
588.964884	8664.289089
589.317362	8685.013272
589.669786	8684.945217
590.022155	8737.007733
590.374470	8759.024972
590.726731	8700.156898
591.078937	8560.751350
591.431090	8671.825614
591.783188	8545.403557
592.135232	8546.391624
592.487222	8544.329792
592.839157	8598.010518
593.191038	8528.777832
593.542866	8483.324268
593.894639	8386.788693
594.246358	8434.442720
594.598022	8453.016852
594.949633	8358.066719
595.301190	8333.375147
595.652692	8368.264973
596.004141	8473.579718
596.355535	8255.509485
596.706876	8237.126917
597.058162	8181.409565
597.409395	8251.859690
597.760573	8311.935120
598.111698	8225.789362
598.462768	8211.689255
598.813785	8180.988628
599.164748	8143.497567
599.515657	8137.783419
599.866511	8059.617808
600.217312	8176.963267
600.568060	8038.656691
600.918753	8146.000500
601.269392	8112.847352
601.619978	8028.226543
601.970510	8089.766429
602.320988	8090.688960
602.671412	8149.007548
603.021783	8085.665450
603.372100	8055.789052
603.722363	8057.235863
604.072572	8037.872791
604.422728	8050.528608
604.772830	7975.785940
605.122878	7990.813620
605.472872	7986.783217
605.822813	8010.416147
606.172701	7955.880944
606.522534	8030.847943
606.872314	8028.889455
607.222041	8001.347111
607.571714	8060.557983
607.921333	8018.325717
608.270899	8026.295781
608.620411	8111.012372
608.969870	8016.652054
609.319276	8007.908173
609.668627	8027.291409
610.017926	8063.943118
610.367171	8111.559337
610.716362	8087.964216
611.065500	8081.619924
611.414585	8111.874409
611.763616	8095.248684
612.112594	8076.319151
612.461518	8092.912109
612.810389	8153.995770
613.159207	8093.320442
613.507971	8040.748769
613.856682	8159.916605
614.205340	8119.373125
614.553945	8195.371040
614.902496	8092.826409
615.250994	8142.675859
615.599439	8132.880897
615.947830	8145.052763
616.296169	8117.868341
616.644454	8132.575907
616.992686	8122.491079
617.340864	8182.561468
617.688990	8090.431861
618.037063	8171.639808
618.385082	8130.113304
618.733048	8212.480716
619.080961	8155.248497
619.428821	8170.001433
619.776628	8177.222886
620.124382	8122.753219
620.472083	8110.346939
620.819731	8139.182339
621.167326	8032.340125
621.514868	8038.036629
621.862357	7931.181811
622.209793	7946.113709
622.557176	7886.701190
622.904506	7850.414965
623.251783	7794.042262
623.599007	7743.943275
623.946179	7743.570230
624.293297	7707.054632
624.640363	7625.241746
624.987376	7610.070393
625.334336	7554.310191
625.681243	7502.706419
626.028097	7488.729820
626.374899	7464.010523
626.721647	7460.703526
627.068343	7397.391674
627.414987	7362.595110
627.761577	7322.366702
628.108115	7357.944646
628.454600	7252.743327
628.801032	7302.423898
629.147412	7269.878208
629.493739	7251.656958
629.840014	7186.963831
630.186236	7247.606391
630.532405	7132.786550
630.878521	7181.113572
631.224585	7135.775954
631.570597	7063.682413
631.916556	7094.342711
632.262462	7090.219047
632.608316	7052.362502
632.954117	7031.358535
633.299866	7021.011567
633.645562	7011.917325
633.991206	6931.957063
634.336797	6876.093517
634.682336	6834.728329
635.027823	6802.938813
635.373257	6794.646115
635.718639	6724.259004
636.063968	6736.332568
636.409245	6634.612165
636.754470	6632.462113
637.099642	6592.243788
637.444762	6531.770106
637.789829	6540.861827
638.134845	6485.252859
638.479808	6471.356919
638.824719	6480.809082
639.169577	6404.841414
639.514383	6429.767399
639.859137	6351.662282
640.203839	6363.572008
640.548489	6350.275965
640.893086	6322.587427
641.237632	6298.745290
641.582125	6315.360933
641.926566	6287.105266
642.270955	6301.389376
642.615292	6298.478109
642.959576	6309.223329
643.303809	6297.492564
643.647990	6308.573020
643.992118	6296.721267
644.336195	6246.415593
