Dividing Wavelength (nm)	Counts (n)	Blue Motor Position (mm): 2.800000	Red Motor Position (mm): 0.000000	
326.493990	2064.654969
326.888308	2064.654969
327.282561	2064.654969
327.676750	2038.587163
328.070874	2039.897863
328.464933	2047.615869
328.858929	2054.272713
329.252859	2064.067675
329.646726	2080.189285
330.040528	2095.101018
330.434265	2110.801692
330.827938	2135.422687
331.221547	2156.847591
331.615091	2173.606907
332.008571	2195.798066
332.401986	2217.119626
332.795338	2235.613099
333.188625	2256.173445
333.581847	2273.825045
333.975006	2290.496141
334.368100	2309.493729
334.761129	2327.087356
335.154095	2342.656960
335.546996	2358.750843
335.939833	2373.103008
336.332606	2383.840666
336.725315	2396.234343
337.117960	2404.902607
337.510540	2416.393917
337.903056	2423.159146
338.295508	2433.382606
338.687896	2439.152206
339.080220	2442.290324
339.472480	2447.371808
339.864676	2448.526232
340.256807	2455.982098
340.648875	2456.879424
341.040879	2458.974023
341.432818	2457.658282
341.824694	2460.539301
342.216506	2458.825309
342.608253	2458.495113
342.999937	2455.868672
343.391557	2459.163066
343.783113	2456.297170
344.174605	2455.127623
344.566033	2454.991512
344.957397	2452.881789
345.348697	2449.736109
345.739934	2448.972374
346.131106	2446.867692
346.522215	2444.702517
346.913260	2440.984666
347.304241	2442.305448
347.695159	2439.021136
348.086012	2440.180602
348.476802	2437.082813
348.867528	2432.139961
349.258191	2428.706935
349.648789	2431.532502
350.039324	2426.113262
350.429796	2432.523089
350.820203	2431.971083
351.210548	2431.464447
351.600828	2430.478901
351.991045	2429.130392
352.381198	2427.930598
352.771288	2429.059816
353.161314	2428.996802
353.551276	2428.366657
353.941175	2427.751637
354.331010	2429.180804
354.720782	2426.902202
355.110490	2431.391350
355.500135	2426.592171
355.889717	2429.362285
356.279235	2429.594178
356.668689	2430.478901
357.058080	2428.454878
357.447408	2430.768767
357.836672	2428.621236
358.225873	2431.998809
358.615010	2430.141144
359.004084	2431.540064
359.393095	2430.758685
359.782043	2433.513676
360.170927	2432.097111
360.559748	2431.371185
360.948505	2434.090888
361.337199	2436.175405
361.725830	2436.487956
362.114398	2435.091557
362.502903	2435.388985
362.891344	2434.874787
363.279722	2438.075920
363.668037	2438.522062
364.056289	2434.879828
364.444478	2437.140786
364.832603	2438.927875
365.220665	2437.544078
365.608665	2438.622885
365.996601	2438.632967
366.384474	2440.561209
366.772284	2438.940478
367.160031	2442.587753
367.547715	2440.906528
367.935336	2439.202618
368.322893	2439.177412
368.710388	2435.101639
369.097820	2441.735797
369.485189	2439.376537
369.872495	2441.355190
370.259738	2442.968360
370.646918	2445.486416
371.034035	2443.356528
371.421090	2443.517845
371.808081	2444.364759
372.195010	2443.006168
372.581875	2443.164965
372.968678	2442.617999
373.355418	2445.103288
373.742096	2446.550099
374.128710	2444.737805
374.515262	2444.271498
374.901751	2445.894749
375.288177	2443.981632
375.674540	2446.096396
376.060841	2445.279729
376.447079	2444.289142
376.833254	2446.303083
377.219367	2443.369131
377.605417	2447.069338
377.991404	2448.294339
378.377329	2446.590429
378.763191	2447.528083
379.148991	2445.357867
379.534727	2445.141097
379.920402	2451.341716
380.306013	2447.079421
380.691563	2448.183433
381.077049	2447.949020
381.462474	2448.798454
381.847835	2446.729060
382.233134	2449.821808
382.618371	2448.299380
383.003545	2450.817436
383.388657	2450.489761
383.773706	2450.343568
384.158693	2451.114864
384.543618	2453.368260
384.928480	2452.576799
385.313280	2450.409103
385.698017	2453.307766
386.082692	2452.039916
386.467305	2454.628548
386.851856	2453.287602
387.236344	2452.602005
387.620770	2450.956068
388.005133	2448.783331
388.389435	2450.527570
388.773674	2448.405244
389.157851	2452.271809
389.541965	2454.038733
389.926018	2452.178548
390.310008	2453.733744
390.693936	2451.152673
391.077802	2453.595112
391.461606	2455.041923
391.845348	2453.380863
392.229027	2454.499999
392.612645	2453.736264
392.996200	2455.772890
393.379694	2456.483693
393.763125	2455.142746
394.146494	2454.794907
394.529801	2455.765329
394.913047	2458.837912
395.296230	2455.364557
395.679351	2456.899588
396.062410	2455.412448
396.445408	2455.583847
396.828343	2456.329938
397.211217	2455.631738
397.594028	2460.314970
397.976778	2457.680967
398.359466	2460.766153
398.742092	2455.581327
399.124656	2457.963272
399.507158	2455.712397
399.889598	2457.549897
400.271977	2460.299847
400.654294	2457.353292
401.036549	2461.534929
401.418742	2457.222222
401.800874	2457.938066
402.182944	2459.442850
402.564952	2461.529888
402.946898	2458.971502
403.328783	2459.841102
403.710606	2460.052830
404.092367	2457.607870
404.474067	2460.826647
404.855705	2459.546194
405.237282	2459.831019
405.618797	2460.458643
406.000250	2463.498459
406.381642	2459.256328
406.762972	2459.142902
407.144240	2458.414455
407.525447	2457.930504
407.906593	2457.847325
408.287677	2462.207923
408.668700	2460.856894
409.049661	2461.149281
409.430560	2464.052986
409.811399	2465.343521
410.192176	2464.388222
410.572891	2462.507872
410.953545	2462.777574
411.334138	2461.741617
411.714669	2465.658593
412.095139	2464.680609
412.475547	2461.739096
412.855894	2464.027780
413.236180	2463.664817
413.616405	2465.613223
413.996568	2462.119703
414.376670	2463.959724
414.756711	2462.613736
415.136691	2461.802110
415.516609	2469.885601
415.896466	2463.344703
416.276262	2462.578448
416.655997	2466.054324
417.035670	2463.543829
417.415283	2471.032463
417.794834	2466.470219
418.174324	2465.850157
418.553753	2465.782101
418.933121	2466.145064
419.312428	2465.784622
419.691674	2464.660445
420.070859	2467.160857
420.449983	2468.101032
420.829045	2466.487863
421.208047	2466.432410
421.586988	2470.314099
421.965867	2468.005250
422.344686	2467.586834
422.723444	2471.145889
423.102141	2468.486680
423.480777	2466.923923
423.859352	2468.136320
424.237866	2466.520630
424.616319	2467.649849
424.994712	2469.469705
425.373044	2468.383337
425.751314	2466.535754
426.129524	2464.778912
426.507673	2468.196814
426.885762	2464.839406
427.263789	2467.813686
427.641756	2468.900055
428.019662	2471.196301
428.397508	2470.535909
428.775292	2470.646815
429.153016	2468.801753
429.530679	2468.847123
429.908282	2470.704788
430.285824	2472.418780
430.663305	2469.182360
431.040726	2469.762092
431.418086	2468.862246
431.795385	2471.261836
432.172624	2472.307875
432.549802	2469.111783
432.926920	2469.746969
433.303977	2472.002885
433.680974	2470.727473
434.057910	2469.752010
434.434786	2469.189921
434.811601	2470.987093
435.188355	2470.490539
435.565050	2472.912813
435.941683	2470.465333
436.318257	2472.373410
436.694770	2471.586990
437.071222	2469.900724
437.447614	2472.136476
437.823946	2468.960549
438.200218	2470.551033
438.576429	2473.248050
438.952580	2470.324181
439.328670	2472.948102
439.704700	2471.624799
440.080670	2472.012967
440.456580	2473.537917
440.832429	2472.159161
441.208218	2472.300313
441.583947	2471.811321
441.959616	2472.350725
442.335224	2472.590180
442.710773	2471.425673
443.086261	2470.183029
443.461689	2472.244861
443.837057	2476.061014
444.212365	2473.973976
444.587612	2470.818214
444.962800	2470.246043
445.337927	2471.652525
445.712995	2468.743779
446.088002	2474.349542
446.462949	2473.830303
446.837837	2476.005561
447.212664	2472.890128
447.587431	2474.987248
447.962139	2470.588842
448.336786	2476.406333
448.711374	2475.705613
449.085901	2475.312403
449.460369	2474.717547
449.834776	2477.412043
450.209124	2475.221662
450.583412	2473.580766
450.957640	2475.219141
451.331808	2475.342650
451.705917	2474.583956
452.079965	2476.761734
452.453954	2474.092443
452.827883	2478.049749
453.201752	2474.805767
453.575562	2477.215438
453.949311	2476.736529
454.323001	2475.246868
454.696632	2476.497074
455.070202	2475.758545
455.443713	2476.272742
455.817164	2476.721405
456.190556	2476.469348
456.563888	2476.595376
456.937160	2476.121508
457.310373	2474.173102
457.683526	2475.403143
458.056619	2476.363483
458.429653	2475.272073
458.802628	2479.272229
459.175542	2474.188225
459.548398	2478.659729
459.921194	2476.078658
460.293930	2477.338947
460.666607	2475.125880
461.039224	2477.704430
461.411782	2477.379276
461.784280	2476.776858
462.156719	2478.143011
462.529099	2478.899184
462.901419	2478.258957
463.273680	2474.616723
463.645882	2475.214100
464.018024	2476.050932
464.390106	2473.457258
464.762130	2475.514049
465.134094	2479.214256
465.505999	2474.992289
465.877845	2476.010603
466.249631	2475.599748
466.621358	2478.911787
466.993026	2476.867599
467.364634	2481.858341
467.736184	2479.562095
468.107674	2481.112250
468.479105	2478.276601
468.850477	2477.071765
469.221790	2479.957826
469.593043	2478.200984
469.964238	2476.610500
470.335373	2477.318782
470.706449	2479.791468
471.077467	2476.960860
471.448425	2478.868937
471.819324	2480.555203
472.190164	2477.414564
472.560945	2480.605614
472.931667	2479.020171
473.302330	2475.874491
473.672934	2481.576036
474.043479	2477.659060
474.413965	2481.407158
474.784393	2479.458752
475.154761	2481.250882
475.525070	2476.731487
475.895321	2477.752321
476.265513	2480.051087
476.635645	2480.456900
477.005719	2480.681232
477.375734	2476.658391
477.745691	2479.476396
478.115588	2481.197950
478.485427	2483.219452
478.855207	2480.885398
479.224928	2480.497229
479.594591	2481.848259
479.964194	2480.547641
480.333739	2479.294914
480.703226	2481.601242
481.072653	2481.414719
481.442022	2481.031592
481.811333	2478.228710
482.180584	2477.717033
482.549777	2479.483958
482.918912	2476.063535
483.287988	2479.625110
483.657005	2480.779534
484.025964	2481.757518
484.394864	2480.494709
484.763706	2483.262302
485.132489	2482.077631
485.501213	2480.267857
485.869879	2481.555872
486.238487	2482.201139
486.607036	2483.748774
486.975527	2478.349698
487.343959	2483.584936
487.712333	2480.207363
488.080648	2480.076293
488.448905	2480.693834
488.817104	2479.410861
489.185244	2478.977322
489.553326	2480.547641
489.921350	2481.003865
490.289315	2481.772641
490.657222	2480.832466
491.025070	2480.784575
491.392861	2481.349184
491.760593	2478.831128
492.128267	2481.651654
492.495883	2481.389514
492.863440	2479.408340
493.230939	2480.668629
493.598380	2482.596870
493.965763	2481.399596
494.333088	2479.937661
494.700354	2480.764411
495.067563	2479.703248
495.434713	2482.836325
495.801805	2483.794144
496.168839	2484.822539
496.535815	2484.782210
496.902733	2485.404793
497.269593	2483.237097
497.636395	2481.679380
498.003139	2479.632672
498.369825	2484.242807
498.736453	2480.729122
499.103023	2484.439412
499.469535	2482.319607
499.835989	2482.637199
500.202385	2479.557054
500.568723	2478.190902
500.935003	2481.964205
501.301226	2478.725264
501.667390	2482.957313
502.033497	2481.684421
502.399546	2481.513022
502.765537	2479.957826
503.131470	2485.089721
503.497345	2484.406644
503.863163	2485.087200
504.228923	2485.377066
504.594625	2481.427322
504.960269	2483.360605
505.325856	2483.703403
505.691385	2483.138794
506.056856	2482.622076
506.422270	2483.078300
506.787625	2482.826242
507.152924	2481.868423
507.518164	2483.526963
507.883347	2484.222642
508.248472	2483.254741
508.613540	2483.574854
508.978550	2482.059987
509.343503	2481.291211
509.708398	2485.079638
510.073236	2484.782210
510.438016	2482.904380
510.802738	2482.112919
511.167403	2482.614514
511.532010	2481.780203
511.896561	2484.252889
512.261053	2481.603763
512.625488	2481.956643
512.989866	2483.441263
513.354186	2483.000162
513.718449	2482.175934
514.082655	2483.441263
514.446803	2481.931438
514.810894	2484.028558
515.174927	2480.930769
515.538904	2485.067035
515.902822	2482.370018
516.266684	2484.204998
516.630488	2484.217601
516.994235	2480.822384
517.357925	2486.193733
517.721558	2484.504947
518.085133	2483.499237
518.448651	2482.516212
518.812112	2480.587970
519.175516	2483.771459
519.538863	2477.737198
519.902152	2484.439412
520.265385	2483.884885
520.628560	2482.329689
520.991678	2481.497898
521.354739	2484.885554
521.717743	2482.402786
522.080690	2483.579895
522.443580	2484.552838
522.806413	2483.753815
523.169189	2482.707775
523.531908	2484.991418
523.894569	2483.887405
524.257174	2486.143322
524.619722	2482.180975
524.982213	2485.651809
525.344647	2482.029740
525.707025	2485.707262
526.069345	2482.884216
526.431608	2484.252889
526.793815	2483.242138
527.155964	2485.636686
527.518057	2484.688949
527.880093	2485.964361
528.242072	2485.654330
528.603995	2482.491006
528.965860	2486.183651
529.327669	2484.177272
529.689421	2485.619042
530.051117	2482.828763
530.412755	2483.912611
530.774337	2484.789772
531.135862	2483.287508
531.497331	2483.932776
531.858743	2482.175934
532.220098	2486.143322
532.581396	2482.664926
532.942638	2487.396048
533.303824	2482.354895
533.664953	2485.976964
534.026025	2484.265492
534.387040	2485.167858
534.747999	2484.925883
535.108902	2483.751294
535.469748	2485.286326
535.830537	2485.046871
536.191270	2485.800523
536.551947	2485.303970
536.912567	2482.004534
537.273131	2482.904380
537.633638	2478.289204
537.994089	2485.382108
538.354483	2482.750625
538.714821	2485.245996
539.075103	2481.502940
539.435328	2487.466625
539.795497	2485.780359
540.155609	2484.630976
540.515665	2485.719865
540.875665	2487.746409
541.235609	2482.866572
541.595496	2484.875472
541.955328	2484.567961
542.315102	2484.643578
542.674821	2483.915132
543.034483	2485.172900
543.394090	2484.202477
543.753640	2483.917652
544.113134	2484.872951
544.472571	2486.783548
544.831953	2482.433033
545.191278	2487.635503
545.550548	2485.372025
545.909761	2485.898826
546.268918	2484.736840
546.628019	2485.616521
546.987064	2483.380769
547.346053	2486.198774
547.704986	2483.080821
548.063863	2487.519557
548.422684	2486.944865
548.781449	2490.506440
549.140158	2484.068887
549.498811	2486.390338
549.857408	2480.280460
550.215949	2485.997128
550.574434	2486.153404
550.932864	2485.238435
551.291237	2485.906388
551.649555	2483.799185
552.007817	2486.390338
552.366022	2485.031747
552.724173	2484.842704
553.082267	2484.270533
553.440305	2485.525780
553.798288	2488.099289
554.156215	2485.601398
554.514086	2482.685090
554.871902	2479.413381
555.229661	2487.088538
555.587365	2481.276088
555.945014	2486.463435
556.302606	2482.637199
556.660143	2487.879999
557.017625	2487.136429
557.375050	2487.431337
557.732421	2484.081490
558.089735	2484.988897
558.446994	2486.372694
558.804197	2487.277581
559.161345	2484.411685
559.518437	2487.023003
559.875474	2486.758343
560.232455	2487.267499
560.589381	2483.741212
560.946251	2482.307004
561.303065	2490.234218
561.659825	2488.540390
562.016528	2484.109216
562.373177	2486.097951
562.729770	2488.777325
563.086307	2489.437716
563.442789	2484.923362
563.799216	2488.018631
564.155587	2486.206336
564.511904	2484.441932
564.868164	2485.130050
565.224370	2485.137612
565.580520	2484.550317
565.936615	2487.733806
566.292654	2484.840183
566.648638	2485.540904
567.004567	2487.418734
567.360441	2484.618373
567.716260	2487.224649
568.072023	2486.420585
568.427732	2484.381438
568.783385	2485.142653
569.138982	2487.080976
569.494525	2488.973930
569.850013	2482.619555
570.205445	2486.163486
570.560823	2484.850266
570.916145	2486.670122
571.271412	2486.483600
571.626625	2486.990236
571.981782	2485.944196
572.336884	2485.200626
572.691931	2480.419092
573.046923	2483.781541
573.401860	2481.969246
573.756743	2486.324803
574.111570	2485.409834
574.466342	2488.971409
574.821059	2484.530153
575.175722	2486.443270
575.530330	2487.900164
575.884882	2486.881851
576.239380	2486.039978
576.593823	2486.312200
576.948211	2485.838332
577.302544	2487.753970
577.656823	2485.397231
578.011047	2487.053250
578.365216	2484.774648
578.719330	2488.547952
579.073389	2487.181799
579.427394	2489.803199
579.781344	2486.725575
580.135239	2487.252376
580.489080	2485.291367
580.842866	2487.436378
581.196597	2486.276912
581.550273	2487.474186
581.903895	2486.433188
582.257463	2487.385966
582.610975	2487.643065
582.964434	2486.125678
583.317837	2485.261120
583.671186	2489.576348
584.024481	2486.060143
584.377721	2487.471666
584.730906	2486.186172
585.084037	2485.823208
585.437113	2487.665750
585.790135	2488.610967
586.143103	2486.508805
586.496016	2486.534011
586.848874	2484.802375
587.201679	2489.016779
587.554428	2484.797334
587.907124	2486.055102
588.259765	2485.843373
588.612352	2486.740698
588.964884	2486.370174
589.317362	2488.026193
589.669786	2482.576705
590.022155	2484.603249
590.374470	2482.846407
590.726731	2484.462097
591.078937	2479.615027
591.431090	2486.294556
591.783188	2485.843373
592.135232	2485.765235
592.487222	2482.322127
592.839157	2486.357571
593.191038	2484.968733
593.542866	2487.209526
593.894639	2484.562920
594.246358	2488.265648
594.598022	2485.941676
594.949633	2486.798672
595.301190	2484.399082
595.652692	2486.012252
596.004141	2485.387149
596.355535	2488.426964
596.706876	2485.649289
597.058162	2486.861686
597.409395	2487.128867
597.760573	2487.232211
598.111698	2485.286326
598.462768	2486.609628
598.813785	2486.944865
599.164748	2484.875472
599.515657	2485.661892
599.866511	2484.623414
600.217312	2487.784217
600.568060	2487.396048
600.918753	2486.891933
601.269392	2488.467294
601.619978	2485.233393
601.970510	2485.092241
602.320988	2485.699700
602.671412	2484.777169
603.021783	2483.569813
603.372100	2486.886892
603.722363	2483.993270
604.072572	2487.602736
604.422728	2487.421254
604.772830	2485.432519
605.122878	2488.391676
605.472872	2484.905718
605.822813	2484.056284
606.172701	2484.961171
606.522534	2486.428147
606.872314	2486.198774
607.222041	2487.980822
607.571714	2483.915132
607.921333	2484.003352
608.270899	2484.981336
608.620411	2483.620224
608.969870	2488.421923
609.319276	2487.824547
609.668627	2485.404793
610.017926	2484.275574
610.367171	2483.310193
610.716362	2486.649958
611.065500	2486.375215
611.414585	2487.791779
611.763616	2486.251707
612.112594	2486.150883
612.461518	2487.267499
612.810389	2486.223980
613.159207	2483.705924
613.507971	2485.208188
613.856682	2485.200626
614.205340	2486.433188
614.553945	2485.606439
614.902496	2487.900164
615.250994	2487.312869
615.599439	2484.474700
615.947830	2485.808085
616.296169	2485.936634
616.644454	2486.360091
616.992686	2487.073415
617.340864	2487.879999
617.688990	2486.203816
618.037063	2485.482931
618.385082	2486.120637
618.733048	2485.966881
619.080961	2485.571151
619.428821	2484.482262
619.776628	2486.486120
620.124382	2485.223311
620.472083	2485.291367
620.819731	2485.238435
621.167326	2483.920173
621.514868	2486.327324
621.862357	2486.014772
622.209793	2484.814978
622.557176	2486.566779
622.904506	2486.844042
623.251783	2486.793631
623.599007	2485.707262
623.946179	2484.043681
624.293297	2487.370843
624.640363	2483.232055
624.987376	2485.205667
625.334336	2481.442446
625.681243	2484.484782
626.028097	2481.150059
626.374899	2486.150883
626.721647	2485.256079
627.068343	2485.026706
627.414987	2485.298928
627.761577	2483.781541
628.108115	2488.457211
628.454600	2487.075935
628.801032	2485.099803
629.147412	2483.834473
629.493739	2484.089052
629.840014	2485.563589
630.186236	2484.373877
630.532405	2487.791779
630.878521	2485.926552
631.224585	2484.656181
631.570597	2485.165338
631.916556	2486.077787
632.262462	2486.332365
632.608316	2484.862869
632.954117	2486.644917
633.299866	2483.063177
633.645562	2484.923362
633.991206	2483.186685
634.336797	2485.777838
634.682336	2487.214567
635.027823	2485.440081
635.373257	2484.832622
635.718639	2485.941676
636.063968	2488.003507
636.409245	2486.198774
636.754470	2487.355719
637.099642	2485.114926
637.444762	2486.034937
637.789829	2482.864051
638.134845	2487.771614
638.479808	2485.858497
638.824719	2486.493682
639.169577	2486.221460
639.514383	2486.634834
639.859137	2486.491161
640.203839	2487.159114
640.548489	2484.242807
640.893086	2482.332209
641.237632	2486.564258
641.582125	2488.469814
641.926566	2487.479227
642.270955	2486.607108
642.615292	2483.892447
642.959576	2483.965543
643.303809	2481.540748
643.647990	2487.393528
643.992118	2482.042343
644.336195	2485.523260
