Dividing Wavelength (nm)	Counts (n)	Blue Motor Position (mm): 6.600000	Red Motor Position (mm): 0.000000	
326.493990	2141.083903
326.888308	2141.083903
327.282561	2141.083903
327.676750	2109.475868
328.070874	2107.940837
328.464933	2110.103492
328.858929	2119.472476
329.252859	2127.445061
329.646726	2138.918727
330.040528	2150.117650
330.434265	2169.344611
330.827938	2186.930676
331.221547	2202.538089
331.615091	2224.578013
332.008571	2242.895046
332.401986	2262.369023
332.795338	2281.381735
333.188625	2300.414611
333.581847	2320.004535
333.975006	2337.124293
334.368100	2353.961747
334.761129	2374.963194
335.154095	2392.148488
335.546996	2407.433266
335.939833	2421.719896
336.332606	2436.596341
336.725315	2450.693928
337.117960	2461.015690
337.510540	2466.813017
337.903056	2480.056128
338.295508	2485.863538
338.687896	2494.231853
339.080220	2502.824500
339.472480	2510.328257
339.864676	2515.281191
340.256807	2519.651871
340.648875	2519.949299
341.040879	2526.522964
341.432818	2525.587830
341.824694	2526.338962
342.216506	2531.153264
342.608253	2529.134282
342.999937	2530.084539
343.391557	2527.226205
343.783113	2525.164373
344.174605	2523.142870
344.566033	2528.259642
344.957397	2522.568179
345.348697	2518.850328
345.739934	2517.532066
346.131106	2519.689680
346.522215	2515.119874
346.913260	2512.485871
347.304241	2510.686179
347.695159	2510.119049
348.086012	2503.996568
348.476802	2506.605365
348.867528	2504.248626
349.258191	2504.624192
349.648789	2500.941629
350.039324	2500.283758
350.429796	2500.314005
350.820203	2499.346104
351.210548	2497.722852
351.600828	2496.263438
351.991045	2498.960455
352.381198	2494.143633
352.771288	2497.251504
353.161314	2494.998108
353.551276	2496.812924
353.941175	2497.274189
354.331010	2491.519712
354.720782	2493.223622
355.110490	2494.493993
355.500135	2495.184631
355.889717	2496.455002
356.279235	2492.477532
356.668689	2497.589262
357.058080	2496.190341
357.447408	2492.923674
357.836672	2491.749085
358.225873	2493.321925
358.615010	2489.087356
359.004084	2496.172697
359.393095	2498.237050
359.782043	2497.906854
360.170927	2498.594972
360.559748	2497.138078
360.948505	2500.140085
361.337199	2498.335352
361.725830	2501.344921
362.114398	2501.760816
362.502903	2499.996412
362.891344	2501.879283
363.279722	2502.690909
363.668037	2501.176042
364.056289	2502.529592
364.444478	2504.788029
364.832603	2502.645539
365.220665	2505.211486
365.608665	2503.192504
365.996601	2507.437156
366.384474	2505.808863
366.772284	2504.994717
367.160031	2504.127638
367.547715	2507.855571
367.935336	2504.218379
368.322893	2504.553616
368.710388	2506.423884
369.097820	2508.790705
369.485189	2506.446569
369.872495	2508.566374
370.259738	2507.749707
370.646918	2506.716271
371.034035	2509.065448
371.421090	2509.491426
371.808081	2505.153513
372.195010	2508.195849
372.581875	2511.114677
372.968678	2511.361694
373.355418	2511.686848
373.742096	2512.052332
374.128710	2510.870181
374.515262	2510.003103
374.901751	2508.974708
375.288177	2510.471930
375.674540	2512.458145
376.060841	2511.341529
376.447079	2513.030316
376.833254	2512.644667
377.219367	2508.039573
377.605417	2512.213649
377.991404	2511.238186
378.377329	2512.526200
378.763191	2508.147958
379.148991	2514.182219
379.534727	2511.855727
379.920402	2516.677591
380.306013	2515.787827
380.691563	2515.170286
381.077049	2515.560975
381.462474	2516.828825
381.847835	2515.629031
382.233134	2515.485358
382.618371	2513.360511
383.003545	2514.482168
383.388657	2515.941582
383.773706	2514.073835
384.158693	2515.364370
384.543618	2516.712879
384.928480	2517.700945
385.313280	2516.518794
385.698017	2514.799761
386.082692	2517.859741
386.467305	2518.328568
386.851856	2518.641120
387.236344	2516.233969
387.620770	2519.241017
388.005133	2518.242869
388.389435	2517.622807
388.773674	2516.682632
389.157851	2519.082221
389.541965	2518.164731
389.926018	2520.241686
390.310008	2521.086080
390.693936	2518.247910
391.077802	2521.650689
391.461606	2515.755059
391.845348	2520.705472
392.229027	2519.818229
392.612645	2520.823940
392.996200	2521.116327
393.379694	2521.658251
393.763125	2522.502644
394.146494	2522.903416
394.529801	2522.116996
394.913047	2524.690505
395.296230	2523.137829
395.679351	2523.856194
396.062410	2522.966430
396.445408	2520.561800
396.828343	2522.485000
397.211217	2519.046933
397.594028	2518.689011
397.976778	2517.912673
398.359466	2524.861904
398.742092	2520.826460
399.124656	2524.279651
399.507158	2523.523477
399.889598	2526.336441
400.271977	2523.533560
400.654294	2524.763601
401.036549	2523.377284
401.418742	2526.119672
401.800874	2524.761081
402.182944	2531.072605
402.564952	2524.198992
402.946898	2529.842564
403.328783	2526.767460
403.710606	2525.983561
404.092367	2527.533715
404.474067	2527.115300
404.855705	2527.170752
405.237282	2525.502130
405.618797	2527.783253
406.000250	2528.685619
406.381642	2527.664785
406.762972	2527.253931
407.144240	2531.128058
407.525447	2532.146371
407.906593	2528.539426
408.287677	2530.891124
408.668700	2526.026410
409.049661	2527.579086
409.430560	2528.486493
409.811399	2528.118489
410.192176	2528.806607
410.572891	2529.310722
410.953545	2527.483304
411.334138	2529.837523
411.714669	2530.019004
412.095139	2529.298119
412.475547	2530.800383
412.855894	2528.728469
413.236180	2530.601258
413.616405	2528.783922
413.996568	2529.976154
414.376670	2530.283665
414.756711	2530.482790
415.136691	2531.133099
415.516609	2529.905578
415.896466	2532.136289
416.276262	2530.518078
416.655997	2530.054292
417.035670	2526.948942
417.415283	2530.676875
417.794834	2526.611184
418.174324	2530.916330
418.553753	2531.075126
418.933121	2531.372554
419.312428	2530.891124
419.691674	2532.985723
420.070859	2531.428007
420.449983	2531.546474
420.829045	2532.837009
421.208047	2531.627132
421.586988	2532.617719
421.965867	2533.215096
422.344686	2534.714839
422.723444	2533.567977
423.102141	2534.122503
423.480777	2536.101156
423.859352	2531.465815
424.237866	2533.129396
424.616319	2533.048738
424.994712	2533.288193
425.373044	2533.754499
425.751314	2534.810621
426.129524	2535.896990
426.507673	2534.339273
426.885762	2531.596885
427.263789	2533.041176
427.641756	2532.847092
428.019662	2532.912627
428.397508	2535.110570
428.775292	2536.648122
429.153016	2537.215251
429.530679	2535.793646
429.908282	2531.402801
430.285824	2533.532688
430.663305	2537.311033
431.040726	2533.847761
431.418086	2535.922195
431.795385	2538.699871
432.172624	2535.665097
432.549802	2537.374048
432.926920	2534.664428
433.303977	2538.586445
433.680974	2536.985879
434.057910	2537.810108
434.434786	2536.025539
434.811601	2540.560057
435.188355	2536.953111
435.565050	2536.766589
435.941683	2537.459747
436.318257	2535.574356
436.694770	2534.261135
437.071222	2537.742052
437.447614	2532.683254
437.823946	2536.595189
438.200218	2537.462268
438.576429	2538.979655
438.952580	2537.232895
439.328670	2537.253060
439.704700	2538.886394
440.080670	2540.577701
440.456580	2537.734490
440.832429	2538.009233
441.208218	2539.498894
441.583947	2537.628626
441.959616	2537.852957
442.335224	2539.188863
442.710773	2537.560570
443.086261	2539.410674
443.461689	2538.604089
443.837057	2539.067875
444.212365	2539.259439
444.587612	2538.530992
444.962800	2537.570653
445.337927	2540.635674
445.712995	2538.848585
446.088002	2540.595345
446.462949	2537.996630
446.837837	2540.923020
447.212664	2539.448483
447.587431	2539.357742
447.962139	2539.685417
448.336786	2543.128525
448.711374	2539.377906
449.085901	2544.320758
449.460369	2538.674665
449.834776	2540.706250
450.209124	2543.468803
450.583412	2541.192722
450.957640	2541.318751
451.331808	2540.938143
451.705917	2542.763041
452.079965	2541.220448
452.453954	2540.272711
452.827883	2543.108360
453.201752	2541.109543
453.575562	2539.642567
453.949311	2541.331353
454.323001	2540.181970
454.696632	2540.703730
455.070202	2542.750438
455.443713	2541.843031
455.817164	2537.147196
456.190556	2536.610313
456.563888	2539.602238
456.937160	2539.667773
457.310373	2540.386137
457.683526	2541.979142
458.056619	2542.594163
458.429653	2542.974770
458.802628	2542.180788
459.175542	2540.103833
459.548398	2543.231868
459.921194	2540.552495
460.293930	2543.194060
460.666607	2542.747918
461.039224	2545.064328
461.411782	2542.309337
461.784280	2543.100798
462.156719	2543.567105
462.529099	2544.260264
462.901419	2541.469985
463.273680	2543.083154
463.645882	2544.988711
464.018024	2542.957126
464.390106	2542.410160
464.762130	2542.674821
465.134094	2543.574667
465.505999	2544.411498
465.877845	2543.587270
466.249631	2544.928217
466.621358	2545.417209
466.993026	2547.325285
467.364634	2547.224462
467.736184	2543.751107
468.107674	2544.356046
468.479105	2541.275901
468.850477	2543.998124
469.221790	2542.616848
469.593043	2544.676159
469.964238	2544.466951
470.335373	2546.498536
470.706449	2548.731767
471.077467	2544.625748
471.448425	2546.392672
471.819324	2546.455686
472.190164	2545.641540
472.560945	2542.619368
472.931667	2548.247817
473.302330	2547.741181
473.672934	2543.988042
474.043479	2542.284132
474.413965	2546.188505
474.784393	2539.922351
475.154761	2540.234902
475.525070	2539.887063
475.895321	2542.700027
476.265513	2542.873947
476.635645	2541.653987
477.005719	2545.515511
477.375734	2548.031047
477.745691	2544.913093
478.115588	2543.831766
478.485427	2543.126004
478.855207	2547.862168
479.224928	2544.111550
479.594591	2544.547610
479.964194	2546.077600
480.333739	2547.126160
480.703226	2546.173382
481.072653	2547.569781
481.442022	2545.749925
481.811333	2546.657332
482.180584	2546.861499
482.549777	2546.185985
482.918912	2547.060625
483.287988	2547.600028
483.657005	2546.488454
484.025964	2547.279915
484.394864	2544.378731
484.763706	2544.504760
485.132489	2548.966181
485.501213	2547.854607
485.869879	2545.891077
486.238487	2547.673125
486.607036	2547.647919
486.975527	2546.871582
487.343959	2546.526263
487.712333	2551.741336
488.080648	2545.349153
488.448905	2547.874771
488.817104	2543.758669
489.185244	2546.876623
489.553326	2548.076417
489.921350	2547.854607
490.289315	2547.670604
490.657222	2550.075235
491.025070	2549.392158
491.392861	2551.990873
491.760593	2547.199257
492.128267	2546.707744
492.495883	2548.812426
492.863440	2546.017106
493.230939	2548.089020
493.598380	2549.833259
493.965763	2543.942671
494.333088	2543.738504
494.700354	2546.009544
495.067563	2546.853937
495.434713	2542.362269
495.801805	2547.607590
496.168839	2548.615821
496.535815	2548.688917
496.902733	2546.864020
497.269593	2550.445760
497.636395	2549.563558
498.003139	2548.799823
498.369825	2548.361243
498.736453	2548.431819
499.103023	2547.597508
499.469535	2550.970040
499.835989	2547.927703
500.202385	2548.038609
500.568723	2548.290666
500.935003	2549.661860
501.301226	2545.359235
501.667390	2548.497354
502.033497	2550.367622
502.399546	2548.630944
502.765537	2550.302087
503.131470	2549.999617
503.497345	2551.448949
503.863163	2550.959957
504.228923	2546.934596
504.594625	2551.665719
504.960269	2547.983156
505.325856	2550.349978
505.691385	2547.196736
506.056856	2552.295863
506.422270	2548.310831
506.787625	2551.441388
507.152924	2547.368135
507.518164	2549.409803
507.883347	2551.968188
508.248472	2547.383259
508.613540	2548.976263
508.978550	2548.484751
509.343503	2548.860317
509.708398	2551.897612
510.073236	2551.267468
510.438016	2552.290822
510.802738	2548.973743
511.167403	2550.642365
511.532010	2548.096582
511.896561	2549.087169
512.261053	2550.717982
512.625488	2544.955943
512.989866	2545.785213
513.354186	2546.017106
513.718449	2545.684390
514.082655	2548.396531
514.446803	2550.362581
514.810894	2547.471479
515.174927	2550.382745
515.538904	2549.709751
515.902822	2549.500543
516.266684	2550.788558
516.630488	2549.528270
516.994235	2548.363763
517.357925	2549.336706
517.721558	2551.905174
518.085133	2552.094217
518.448651	2551.275029
518.812112	2548.479710
519.175516	2550.879299
519.538863	2550.717982
519.902152	2550.891902
520.265385	2550.244113
520.628560	2550.188661
520.991678	2549.926521
521.354739	2548.280584
521.717743	2550.518856
522.080690	2550.929710
522.443580	2548.913249
522.806413	2551.396017
523.169189	2550.067673
523.531908	2552.484906
523.894569	2548.668753
524.257174	2549.545914
524.619722	2550.849052
524.982213	2553.246121
525.344647	2551.222097
525.707025	2550.735626
526.069345	2550.541542
526.431608	2549.858465
526.793815	2552.242931
527.155964	2550.813764
527.518057	2553.120092
527.880093	2549.777807
528.242072	2551.756460
528.603995	2553.651933
528.965860	2550.362581
529.327669	2551.385935
529.689421	2548.628424
530.051117	2553.198230
530.412755	2549.898794
530.774337	2551.020451
531.135862	2550.450801
531.497331	2547.892415
531.858743	2545.853268
532.220098	2547.615152
532.581396	2548.512477
532.942638	2546.145655
533.303824	2551.572457
533.664953	2553.472973
534.026025	2547.206818
534.387040	2551.622869
534.747999	2550.949875
535.108902	2550.405430
535.469748	2550.057591
535.830537	2550.334854
536.191270	2552.250493
536.551947	2551.582540
536.912567	2550.526418
537.273131	2548.779658
537.633638	2551.406099
537.994089	2549.651778
538.354483	2551.075904
538.714821	2551.244782
539.075103	2549.921480
539.435328	2550.586912
539.795497	2551.378373
540.155609	2552.237890
540.515665	2548.948537
540.875665	2554.619835
541.235609	2551.015410
541.595496	2551.711089
541.955328	2554.455998
542.315102	2552.563044
542.674821	2550.710420
543.034483	2552.121943
543.394090	2551.743857
543.753640	2552.578168
544.113134	2550.365101
544.472571	2551.683363
544.831953	2550.067673
545.191278	2551.955585
545.550548	2551.554813
545.909761	2553.876265
546.268918	2549.077086
546.628019	2551.448949
546.987064	2552.530277
547.346053	2553.737633
547.704986	2550.871737
548.063863	2554.461039
548.422684	2550.339895
548.781449	2550.299566
549.140158	2553.604042
549.498811	2555.653272
549.857408	2552.701676
550.215949	2550.355019
550.574434	2551.038095
550.932864	2551.338044
551.291237	2550.886861
551.649555	2553.997253
552.007817	2554.057746
552.366022	2556.041440
552.724173	2550.672612
553.082267	2552.414330
553.440305	2550.886861
553.798288	2553.311656
554.156215	2552.391645
554.514086	2553.702345
554.871902	2554.670247
555.229661	2555.469269
555.587365	2552.570606
555.945014	2551.741336
556.302606	2551.816953
556.660143	2553.089845
557.017625	2553.112530
557.375050	2553.389793
557.732421	2553.558672
558.089735	2553.800647
558.446994	2552.807540
558.804197	2551.864844
559.161345	2556.180072
559.518437	2553.586398
559.875474	2552.631100
560.232455	2553.573796
560.589381	2554.682849
560.946251	2552.563044
561.303065	2551.829556
561.659825	2553.301573
562.016528	2552.207643
562.373177	2553.064639
562.729770	2552.757129
563.086307	2554.471121
563.442789	2551.567416
563.799216	2554.382901
564.155587	2554.123281
564.511904	2552.729402
564.868164	2552.694114
565.224370	2554.125802
565.580520	2554.140925
565.936615	2554.047664
566.292654	2552.928528
566.648638	2554.130843
567.004567	2554.887016
567.360441	2553.835936
567.716260	2552.356357
568.072023	2551.227138
568.427732	2548.325954
568.783385	2552.005997
569.138982	2548.192364
569.494525	2551.665719
569.850013	2550.337375
570.205445	2553.682180
570.560823	2555.698642
570.916145	2550.289484
571.271412	2555.708724
571.626625	2555.010524
571.981782	2551.459032
572.336884	2553.725030
572.691931	2553.087324
573.046923	2554.072870
573.401860	2555.184444
573.756743	2555.151677
574.111570	2552.852911
574.466342	2555.018086
574.821059	2553.664536
575.175722	2554.907181
575.530330	2552.668908
575.884882	2555.804506
576.239380	2553.324258
576.593823	2554.294681
576.948211	2551.706048
577.302544	2555.141594
577.656823	2551.711089
578.011047	2556.686708
578.365216	2555.537325
578.719330	2555.650751
579.073389	2552.084135
579.427394	2548.875440
579.781344	2553.903991
580.135239	2554.057746
580.489080	2551.995914
580.842866	2553.069680
581.196597	2556.326266
581.550273	2553.846018
581.903895	2550.556665
582.257463	2553.571275
582.610975	2552.053888
582.964434	2557.067315
583.317837	2554.876934
583.671186	2552.716799
584.024481	2551.811912
584.377721	2553.069680
584.730906	2550.990204
585.084037	2553.407437
585.437113	2553.014228
585.790135	2553.596481
586.143103	2553.558672
586.496016	2553.876265
586.848874	2548.762014
587.201679	2548.804864
587.554428	2551.053219
587.907124	2551.819474
588.259765	2549.619010
588.612352	2554.657644
588.964884	2553.450287
589.317362	2551.756460
589.669786	2552.278219
590.022155	2552.177396
590.374470	2554.340051
590.726731	2552.787376
591.078937	2554.503888
591.431090	2552.121943
591.783188	2551.910215
592.135232	2552.661347
592.487222	2552.081614
592.839157	2552.706717
593.191038	2554.458518
593.542866	2554.513971
593.894639	2554.151008
594.246358	2554.030020
594.598022	2551.857283
594.949633	2553.021789
595.301190	2551.741336
595.652692	2554.450956
596.004141	2552.958775
596.355535	2555.623025
596.706876	2550.735626
597.058162	2551.852242
597.409395	2553.611604
597.760573	2553.447767
598.111698	2553.326779
598.462768	2555.567572
598.813785	2553.583878
599.164748	2553.692263
599.515657	2551.978270
599.866511	2551.401058
600.217312	2552.638662
600.568060	2553.107489
600.918753	2554.314845
601.269392	2555.156718
601.619978	2552.726882
601.970510	2551.534649
602.320988	2552.961295
602.671412	2553.319217
603.021783	2554.176213
603.372100	2553.115051
603.722363	2551.557334
604.072572	2550.844011
604.422728	2554.196378
604.772830	2548.038609
605.122878	2550.894422
605.472872	2547.839483
605.822813	2548.270502
606.172701	2551.882488
606.522534	2551.968188
606.872314	2553.851059
607.222041	2552.275698
607.571714	2555.350802
607.921333	2553.838456
608.270899	2552.426933
608.620411	2552.069011
608.969870	2555.902809
609.319276	2552.842828
609.668627	2556.260731
610.017926	2558.897254
610.367171	2561.745506
610.716362	2560.674261
611.065500	2558.065464
611.414585	2555.615463
611.763616	2558.103272
612.112594	2556.724517
612.461518	2555.214691
612.810389	2555.799465
613.159207	2556.681667
613.507971	2555.607901
613.856682	2554.715617
614.205340	2554.927345
614.553945	2554.408107
614.902496	2554.211502
615.250994	2554.554300
615.599439	2553.321738
615.947830	2552.754608
616.296169	2553.979608
616.644454	2554.531615
616.992686	2552.343754
617.340864	2552.535318
617.688990	2553.470452
618.037063	2553.132695
618.385082	2556.250648
618.733048	2555.925494
619.080961	2553.818292
619.428821	2553.057077
619.776628	2552.184958
620.124382	2555.353323
620.472083	2552.240410
620.819731	2552.626059
621.167326	2552.578168
621.514868	2551.922818
621.862357	2551.161603
622.209793	2555.295350
622.557176	2553.314176
622.904506	2549.931562
623.251783	2550.090358
623.599007	2548.651109
623.946179	2550.768393
624.293297	2548.555327
624.640363	2552.494989
624.987376	2553.452808
625.334336	2547.342929
625.681243	2551.627910
626.028097	2553.641851
626.374899	2553.011707
626.721647	2552.961295
627.068343	2555.817109
627.414987	2554.297201
627.761577	2555.731409
628.108115	2551.080945
628.454600	2551.632951
628.801032	2552.918446
629.147412	2554.574465
629.493739	2555.176882
629.840014	2556.157387
630.186236	2556.308622
630.532405	2553.152859
630.878521	2552.898281
631.224585	2552.719320
631.570597	2554.362736
631.916556	2553.639331
632.262462	2551.547252
632.608316	2552.837787
632.954117	2551.275029
633.299866	2551.751418
633.645562	2549.974412
633.991206	2555.343241
634.336797	2553.346944
634.682336	2551.738816
635.027823	2553.677139
635.373257	2552.752087
635.718639	2554.168652
636.063968	2555.368446
636.409245	2555.567572
636.754470	2554.629917
637.099642	2551.393497
637.444762	2555.207129
637.789829	2554.786193
638.134845	2552.283260
638.479808	2553.694783
638.824719	2552.512633
639.169577	2553.314176
639.514383	2556.202757
639.859137	2551.290153
640.203839	2553.599001
640.548489	2556.721996
640.893086	2551.002807
641.237632	2548.076417
641.582125	2549.699669
641.926566	2547.534493
642.270955	2549.684545
642.615292	2550.120605
642.959576	2550.763352
643.303809	2553.137736
643.647990	2553.165462
643.992118	2551.819474
644.336195	2551.370811
