Dividing Wavelength (nm)	Counts (n)	Blue Motor Position (mm): 8.400000	Red Motor Position (mm): 0.000000	
326.493990	2157.626449
326.888308	2157.626449
327.282561	2157.626449
327.676750	2118.779318
328.070874	2112.452669
328.464933	2114.214553
328.858929	2117.566920
329.252859	2122.756788
329.646726	2129.327932
330.040528	2144.660601
330.434265	2154.758033
330.827938	2175.467093
331.221547	2192.264217
331.615091	2210.545962
332.008571	2227.459033
332.401986	2243.537793
332.795338	2263.248704
333.188625	2282.208484
333.581847	2299.913016
333.975006	2320.916984
334.368100	2340.496825
334.761129	2356.058867
335.154095	2372.969418
335.546996	2393.917933
335.939833	2412.260171
336.332606	2424.104362
336.725315	2438.050714
337.117960	2450.666202
337.510540	2462.893520
337.903056	2474.475571
338.295508	2483.151397
338.687896	2492.560711
339.080220	2501.702843
339.472480	2507.185098
339.864676	2512.415295
340.256807	2518.164731
340.648875	2519.893847
341.040879	2523.470545
341.432818	2526.472552
341.824694	2529.416586
342.216506	2530.422297
342.608253	2529.174611
342.999937	2530.959179
343.391557	2533.273069
343.783113	2531.755682
344.174605	2528.214271
344.566033	2530.016484
344.957397	2531.367513
345.348697	2528.937677
345.739934	2524.264527
346.131106	2522.782428
346.522215	2521.869979
346.913260	2518.031140
347.304241	2516.115502
347.695159	2515.868485
348.086012	2513.874709
348.476802	2512.019564
348.867528	2509.322547
349.258191	2504.576301
349.648789	2505.957577
350.039324	2500.971876
350.429796	2505.483708
350.820203	2503.714263
351.210548	2502.146465
351.600828	2502.297699
351.991045	2501.327277
352.381198	2500.608913
352.771288	2498.085815
353.161314	2497.584220
353.551276	2497.745537
353.941175	2495.635814
354.331010	2496.147492
354.720782	2496.878459
355.110490	2495.789570
355.500135	2497.470794
355.889717	2497.314519
356.279235	2497.309478
356.668689	2499.396515
357.058080	2496.704539
357.447408	2496.185300
357.836672	2495.363592
358.225873	2495.827378
358.615010	2499.436844
359.004084	2494.282265
359.393095	2498.925167
359.782043	2500.371978
360.170927	2499.383912
360.559748	2497.536329
360.948505	2500.371978
361.337199	2501.574294
361.725830	2500.485404
362.114398	2500.986999
362.502903	2500.543378
362.891344	2503.114366
363.279722	2504.384737
363.668037	2504.422546
364.056289	2505.955056
364.444478	2504.982114
364.832603	2507.260715
365.220665	2507.046466
365.608665	2505.418173
365.996601	2505.423215
366.384474	2508.115191
366.772284	2507.817763
367.160031	2509.073010
367.547715	2510.345901
367.935336	2508.818432
368.322893	2508.228617
368.710388	2506.794408
369.097820	2506.439007
369.485189	2502.867350
369.872495	2510.209790
370.259738	2507.676610
370.646918	2510.111488
371.034035	2507.487567
371.421090	2509.922444
371.808081	2509.370438
372.195010	2511.757424
372.581875	2511.218021
372.968678	2514.096520
373.355418	2511.301200
373.742096	2513.305059
374.128710	2512.750532
374.515262	2512.170799
374.901751	2511.326406
375.288177	2511.936385
375.674540	2511.906138
376.060841	2512.221211
376.447079	2514.177178
376.833254	2512.881602
377.219367	2513.713392
377.605417	2515.313958
377.991404	2513.219359
378.377329	2512.488392
378.763191	2514.751870
379.148991	2518.162210
379.534727	2517.138856
379.920402	2513.037878
380.306013	2517.527025
380.691563	2516.357477
381.077049	2516.312107
381.462474	2517.826974
381.847835	2517.907632
382.233134	2513.322703
382.618371	2515.939062
383.003545	2518.704134
383.388657	2517.912673
383.773706	2519.384690
384.158693	2517.534587
384.543618	2518.290760
384.928480	2518.048784
385.313280	2516.743126
385.698017	2519.215812
386.082692	2521.018024
386.467305	2520.264372
386.851856	2520.551717
387.236344	2522.046419
387.620770	2515.548372
388.005133	2516.763290
388.389435	2515.913856
388.773674	2514.441839
389.157851	2519.977026
389.541965	2517.660616
389.926018	2520.276974
390.310008	2523.462984
390.693936	2521.469207
391.077802	2520.614732
391.461606	2521.469207
391.845348	2524.632531
392.229027	2524.209074
392.612645	2520.622293
392.996200	2523.364681
393.379694	2523.929290
393.763125	2521.519619
394.146494	2525.136647
394.529801	2524.897192
394.913047	2523.347037
395.296230	2523.289064
395.679351	2525.522295
396.062410	2524.783766
396.445408	2524.824095
396.828343	2524.955165
397.211217	2522.923580
397.594028	2523.105062
397.976778	2525.812161
398.359466	2523.861235
398.742092	2526.033972
399.124656	2526.215454
399.507158	2526.223015
399.889598	2526.437264
400.271977	2526.578417
400.654294	2525.008097
401.036549	2523.752850
401.418742	2528.231915
401.800874	2526.462470
402.182944	2526.984230
402.564952	2526.754857
402.946898	2526.459950
403.328783	2531.054961
403.710606	2528.126051
404.092367	2526.454908
404.474067	2526.318797
404.855705	2526.896009
405.237282	2527.052285
405.618797	2527.750485
406.000250	2529.398942
406.381642	2529.696370
406.762972	2524.473735
407.144240	2525.673530
407.525447	2529.076308
407.906593	2523.533560
408.287677	2527.236287
408.668700	2529.761905
409.049661	2528.501617
409.430560	2527.632018
409.811399	2527.715197
410.192176	2529.426669
410.572891	2530.749972
410.953545	2529.035979
411.334138	2531.387678
411.714669	2531.367513
412.095139	2530.528161
412.475547	2529.550177
412.855894	2531.322142
413.236180	2531.375075
413.616405	2531.211237
413.996568	2527.921884
414.376670	2532.698377
414.756711	2532.642925
415.136691	2532.942873
415.516609	2531.566638
415.896466	2531.208717
416.276262	2532.365661
416.655997	2531.521268
417.035670	2529.560259
417.415283	2533.525127
417.794834	2532.809283
418.174324	2536.138965
418.553753	2531.745599
418.933121	2534.296423
419.312428	2535.977648
419.691674	2533.578059
420.070859	2535.556712
420.449983	2534.480425
420.829045	2533.126876
421.208047	2536.280117
421.586988	2532.670651
421.965867	2538.016795
422.344686	2533.021011
422.723444	2534.820703
423.102141	2535.423121
423.480777	2533.356248
423.859352	2535.405477
424.237866	2535.178625
424.616319	2534.563604
424.994712	2537.540406
425.373044	2534.097298
425.751314	2532.035466
426.129524	2529.693850
426.507673	2533.724252
426.885762	2529.288037
427.263789	2535.972607
427.641756	2534.319108
428.019662	2535.067720
428.397508	2536.829603
428.775292	2534.888759
429.153016	2538.112577
429.530679	2539.357742
429.908282	2538.830941
430.285824	2535.367668
430.663305	2535.269366
431.040726	2537.668955
431.418086	2534.966897
431.795385	2536.872453
432.172624	2537.676517
432.549802	2535.990251
432.926920	2537.326157
433.303977	2537.346321
433.680974	2538.036959
434.057910	2536.196938
434.434786	2538.273894
434.811601	2537.454706
435.188355	2537.989068
435.565050	2535.738193
435.941683	2539.420756
436.318257	2539.685417
436.694770	2537.661393
437.071222	2540.766744
437.447614	2537.041332
437.823946	2538.919161
438.200218	2537.474871
438.576429	2538.490663
438.952580	2539.062834
439.328670	2540.562578
439.704700	2539.453524
440.080670	2541.023843
440.456580	2538.248688
440.832429	2537.585776
441.208218	2538.019315
441.583947	2539.897145
441.959616	2537.903369
442.335224	2540.600386
442.710773	2537.868081
443.086261	2540.940664
443.461689	2538.283976
443.837057	2539.526620
444.212365	2539.899666
444.587612	2538.616692
444.962800	2534.664428
445.337927	2539.118287
445.712995	2538.001671
446.088002	2539.549306
446.462949	2544.719009
446.837837	2539.907228
447.212664	2541.732125
447.587431	2540.255067
447.962139	2540.923020
448.336786	2543.609955
448.711374	2542.465613
449.085901	2540.486960
449.460369	2538.785571
449.834776	2540.252547
450.209124	2542.611807
450.583412	2540.282793
450.957640	2541.107022
451.331808	2543.183978
451.705917	2540.865047
452.079965	2544.103988
452.453954	2543.693134
452.827883	2540.756662
453.201752	2542.538710
453.575562	2544.880326
453.949311	2542.702547
454.323001	2543.342774
454.696632	2543.887218
455.070202	2541.603576
455.443713	2540.746580
455.817164	2542.921837
456.190556	2540.991076
456.563888	2542.563916
456.937160	2542.987372
457.310373	2546.793444
457.683526	2542.662218
458.056619	2543.211704
458.429653	2543.158772
458.802628	2544.915614
459.175542	2544.414019
459.548398	2544.010727
459.921194	2542.407640
460.293930	2543.930068
460.666607	2544.209852
461.039224	2543.935109
461.411782	2546.364946
461.784280	2545.376879
462.156719	2543.917465
462.529099	2546.531304
462.901419	2547.708413
463.273680	2544.219935
463.645882	2540.156765
464.018024	2540.779347
464.390106	2542.543751
464.762130	2545.265974
465.134094	2542.324461
465.505999	2544.093906
465.877845	2544.857641
466.249631	2545.044163
466.621358	2544.542568
466.993026	2546.755635
467.364634	2547.383259
467.736184	2547.022816
468.107674	2543.294883
468.479105	2543.826725
468.850477	2545.543237
469.221790	2547.622713
469.593043	2545.152548
469.964238	2546.964843
470.335373	2543.138607
470.706449	2547.229503
471.077467	2541.217928
471.448425	2546.518701
471.819324	2546.909390
472.190164	2546.732950
472.560945	2547.448794
472.931667	2546.455686
473.302330	2546.264123
473.672934	2546.349822
474.043479	2545.702034
474.413965	2547.453835
474.784393	2546.765717
475.154761	2548.260419
475.525070	2545.182795
475.895321	2546.987528
476.265513	2548.406613
476.635645	2547.842004
477.005719	2548.068856
477.375734	2547.156407
477.745691	2547.819318
478.115588	2547.163968
478.485427	2546.753114
478.855207	2547.642878
479.224928	2545.954092
479.594591	2548.018444
479.964194	2548.724206
480.333739	2550.476007
480.703226	2546.576674
481.072653	2548.666232
481.442022	2547.940306
481.811333	2546.301931
482.180584	2543.930068
482.549777	2545.737322
482.918912	2544.535007
483.287988	2550.050029
483.657005	2548.643547
484.025964	2550.385266
484.394864	2550.707900
484.763706	2547.413506
485.132489	2550.231511
485.501213	2552.043805
485.869879	2549.258568
486.238487	2551.335523
486.607036	2548.126829
486.975527	2550.763352
487.343959	2545.954092
487.712333	2551.292673
488.080648	2548.794782
488.448905	2551.045657
488.817104	2552.023641
489.185244	2552.394166
489.553326	2548.641027
489.921350	2552.494989
490.289315	2546.536345
490.657222	2551.549772
491.025070	2551.557334
491.392861	2550.344937
491.760593	2550.937272
492.128267	2552.111861
492.495883	2548.119267
492.863440	2550.521377
493.230939	2551.925338
493.598380	2551.761501
493.965763	2551.363250
494.333088	2549.926521
494.700354	2551.161603
495.067563	2550.286963
495.434713	2549.505584
495.801805	2551.423743
496.168839	2553.951882
496.535815	2551.635472
496.902733	2550.329813
497.269593	2550.259237
497.636395	2550.667570
498.003139	2549.934083
498.369825	2551.438867
498.736453	2548.903167
499.103023	2548.358722
499.469535	2553.084804
499.835989	2549.737477
500.202385	2549.109854
500.568723	2550.397869
500.935003	2548.265461
501.301226	2547.496685
501.667390	2551.154042
502.033497	2551.852242
502.399546	2551.385935
502.765537	2552.522715
503.131470	2549.787889
503.497345	2551.149001
503.863163	2549.608928
504.228923	2551.000287
504.594625	2551.204453
504.960269	2552.401727
505.325856	2553.553631
505.691385	2552.663867
506.056856	2552.847869
506.422270	2552.472303
506.787625	2553.162942
507.152924	2552.313507
507.518164	2553.740154
507.883347	2554.214022
508.248472	2553.173024
508.613540	2552.910884
508.978550	2551.343085
509.343503	2552.154711
509.708398	2552.643703
510.073236	2550.473486
510.438016	2553.180586
510.802738	2551.945503
511.167403	2551.733774
511.532010	2550.652447
511.896561	2554.418189
512.261053	2552.792417
512.625488	2553.278888
512.989866	2550.647406
513.354186	2555.867521
513.718449	2552.898281
514.082655	2555.993549
514.446803	2550.518856
514.810894	2554.075390
515.174927	2554.755946
515.538904	2554.733261
515.902822	2554.118240
516.266684	2555.388611
516.630488	2554.370298
516.994235	2551.743857
517.357925	2552.079093
517.721558	2553.999773
518.085133	2552.005997
518.448651	2552.772252
518.812112	2551.506922
519.175516	2549.245965
519.538863	2545.336550
519.902152	2554.723179
520.265385	2555.194527
520.628560	2554.372818
520.991678	2554.609753
521.354739	2553.732592
521.717743	2554.894578
522.080690	2552.253013
522.443580	2555.068498
522.806413	2553.321738
523.169189	2552.752087
523.531908	2554.791234
523.894569	2556.502706
524.257174	2556.618653
524.619722	2551.973229
524.982213	2553.677139
525.344647	2557.858776
525.707025	2554.224104
526.069345	2556.933725
526.431608	2553.417520
526.793815	2556.038920
527.155964	2555.933056
527.518057	2554.413148
527.880093	2554.534135
528.242072	2554.997922
528.603995	2554.531615
528.965860	2554.874413
529.327669	2559.267779
529.689421	2556.311142
530.051117	2558.468756
530.412755	2557.473128
530.774337	2556.172510
531.135862	2556.293498
531.497331	2555.280226
531.858743	2556.827860
532.220098	2560.306257
532.581396	2556.444733
532.942638	2561.095197
533.303824	2563.542677
533.664953	2562.753737
534.026025	2559.444219
534.387040	2561.586710
534.747999	2561.405228
535.108902	2561.437996
535.469748	2560.333983
535.830537	2561.609395
536.191270	2563.777091
536.551947	2559.819785
536.912567	2560.863304
537.273131	2561.929508
537.633638	2561.203582
537.994089	2562.272307
538.354483	2563.391443
538.714821	2565.758264
539.075103	2566.085939
539.435328	2570.428893
539.795497	2568.044428
540.155609	2570.020560
540.515665	2566.718604
540.875665	2567.149623
541.235609	2570.983420
541.595496	2570.441496
541.955328	2570.486867
542.315102	2571.316137
542.674821	2572.226065
543.034483	2575.104564
543.394090	2572.357135
543.753640	2572.926785
544.113134	2575.656570
544.472571	2574.769327
544.831953	2578.061200
545.191278	2574.590366
545.550548	2576.248906
545.909761	2574.786971
546.268918	2576.185891
546.628019	2577.176478
546.987064	2576.621951
547.346053	2578.590522
547.704986	2578.386355
548.063863	2582.363825
548.422684	2578.353587
548.781449	2579.424832
549.140158	2576.977352
549.498811	2582.394072
549.857408	2579.376942
550.215949	2579.956674
550.574434	2580.707806
550.932864	2581.695872
551.291237	2581.315265
551.649555	2585.330544
552.007817	2582.706624
552.366022	2582.973805
552.724173	2581.774010
553.082267	2584.234093
553.440305	2582.772159
553.798288	2583.674525
554.156215	2585.660740
554.514086	2580.954823
554.871902	2582.734350
555.229661	2580.859041
555.587365	2579.351736
555.945014	2584.518918
556.302606	2586.041347
556.660143	2584.856676
557.017625	2585.610328
557.375050	2588.816502
557.732421	2585.050760
558.089735	2586.111923
558.446994	2587.006728
558.804197	2585.063363
559.161345	2591.105186
559.518437	2587.412541
559.875474	2587.732654
560.232455	2585.421285
560.589381	2586.205184
560.946251	2585.910277
561.303065	2586.590833
561.659825	2589.832295
562.016528	2587.200812
562.373177	2587.243662
562.729770	2585.917839
563.086307	2588.816502
563.442789	2589.423961
563.799216	2586.343816
564.155587	2587.997315
564.511904	2588.440936
564.868164	2586.578230
565.224370	2588.841708
565.580520	2587.399938
565.936615	2588.836667
566.292654	2586.767273
566.648638	2586.956316
567.004567	2588.529156
567.360441	2588.261975
567.716260	2585.726275
568.072023	2589.416399
568.427732	2586.875658
568.783385	2586.094279
569.138982	2588.330031
569.494525	2587.808271
569.850013	2587.553693
570.205445	2587.067222
570.560823	2585.272571
570.916145	2587.314238
571.271412	2585.766604
571.626625	2586.774835
571.981782	2585.121336
572.336884	2580.526325
572.691931	2580.730491
573.046923	2578.855182
573.401860	2579.878536
573.756743	2583.944227
574.111570	2585.539752
574.466342	2584.725606
574.821059	2587.064701
575.175722	2583.427509
575.530330	2585.002869
575.884882	2586.852973
576.239380	2583.530852
576.593823	2583.505647
576.948211	2583.140163
577.302544	2583.324165
577.656823	2581.436253
578.011047	2584.667632
578.365216	2581.842066
578.719330	2580.286870
579.073389	2583.172930
579.427394	2580.541448
579.781344	2582.099165
580.135239	2578.149421
580.489080	2580.738053
580.842866	2580.072621
581.196597	2582.736871
581.550273	2582.449525
581.903895	2580.566654
582.257463	2579.379462
582.610975	2580.818712
582.964434	2580.828794
583.317837	2578.378793
583.671186	2577.713361
584.024481	2581.506829
584.377721	2578.651015
584.730906	2578.855182
585.084037	2580.375090
585.437113	2579.545820
585.790135	2580.112950
586.143103	2578.499781
586.496016	2578.625810
586.848874	2580.896849
587.201679	2576.780747
587.554428	2577.786457
587.907124	2576.894173
588.259765	2575.308730
588.612352	2578.237641
588.964884	2578.035995
589.317362	2580.614545
589.669786	2577.471385
590.022155	2574.497105
590.374470	2572.079871
590.726731	2574.597928
591.078937	2572.105077
591.431090	2579.008937
591.783188	2575.457444
592.135232	2576.185891
592.487222	2576.566498
592.839157	2579.772672
593.191038	2575.386868
593.542866	2574.272773
593.894639	2572.959553
594.246358	2576.072465
594.598022	2575.558268
594.949633	2572.440314
595.301190	2577.841910
595.652692	2575.817887
596.004141	2573.569532
596.355535	2575.341498
596.706876	2575.896025
597.058162	2575.175140
597.409395	2575.948957
597.760573	2575.449883
598.111698	2574.673545
598.462768	2575.278483
598.813785	2574.227403
599.164748	2575.850654
599.515657	2574.368555
599.866511	2573.546847
600.217312	2573.985427
600.568060	2575.344018
600.918753	2580.347364
601.269392	2577.748649
601.619978	2576.465675
601.970510	2574.295458
602.320988	2574.880232
602.671412	2574.335788
603.021783	2575.142372
603.372100	2574.736559
603.722363	2576.100192
604.072572	2578.615727
604.422728	2578.976170
604.772830	2578.925758
605.122878	2575.049111
605.472872	2576.954667
605.822813	2577.489029
606.172701	2578.212435
606.522534	2577.514235
606.872314	2577.363001
607.222041	2579.218145
607.571714	2574.426528
607.921333	2576.654718
608.270899	2578.840059
608.620411	2576.387537
608.969870	2581.451376
609.319276	2582.757035
609.668627	2586.290884
610.017926	2591.667275
610.367171	2592.027717
610.716362	2595.170877
611.065500	2592.340269
611.414585	2590.391863
611.763616	2589.822212
612.112594	2589.519743
612.461518	2586.588312
612.810389	2586.800041
613.159207	2586.641244
613.507971	2586.232911
613.856682	2586.608477
614.205340	2589.786924
614.553945	2589.272727
614.902496	2586.502612
615.250994	2588.020000
615.599439	2587.576378
615.947830	2591.314394
616.296169	2589.121492
616.644454	2588.629979
616.992686	2586.162335
617.340864	2590.464959
617.688990	2590.979157
618.037063	2593.275403
618.385082	2591.276585
618.733048	2594.538212
619.080961	2591.180803
619.428821	2593.013263
619.776628	2594.891092
620.124382	2592.642738
620.472083	2593.051071
620.819731	2596.295054
621.167326	2597.089036
621.514868	2593.900506
621.862357	2593.507296
622.209793	2596.214395
622.557176	2593.104003
622.904506	2593.570310
623.251783	2592.551997
623.599007	2596.499221
623.946179	2597.038624
624.293297	2595.659868
624.640363	2595.367482
624.987376	2592.350351
625.334336	2591.057295
625.681243	2590.901019
626.028097	2594.117275
626.374899	2597.157091
626.721647	2598.651793
627.068343	2596.418562
627.414987	2595.110383
627.761577	2601.104315
628.108115	2598.671958
628.454600	2597.567945
628.801032	2599.571804
629.147412	2602.145313
629.493739	2602.001640
629.840014	2599.836464
630.186236	2601.482401
630.532405	2605.346446
630.878521	2601.212699
631.224585	2603.345107
631.570597	2605.550612
631.916556	2604.192021
632.262462	2601.681527
632.608316	2605.842999
632.954117	2606.352156
633.299866	2609.291148
633.645562	2608.265274
633.991206	2609.896087
634.336797	2607.241919
634.682336	2611.960439
635.027823	2606.115222
635.373257	2608.108998
635.718639	2610.032198
636.063968	2608.108998
636.409245	2608.025819
636.754470	2607.642691
637.099642	2608.487084
637.444762	2608.063627
637.789829	2611.521859
638.134845	2608.829883
638.479808	2610.959770
638.824719	2616.094186
639.169577	2613.840790
639.514383	2614.659977
639.859137	2614.085286
640.203839	2616.384052
640.548489	2614.203753
640.893086	2619.169289
641.237632	2613.069493
641.582125	2620.916049
641.926566	2621.972171
642.270955	2619.212139
642.615292	2617.825822
642.959576	2618.355143
643.303809	2617.561161
643.647990	2622.607356
643.992118	2623.776904
644.336195	2625.816051
