Dividing Wavelength (nm)	Counts (n)	Blue Motor Position (mm): 0.200000	Red Motor Position (mm): 0.000000	
326.493990	2058.812272
326.888308	2058.812272
327.282561	2058.812272
327.676750	2036.096833
328.070874	2034.347552
328.464933	2042.645292
328.858929	2049.619728
329.252859	2063.268652
329.646726	2077.245251
330.040528	2090.037179
330.434265	2107.804726
330.827938	2128.917078
331.221547	2152.736530
331.615091	2172.563388
332.008571	2193.451409
332.401986	2212.854810
332.795338	2232.132182
333.188625	2250.789493
333.581847	2269.693820
333.975006	2290.798610
334.368100	2304.258491
334.761129	2323.553507
335.154095	2336.650425
335.546996	2355.232118
335.939833	2366.940198
336.332606	2379.883360
336.725315	2392.284599
337.117960	2401.363717
337.510540	2412.668504
337.903056	2419.698393
338.295508	2427.222316
338.687896	2431.391350
339.080220	2438.196908
339.472480	2444.057249
339.864676	2449.171499
340.256807	2448.982456
340.648875	2452.947324
341.040879	2450.391459
341.432818	2452.468414
341.824694	2457.033179
342.216506	2452.783486
342.608253	2454.373970
342.999937	2452.463373
343.391557	2452.954885
343.783113	2451.676953
344.174605	2449.226952
344.566033	2447.880964
344.957397	2446.648402
345.348697	2444.450459
345.739934	2443.696806
346.131106	2441.216559
346.522215	2440.856116
346.913260	2437.365117
347.304241	2435.668769
347.695159	2435.469643
348.086012	2434.547112
348.476802	2432.765064
348.867528	2428.810279
349.258191	2424.152253
349.648789	2425.722572
350.039324	2423.451532
350.429796	2426.995464
350.820203	2423.804413
351.210548	2426.146029
351.600828	2424.394228
351.991045	2422.481110
352.381198	2423.857345
352.771288	2423.111255
353.161314	2422.075298
353.551276	2424.681574
353.941175	2423.270051
354.331010	2421.044382
354.720782	2423.038158
355.110490	2423.186872
355.500135	2420.404155
355.889717	2422.730648
356.279235	2425.236101
356.668689	2423.055802
357.058080	2427.204672
357.447408	2427.628128
357.836672	2427.250042
358.225873	2427.905392
358.615010	2426.493869
359.004084	2427.703746
359.393095	2430.478901
359.782043	2426.546801
360.170927	2430.199117
360.559748	2428.124682
360.948505	2428.913623
361.337199	2431.603078
361.725830	2429.702563
362.114398	2432.984354
362.502903	2430.972934
362.891344	2431.865218
363.279722	2431.242636
363.668037	2431.426638
364.056289	2432.129879
364.444478	2431.872780
364.832603	2433.054931
365.220665	2432.760023
365.608665	2437.521393
365.996601	2435.041145
366.384474	2436.193049
366.772284	2437.413008
367.160031	2437.085333
367.547715	2436.026691
367.935336	2435.348656
368.322893	2434.854622
368.710388	2432.845723
369.097820	2435.179777
369.485189	2430.877152
369.872495	2436.961825
370.259738	2436.233378
370.646918	2438.025508
371.034035	2437.488625
371.421090	2440.815787
371.808081	2437.324788
372.195010	2438.083482
372.581875	2437.884356
372.968678	2437.392843
373.355418	2438.517021
373.742096	2437.912082
374.128710	2439.941147
374.515262	2439.636157
374.901751	2441.516507
375.288177	2439.245468
375.674540	2439.316044
376.060841	2440.679676
376.447079	2440.445262
376.833254	2441.720674
377.219367	2440.256219
377.605417	2442.043308
377.991404	2441.153544
378.377329	2443.525407
378.763191	2442.786878
379.148991	2444.142948
379.534727	2442.446600
379.920402	2442.983483
380.306013	2442.968360
380.691563	2444.253854
381.077049	2444.674790
381.462474	2444.573967
381.847835	2445.670418
382.233134	2445.093206
382.618371	2441.418205
383.003545	2444.435335
383.388657	2443.049018
383.773706	2445.443566
384.158693	2448.087651
384.543618	2447.737291
384.928480	2443.719492
385.313280	2446.769390
385.698017	2447.011365
386.082692	2447.354163
386.467305	2447.291149
386.851856	2448.228804
387.236344	2446.212342
387.620770	2445.428443
388.005133	2444.974739
388.389435	2445.514142
388.773674	2443.971549
389.157851	2446.298042
389.541965	2447.649071
389.926018	2447.447425
390.310008	2445.685542
390.693936	2449.980605
391.077802	2446.305603
391.461606	2446.850048
391.845348	2448.299380
392.229027	2449.020265
392.612645	2450.325924
392.996200	2450.635955
393.379694	2450.131839
393.763125	2450.532611
394.146494	2451.548403
394.529801	2451.422375
394.913047	2451.253496
395.296230	2450.648558
395.679351	2450.673763
396.062410	2450.648557
396.445408	2452.780966
396.828343	2454.878086
397.211217	2451.084617
397.594028	2449.620162
397.976778	2453.204423
398.359466	2452.438167
398.742092	2455.523353
399.124656	2452.775924
399.507158	2452.876747
399.889598	2453.685853
400.271977	2455.488065
400.654294	2454.000925
401.036549	2452.559155
401.418742	2451.561006
401.800874	2452.846501
402.182944	2453.902622
402.564952	2454.754577
402.946898	2454.442026
403.328783	2457.900257
403.710606	2453.698456
404.092367	2454.404217
404.474067	2454.104268
404.855705	2459.563838
405.237282	2455.974537
405.618797	2456.869341
406.000250	2457.189455
406.381642	2455.147787
406.762972	2454.348764
407.144240	2452.773404
407.525447	2455.833384
407.906593	2451.462704
408.287677	2457.287757
408.668700	2457.471759
409.049661	2456.095524
409.430560	2455.856069
409.811399	2457.396142
410.192176	2457.320525
410.572891	2455.825822
410.953545	2459.994857
411.334138	2458.265741
411.714669	2457.260031
412.095139	2460.251956
412.475547	2459.334466
412.855894	2458.359002
413.236180	2458.462346
413.616405	2457.786831
413.996568	2458.724486
414.376670	2458.999229
414.756711	2458.923612
415.136691	2458.258179
415.516609	2461.000567
415.896466	2459.084928
416.276262	2459.626852
416.655997	2460.488890
417.035670	2460.375464
417.415283	2462.462502
417.794834	2460.622480
418.174324	2461.050978
418.553753	2458.248097
418.933121	2462.260855
419.312428	2460.539301
419.691674	2462.202882
420.070859	2459.838581
420.449983	2461.746658
420.829045	2463.984930
421.208047	2460.284723
421.586988	2461.645835
421.965867	2463.506020
422.344686	2462.535598
422.723444	2461.809672
423.102141	2457.917901
423.480777	2462.157512
423.859352	2465.925774
424.237866	2462.452419
424.616319	2464.410907
424.994712	2463.659776
425.373044	2463.803448
425.751314	2460.670371
426.129524	2458.648869
426.507673	2463.238839
426.885762	2459.014352
427.263789	2462.109621
427.641756	2460.745989
428.019662	2466.583645
428.397508	2462.843109
428.775292	2465.272945
429.153016	2464.194138
429.530679	2465.746813
429.908282	2466.445013
430.285824	2463.707667
430.663305	2463.276648
431.040726	2466.951649
431.418086	2464.945270
431.795385	2466.475260
432.172624	2463.785804
432.549802	2465.711525
432.926920	2463.939560
433.303977	2463.659776
433.680974	2466.656742
434.057910	2466.485342
434.434786	2465.008284
434.811601	2466.228243
435.188355	2465.555249
435.565050	2467.486011
435.941683	2463.543829
436.318257	2468.156485
436.694770	2468.257308
437.071222	2469.731845
437.447614	2469.333594
437.823946	2467.644808
438.200218	2466.245888
438.576429	2469.008440
438.952580	2466.878552
439.328670	2466.926443
439.704700	2466.331587
440.080670	2468.937864
440.456580	2465.935857
440.832429	2468.854685
441.208218	2468.632874
441.583947	2467.624643
441.959616	2467.455764
442.335224	2469.580611
442.710773	2467.722946
443.086261	2468.587503
443.461689	2469.971300
443.837057	2468.645477
444.212365	2469.497432
444.587612	2466.243367
444.962800	2466.218161
445.337927	2465.777060
445.712995	2464.652883
446.088002	2470.102370
446.462949	2470.682103
446.837837	2469.764613
447.212664	2469.933492
447.587431	2467.513738
447.962139	2469.454582
448.336786	2473.001034
448.711374	2468.418625
449.085901	2470.545992
449.460369	2470.848461
449.834776	2470.074644
450.209124	2470.616568
450.583412	2471.264356
450.957640	2467.753192
451.331808	2472.159161
451.705917	2472.189408
452.079965	2471.123204
452.453954	2469.356279
452.827883	2469.915847
453.201752	2470.661938
453.575562	2468.647997
453.949311	2472.073461
454.323001	2468.277472
454.696632	2472.247381
455.070202	2471.642443
455.443713	2474.054635
455.817164	2471.176136
456.190556	2470.636732
456.563888	2471.569346
456.937160	2470.813173
457.310373	2472.748976
457.683526	2473.437093
458.056619	2469.341156
458.429653	2471.949953
458.802628	2473.348873
459.175542	2472.149079
459.548398	2471.682772
459.921194	2470.455251
460.293930	2471.191259
460.666607	2471.823924
461.039224	2473.386682
461.411782	2472.401136
461.784280	2471.866774
462.156719	2472.963225
462.529099	2473.195118
462.901419	2471.133286
463.273680	2470.530868
463.645882	2469.978862
464.018024	2470.520786
464.390106	2469.401650
464.762130	2474.505818
465.134094	2473.159830
465.505999	2471.430714
465.877845	2473.273256
466.249631	2473.860550
466.621358	2472.456589
466.993026	2472.809470
467.364634	2478.024543
467.736184	2473.699233
468.107674	2473.386682
468.479105	2471.753348
468.850477	2474.450365
469.221790	2471.276959
469.593043	2471.970118
469.964238	2474.110088
470.335373	2473.643781
470.706449	2471.866774
471.077467	2474.024388
471.448425	2475.335088
471.819324	2474.838534
472.190164	2476.736529
472.560945	2473.381641
472.931667	2474.374748
473.302330	2475.077989
473.672934	2473.994141
474.043479	2473.288379
474.413965	2473.764768
474.784393	2472.890128
475.154761	2475.388020
475.525070	2472.932978
475.895321	2474.538586
476.265513	2476.035808
476.635645	2475.655201
477.005719	2473.220324
477.375734	2475.198977
477.745691	2474.949440
478.115588	2475.451034
478.485427	2474.659573
478.855207	2472.577577
479.224928	2478.211066
479.594591	2474.740232
479.964194	2475.022536
480.333739	2474.415077
480.703226	2474.205869
481.072653	2475.554378
481.442022	2476.446662
481.811333	2475.889615
482.180584	2469.915848
482.549777	2473.570684
482.918912	2473.059007
483.287988	2475.934985
483.657005	2475.065386
484.025964	2475.841724
484.394864	2476.620582
484.763706	2475.151086
485.132489	2475.214100
485.501213	2475.322485
485.869879	2476.159317
486.238487	2477.734677
486.607036	2475.322485
486.975527	2474.573874
487.343959	2475.158647
487.712333	2476.391210
488.080648	2473.502628
488.448905	2474.142855
488.817104	2475.322485
489.185244	2476.111426
489.553326	2474.374748
489.921350	2475.892135
490.289315	2476.504636
490.657222	2478.193422
491.025070	2476.217290
491.392861	2479.506643
491.760593	2477.412043
492.128267	2477.903556
492.495883	2474.591518
492.863440	2475.856847
493.230939	2477.301138
493.598380	2480.719040
493.965763	2480.252733
494.333088	2477.061683
494.700354	2475.478761
495.067563	2479.312558
495.434713	2478.826087
495.801805	2476.118987
496.168839	2473.424491
496.535815	2476.948257
496.902733	2478.271560
497.269593	2477.835500
497.636395	2480.731643
498.003139	2477.969091
498.369825	2480.368680
498.736453	2476.953298
499.103023	2478.480768
499.469535	2475.960191
499.835989	2476.613020
500.202385	2476.928092
500.568723	2475.332567
500.935003	2476.197125
501.301226	2472.617906
501.667390	2479.483958
502.033497	2478.185860
502.399546	2479.499081
502.765537	2477.901035
503.131470	2476.837352
503.497345	2480.172075
503.863163	2479.194091
504.228923	2479.562095
504.594625	2477.094451
504.960269	2475.771148
505.325856	2475.720736
505.691385	2477.961529
506.056856	2477.747280
506.422270	2477.694348
506.787625	2478.354739
507.152924	2477.467496
507.518164	2480.134266
507.883347	2476.912969
508.248472	2478.669811
508.613540	2477.840541
508.978550	2478.183340
509.343503	2478.049749
509.708398	2482.483444
510.073236	2478.006899
510.438016	2480.056128
510.802738	2476.860037
511.167403	2478.873978
511.532010	2479.453711
511.896561	2478.702579
512.261053	2478.228710
512.625488	2478.309369
512.989866	2480.403968
513.354186	2477.858185
513.718449	2479.753659
514.082655	2476.854996
514.446803	2479.604945
514.810894	2480.766931
515.174927	2478.798361
515.538904	2480.393886
515.902822	2476.955819
516.266684	2477.739718
516.630488	2481.956643
516.994235	2479.889770
517.357925	2479.098309
517.721558	2478.831128
518.085133	2477.752321
518.448651	2477.364152
518.812112	2476.852475
519.175516	2479.778865
519.538863	2474.851137
519.902152	2481.268526
520.265385	2483.408496
520.628560	2477.318782
520.991678	2479.912456
521.354739	2479.055459
521.717743	2479.221817
522.080690	2481.881026
522.443580	2476.761734
522.806413	2481.462610
523.169189	2480.426653
523.531908	2476.000520
523.894569	2480.555203
524.257174	2478.064873
524.619722	2476.996148
524.982213	2480.570326
525.344647	2480.870275
525.707025	2479.925058
526.069345	2477.500263
526.431608	2479.698207
526.793815	2479.362970
527.155964	2478.962198
527.518057	2478.581591
527.880093	2477.974132
528.242072	2478.079996
528.603995	2480.829946
528.965860	2479.834318
529.327669	2483.048053
529.689421	2481.132415
530.051117	2477.568319
530.412755	2479.380614
530.774337	2480.154431
531.135862	2479.141159
531.497331	2479.975470
531.858743	2481.276088
532.220098	2481.369349
532.581396	2481.364308
532.942638	2482.531335
533.303824	2480.245172
533.664953	2480.252733
534.026025	2479.481437
534.387040	2481.470172
534.747999	2480.219966
535.108902	2480.459421
535.469748	2479.161324
535.830537	2482.135604
536.191270	2479.345326
536.551947	2477.096971
536.912567	2475.821559
537.273131	2480.214925
537.633638	2474.072279
537.994089	2481.102168
538.354483	2478.541262
538.714821	2482.990080
539.075103	2478.952116
539.435328	2481.598722
539.795497	2481.329020
540.155609	2478.856334
540.515665	2478.954636
540.875665	2480.116622
541.235609	2481.104688
541.595496	2480.466983
541.955328	2479.219297
542.315102	2480.514873
542.674821	2478.077476
543.034483	2480.469503
543.394090	2480.146869
543.753640	2480.691314
544.113134	2482.848928
544.472571	2479.357929
544.831953	2483.184164
545.191278	2479.715851
545.550548	2480.887919
545.909761	2480.865234
546.268918	2483.408496
546.628019	2479.894812
546.987064	2479.216776
547.346053	2481.404637
547.704986	2480.209884
548.063863	2480.126705
548.422684	2480.078814
548.781449	2479.383134
549.140158	2478.281642
549.498811	2481.507981
549.857408	2480.106540
550.215949	2481.659215
550.574434	2480.081334
550.932864	2480.388845
551.291237	2477.490181
551.649555	2482.473362
552.007817	2481.618886
552.366022	2482.075111
552.724173	2481.717189
553.082267	2482.599391
553.440305	2481.470172
553.798288	2480.197281
554.156215	2482.352374
554.514086	2477.288535
554.871902	2475.962712
555.229661	2476.832311
555.587365	2476.993628
555.945014	2480.315748
556.302606	2478.397589
556.660143	2480.792137
557.017625	2483.761377
557.375050	2480.703917
557.732421	2480.517394
558.089735	2479.617548
558.446994	2480.640902
558.804197	2482.208701
559.161345	2483.242138
559.518437	2480.149390
559.875474	2480.676190
560.232455	2482.352374
560.589381	2480.560244
560.946251	2481.364308
561.303065	2480.887919
561.659825	2480.214925
562.016528	2479.516725
562.373177	2481.404637
562.729770	2482.183495
563.086307	2481.336582
563.442789	2479.186529
563.799216	2480.945892
564.155587	2482.044864
564.511904	2479.725933
564.868164	2482.347333
565.224370	2479.534369
565.580520	2480.497229
565.936615	2484.371356
566.292654	2481.686942
566.648638	2484.000831
567.004567	2483.121150
567.360441	2482.322127
567.716260	2481.507981
568.072023	2481.117291
568.427732	2478.430356
568.783385	2481.364308
569.138982	2480.068731
569.494525	2481.984370
569.850013	2481.162662
570.205445	2481.303814
570.560823	2481.767600
570.916145	2480.202322
571.271412	2483.413537
571.626625	2482.397744
571.981782	2481.414719
572.336884	2478.629482
572.691931	2475.851806
573.046923	2479.214256
573.401860	2474.878863
573.756743	2483.501757
574.111570	2482.057467
574.466342	2481.003865
574.821059	2480.802219
575.175722	2481.170223
575.530330	2479.060501
575.884882	2482.942189
576.239380	2480.318268
576.593823	2482.175934
576.948211	2478.735346
577.302544	2482.430512
577.656823	2481.200470
578.011047	2483.867241
578.365216	2481.714668
578.719330	2480.477065
579.073389	2481.686942
579.427394	2482.460759
579.781344	2481.177785
580.135239	2481.689462
580.489080	2482.206181
580.842866	2479.226859
581.196597	2483.045533
581.550273	2479.045377
581.903895	2478.523618
582.257463	2482.233907
582.610975	2482.291880
582.964434	2482.455718
583.317837	2478.899184
583.671186	2481.087044
584.024481	2481.805409
584.377721	2483.650471
584.730906	2480.915645
585.084037	2481.029071
585.437113	2482.533856
585.790135	2480.787096
586.143103	2481.452528
586.496016	2480.779534
586.848874	2481.439925
587.201679	2483.196767
587.554428	2480.489668
587.907124	2482.372539
588.259765	2480.834987
588.612352	2481.674339
588.964884	2482.364977
589.317362	2483.302632
589.669786	2480.275419
590.022155	2478.281642
590.374470	2479.365490
590.726731	2479.214256
591.078937	2476.413895
591.431090	2481.956643
591.783188	2478.488330
592.135232	2482.629637
592.487222	2479.783906
592.839157	2480.832466
593.191038	2482.433033
593.542866	2481.233238
593.894639	2481.266005
594.246358	2484.164669
594.598022	2479.236941
594.949633	2480.837507
595.301190	2482.745584
595.652692	2484.089052
596.004141	2480.260295
596.355535	2480.232569
596.706876	2480.406489
597.058162	2481.283649
597.409395	2481.560913
597.760573	2482.077631
598.111698	2480.469503
598.462768	2481.671818
598.813785	2480.618217
599.164748	2479.476396
599.515657	2481.145018
599.866511	2480.898001
600.217312	2481.734833
600.568060	2482.546458
600.918753	2484.769607
601.269392	2480.814822
601.619978	2482.067549
601.970510	2478.435398
602.320988	2480.474544
602.671412	2481.659215
603.021783	2479.841879
603.372100	2483.360605
603.722363	2481.026551
604.072572	2482.453197
604.422728	2479.685604
604.772830	2479.340285
605.122878	2482.438074
605.472872	2481.162662
605.822813	2482.453197
606.172701	2480.716520
606.522534	2480.698876
606.872314	2482.410347
607.222041	2478.838690
607.571714	2479.357929
607.921333	2477.969091
608.270899	2479.909935
608.620411	2477.948926
608.969870	2480.754328
609.319276	2482.536376
609.668627	2482.327168
610.017926	2479.277270
610.367171	2484.678867
610.716362	2479.965388
611.065500	2481.076962
611.414585	2482.201139
611.763616	2481.608804
612.112594	2483.191726
612.461518	2484.157107
612.810389	2476.270222
613.159207	2482.415388
613.507971	2481.218114
613.856682	2483.925214
614.205340	2481.996973
614.553945	2481.933958
614.902496	2481.107209
615.250994	2480.545120
615.599439	2478.321972
615.947830	2480.814822
616.296169	2480.164513
616.644454	2480.678711
616.992686	2478.947075
617.340864	2483.249699
617.688990	2480.207363
618.037063	2482.485965
618.385082	2482.196098
618.733048	2481.795327
619.080961	2481.596201
619.428821	2479.955305
619.776628	2482.433032
620.124382	2481.664257
620.472083	2479.693165
620.819731	2479.622589
621.167326	2482.662405
621.514868	2482.816160
621.862357	2483.675677
622.209793	2481.644092
622.557176	2480.993783
622.904506	2478.775675
623.251783	2480.920686
623.599007	2478.846252
623.946179	2482.821201
624.293297	2482.453197
624.640363	2482.049905
624.987376	2479.577219
625.334336	2479.211735
625.681243	2478.332054
626.028097	2474.324337
626.374899	2481.482775
626.721647	2481.702065
627.068343	2484.283136
627.414987	2482.100316
627.761577	2479.700727
628.108115	2481.875985
628.454600	2483.486634
628.801032	2480.388845
629.147412	2484.444453
629.493739	2481.810450
629.840014	2482.793475
630.186236	2481.011427
630.532405	2483.151397
630.878521	2480.104019
631.224585	2484.336068
631.570597	2479.156283
631.916556	2481.210553
632.262462	2482.543938
632.608316	2481.999493
632.954117	2478.967239
633.299866	2481.197950
633.645562	2479.990593
633.991206	2485.271202
634.336797	2482.765749
634.682336	2482.150728
635.027823	2483.647951
635.373257	2482.143166
635.718639	2484.424288
636.063968	2482.531335
636.409245	2481.278608
636.754470	2479.534369
637.099642	2481.429843
637.444762	2482.329689
637.789829	2482.213742
638.134845	2480.494709
638.479808	2483.385811
638.824719	2482.397744
639.169577	2479.655357
639.514383	2482.377580
639.859137	2480.577888
640.203839	2483.322796
640.548489	2479.904894
640.893086	2480.192240
641.237632	2482.095275
641.582125	2481.586119
641.926566	2480.771972
642.270955	2481.177785
642.615292	2477.792650
642.959576	2480.945892
643.303809	2475.125880
643.647990	2483.950420
643.992118	2482.276757
644.336195	2479.829277
