Dividing Wavelength (nm)	Counts (n)	Blue Motor Position (mm): 28.400000	Red Motor Position (mm): 0.000000	
326.493990	2205.003213
326.888308	2205.003213
327.282561	2205.003213
327.676750	2168.525424
328.070874	2162.022335
328.464933	2163.791780
328.858929	2166.216575
329.252859	2173.627071
329.646726	2180.004131
330.040528	2192.768333
330.434265	2206.192925
330.827938	2222.117930
331.221547	2239.681310
331.615091	2258.056316
332.008571	2279.750922
332.401986	2295.010494
332.795338	2311.900880
333.188625	2333.759323
333.581847	2353.001408
333.975006	2368.966742
334.368100	2389.552293
334.761129	2407.834038
335.154095	2426.587130
335.546996	2447.901129
335.939833	2487.030565
336.332606	2503.008502
336.725315	2514.177178
337.117960	2530.197965
337.510540	2539.289686
337.903056	2551.060780
338.295508	2559.928170
338.687896	2571.542988
339.080220	2578.015830
339.472480	2582.230235
339.864676	2591.405135
340.256807	2597.111721
340.648875	2594.875969
341.040879	2599.750765
341.432818	2602.798142
341.824694	2604.802001
342.216506	2605.890890
342.608253	2610.778289
342.999937	2608.507249
343.391557	2606.775613
343.783113	2607.577156
344.174605	2604.000457
344.566033	2602.510797
344.957397	2605.618668
345.348697	2602.677155
345.739934	2600.832092
346.131106	2601.149685
346.522215	2598.102308
346.913260	2598.213213
347.304241	2594.802872
347.695159	2591.662233
348.086012	2592.665423
348.476802	2590.059147
348.867528	2584.715523
349.258191	2582.504978
349.648789	2583.896336
350.039324	2576.609348
350.429796	2583.908939
350.820203	2578.272929
351.210548	2580.244020
351.600828	2578.126735
351.991045	2575.996848
352.381198	2576.493402
352.771288	2576.730336
353.161314	2573.957701
353.551276	2573.143555
353.941175	2574.665983
354.331010	2574.255129
354.720782	2572.336970
355.110490	2573.047773
355.500135	2571.984089
355.889717	2573.100705
356.279235	2573.289748
356.668689	2572.246229
357.058080	2572.873853
357.447408	2574.446693
357.836672	2574.686148
358.225873	2574.504666
358.615010	2574.265212
359.004084	2575.154975
359.393095	2576.788309
359.782043	2576.074986
360.170927	2577.935172
360.559748	2574.303020
360.948505	2577.103381
361.337199	2578.782085
361.725830	2576.082548
362.114398	2579.475244
362.502903	2578.451890
362.891344	2580.047415
363.279722	2579.160172
363.668037	2580.496078
364.056289	2581.562282
364.444478	2581.789134
364.832603	2584.095462
365.220665	2582.210070
365.608665	2583.707293
365.996601	2582.953640
366.384474	2583.989597
366.772284	2583.039340
367.160031	2584.055132
367.547715	2584.619742
367.935336	2585.002869
368.322893	2583.162848
368.710388	2583.130081
369.097820	2585.552355
369.485189	2583.495564
369.872495	2589.010587
370.259738	2590.255752
370.646918	2586.270719
371.034035	2588.811461
371.421090	2588.624938
371.808081	2586.275761
372.195010	2588.781214
372.581875	2590.918663
372.968678	2590.752305
373.355418	2591.495875
373.742096	2590.212902
374.128710	2589.648292
374.515262	2594.099631
374.901751	2589.197109
375.288177	2593.666092
375.674540	2592.783890
376.060841	2592.549477
376.447079	2592.390680
376.833254	2591.783221
377.219367	2593.091401
377.605417	2594.323963
377.991404	2593.345979
378.377329	2592.551997
378.763191	2594.722214
379.148991	2595.042327
379.534727	2598.273707
379.920402	2596.867225
380.306013	2591.803386
380.691563	2597.177256
381.077049	2595.150712
381.462474	2595.962338
381.847835	2595.753130
382.233134	2594.868407
382.618371	2596.108531
383.003545	2600.819489
383.388657	2599.831423
383.773706	2599.269335
384.158693	2603.045159
384.543618	2599.239088
384.928480	2598.407297
385.313280	2597.552822
385.698017	2597.789756
386.082692	2598.041814
386.467305	2600.116248
386.851856	2597.368820
387.236344	2602.077257
387.620770	2596.579879
388.005133	2598.457709
388.389435	2597.562904
388.773674	2598.833275
389.157851	2605.023812
389.541965	2602.084819
389.926018	2603.085488
390.310008	2601.641198
390.693936	2603.266970
391.077802	2605.611106
391.461606	2603.957608
391.845348	2605.633791
392.229027	2604.502052
392.612645	2604.232351
392.996200	2602.785539
393.379694	2607.521703
393.763125	2606.470623
394.146494	2606.959615
394.529801	2606.798298
394.913047	2610.392641
395.296230	2608.799636
395.679351	2606.717639
396.062410	2610.095212
396.445408	2607.551950
396.828343	2611.713423
397.211217	2609.946498
397.594028	2608.638319
397.976778	2607.632609
398.359466	2611.597476
398.742092	2607.551950
399.124656	2609.449945
399.507158	2609.916252
399.889598	2611.325254
400.271977	2610.075048
400.654294	2611.776437
401.036549	2611.899946
401.418742	2611.705861
401.800874	2612.819956
402.182944	2616.091665
402.564952	2613.525718
402.946898	2614.662498
403.328783	2612.991355
403.710606	2614.725512
404.092367	2615.481685
404.474067	2618.602160
404.855705	2614.183588
405.237282	2614.891870
405.618797	2617.692231
406.000250	2616.578136
406.381642	2617.767849
406.762972	2615.237189
407.144240	2613.956736
407.525447	2614.228959
407.906593	2612.283073
408.287677	2618.413116
408.668700	2618.012345
409.049661	2619.993518
409.430560	2620.905967
409.811399	2618.458487
410.192176	2619.358333
410.572891	2619.103754
410.953545	2622.191461
411.334138	2620.071656
411.714669	2621.389918
412.095139	2622.630042
412.475547	2623.645834
412.855894	2621.445370
413.236180	2624.240690
413.616405	2623.744137
413.996568	2622.224229
414.376670	2623.219857
414.756711	2627.008284
415.136691	2627.277985
415.516609	2627.590537
415.896466	2625.306894
416.276262	2625.286730
416.655997	2624.686832
417.035670	2625.823612
417.415283	2629.468367
417.794834	2629.841412
418.174324	2630.658079
418.553753	2628.820578
418.933121	2629.821247
419.312428	2634.252422
419.691674	2632.850981
420.070859	2631.026083
420.449983	2632.883748
420.829045	2632.641773
421.208047	2634.093625
421.586988	2633.218985
421.965867	2633.617236
422.344686	2636.304171
422.723444	2638.406332
423.102141	2634.222175
423.480777	2638.456744
423.859352	2639.185191
424.237866	2639.394399
424.616319	2640.884060
424.994712	2640.914307
425.373044	2640.800881
425.751314	2642.197280
426.129524	2638.028246
426.507673	2640.475726
426.885762	2639.928761
427.263789	2645.688279
427.641756	2645.572333
428.019662	2647.646767
428.397508	2649.726243
428.775292	2649.456542
429.153016	2651.861172
429.530679	2653.076090
429.908282	2657.063643
430.285824	2656.176400
430.663305	2662.371978
431.040726	2663.544046
431.418086	2668.262566
431.795385	2673.056703
432.172624	2679.501819
432.549802	2683.759073
432.926920	2688.152439
433.303977	2696.674509
433.680974	2706.686241
434.057910	2722.870865
434.434786	2733.628687
434.811601	2746.150914
435.188355	2766.907865
435.565050	2781.302879
435.941683	2799.509007
436.318257	2832.452947
436.694770	2863.370343
437.071222	2891.144581
437.447614	2924.131371
437.823946	2957.849128
438.200218	2998.296826
438.576429	3028.226157
438.952580	3086.925352
439.328670	3140.893424
439.704700	3176.584794
440.080670	3229.612691
440.456580	3334.443485
440.832429	3381.832852
441.208218	3403.920668
441.583947	3503.130575
441.959616	3595.265223
442.335224	3646.493429
442.710773	3741.617481
443.086261	3851.741487
443.461689	3828.153928
443.837057	4008.498687
444.212365	4148.403309
444.587612	4180.331457
444.962800	4321.874454
445.337927	4370.733317
445.712995	4378.917630
446.088002	4723.256164
446.462949	4745.089401
446.837837	4847.452551
447.212664	4964.203153
447.587431	5213.064754
447.962139	5538.138519
448.336786	6333.254509
448.711374	6711.923301
449.085901	6160.942829
449.460369	6140.231249
449.834776	6088.519093
450.209124	6539.551127
450.583412	6828.835220
450.957640	7366.441510
451.331808	7200.302724
451.705917	6910.123826
452.079965	6745.883034
452.453954	7308.196019
452.827883	7264.295131
453.201752	7540.988942
453.575562	7446.404293
453.949311	7788.118906
454.323001	7906.102071
454.696632	8169.759458
455.070202	8464.359448
455.443713	8734.928257
455.817164	9157.613883
456.190556	9296.006159
456.563888	9668.287809
456.937160	9931.373026
457.310373	9658.487806
457.683526	9844.801291
458.056619	9699.764774
458.429653	9919.128063
458.802628	9702.116472
459.175542	10056.582684
459.548398	10830.130098
459.921194	11212.489014
460.293930	11348.239726
460.666607	12126.175464
461.039224	13019.994726
461.411782	13693.956666
461.784280	13799.236123
462.156719	14010.578936
462.529099	13921.784052
462.901419	13214.139643
463.273680	13181.725023
463.645882	13175.090865
464.018024	13061.034759
464.390106	13358.848484
464.762130	14089.072222
465.134094	14778.341626
465.505999	16465.933411
465.877845	19354.519606
466.249631	21992.953664
466.621358	21999.829798
466.993026	20926.439595
467.364634	20587.205229
467.736184	19413.483462
468.107674	18766.867261
468.479105	18956.142423
468.850477	18550.851298
469.221790	18241.495851
469.593043	17680.332249
469.964238	17230.989001
470.335373	16985.610837
470.706449	17407.308397
471.077467	17017.377668
471.448425	18789.386095
471.819324	22638.518785
472.190164	24776.177223
472.560945	21501.794045
472.931667	19191.733186
473.302330	18586.590558
473.672934	18088.874918
474.043479	18518.101442
474.413965	18370.398155
474.784393	18024.595165
475.154761	18703.999031
475.525070	18760.359131
475.895321	18416.360875
476.265513	19007.390793
476.635645	19583.100644
477.005719	19408.926258
477.375734	19620.385018
477.745691	20106.989955
478.115588	20599.094791
478.485427	21127.362343
478.855207	22172.416221
479.224928	23904.498709
479.594591	26116.307480
479.964194	26241.222231
480.333739	26447.637316
480.703226	26018.372984
481.072653	25692.369126
481.442022	26245.247592
481.811333	27156.627714
482.180584	27109.971835
482.549777	26159.104355
482.918912	25808.630737
483.287988	25908.889205
483.657005	25624.348837
484.025964	25334.719426
484.394864	25300.159795
484.763706	25005.645505
485.132489	24417.294961
485.501213	24585.354427
485.869879	24508.494475
486.238487	24300.239368
486.607036	24457.999757
486.975527	24137.573937
487.343959	24482.308201
487.712333	24442.924187
488.080648	24118.412511
488.448905	24578.914353
488.817104	24326.415560
489.185244	24988.175387
489.553326	24975.461597
489.921350	25914.502529
490.289315	28169.231684
490.657222	29980.553549
491.025070	30479.912605
491.392861	30280.671081
491.760593	29445.213257
492.128267	28555.462206
492.495883	27537.096197
492.863440	26642.263663
493.230939	25773.020026
493.598380	25619.053105
493.965763	25215.279367
494.333088	24783.673419
494.700354	24689.565159
495.067563	24590.952628
495.434713	24340.099772
495.801805	24480.042202
496.168839	24317.805269
496.535815	24121.298571
496.902733	24327.360776
497.269593	24020.324260
497.636395	24200.709347
498.003139	24190.165774
498.369825	23949.032262
498.736453	24122.271514
499.103023	24014.872252
499.469535	24033.713564
499.835989	24231.299069
500.202385	24263.693523
500.568723	23749.049689
500.935003	24040.332599
501.301226	23618.297282
501.667390	24440.980822
502.033497	24699.314751
502.399546	24422.620940
502.765537	24013.758157
503.131470	24395.554985
503.497345	24520.683985
503.863163	23730.508325
504.228923	24355.122410
504.594625	24541.546800
504.960269	24060.756834
505.325856	24552.387801
505.691385	23976.188958
506.056856	24569.333640
506.422270	24530.143710
506.787625	24124.993737
507.152924	24533.513721
507.518164	24566.939092
507.883347	24373.210070
508.248472	24063.504263
508.613540	24831.191335
508.978550	24622.585869
509.343503	24603.686583
509.708398	24881.121444
510.073236	25036.091554
510.438016	25241.155610
510.802738	24933.693117
511.167403	25165.928992
511.532010	24856.066909
511.896561	25656.077860
512.261053	25625.306657
512.625488	25454.290554
512.989866	25349.540418
513.354186	25202.658839
513.718449	25304.064169
514.082655	25688.908374
514.446803	25418.533649
514.810894	25872.602979
515.174927	25359.189186
515.538904	25385.950152
515.902822	25872.744132
516.266684	25632.157585
516.630488	25538.626537
516.994235	25527.944332
517.357925	25811.506715
517.721558	26009.402251
518.085133	26092.614057
518.448651	26013.377200
518.812112	25738.490643
519.175516	25922.210454
519.538863	26093.551711
519.902152	25867.886980
520.265385	26173.254874
520.628560	25957.163294
520.991678	25966.832227
521.354739	26041.196808
521.717743	26111.387313
522.080690	25889.120320
522.443580	26220.702214
522.806413	26218.090896
523.169189	26311.271584
523.531908	26367.379626
523.894569	25972.085109
524.257174	26044.602107
524.619722	26237.854740
524.982213	25926.024087
525.344647	25995.849108
525.707025	26120.857121
526.069345	26114.996780
526.431608	26061.280765
526.793815	26268.565449
527.155964	25702.900097
527.518057	25868.554933
527.880093	25800.272504
528.242072	26032.654573
528.603995	25737.626085
528.965860	25533.754262
529.327669	25587.818116
529.689421	25571.630971
530.051117	25404.584777
530.412755	25589.179228
530.774337	25390.333435
531.135862	25255.873259
531.497331	25467.344622
531.858743	24996.175698
532.220098	25495.118859
532.581396	25161.389433
532.942638	25111.958399
533.303824	25203.248654
533.664953	25227.272273
534.026025	24894.120059
534.387040	25121.080367
534.747999	25184.351889
535.108902	25355.075605
535.469748	24840.499826
535.830537	25024.922878
536.191270	25149.996425
536.551947	25033.064341
536.912567	24695.884246
537.273131	25013.378635
537.633638	24723.522372
537.994089	24934.469454
538.354483	24488.110569
538.714821	24982.972916
539.075103	25023.065212
539.435328	24809.922707
539.795497	24361.012998
540.155609	24768.103816
540.515665	25064.342180
540.875665	24297.270129
541.235609	24580.149436
541.595496	24554.588265
541.955328	24915.524798
542.315102	24816.312370
542.674821	24376.186872
543.034483	24257.450054
543.394090	24418.174642
543.753640	24210.869793
544.113134	24834.780637
544.472571	24447.738489
544.831953	24726.610078
545.191278	24345.695453
545.550548	24266.511528
545.909761	24485.143850
546.268918	24712.961154
546.628019	24672.442880
546.987064	24373.522622
547.346053	24137.160562
547.704986	24265.147896
548.063863	24418.532564
548.422684	24422.870477
548.781449	23967.361897
549.140158	24370.187898
549.498811	23929.522997
549.857408	23681.266334
550.215949	24103.127732
550.574434	23800.214880
550.932864	24008.517877
551.291237	24161.758872
551.649555	24031.399675
552.007817	24083.283230
552.366022	23952.818169
552.724173	24000.318441
553.082267	23920.811883
553.440305	24416.710187
553.798288	23676.111755
554.156215	24198.453431
554.514086	24288.180928
554.871902	23658.412263
555.229661	23934.082720
555.587365	23801.702020
555.945014	23643.311487
556.302606	23917.565380
556.660143	23849.608105
557.017625	24109.353557
557.375050	23637.073059
557.732421	24030.177195
558.089735	23843.730120
558.446994	23898.686259
558.804197	23929.827987
559.161345	23884.944073
559.518437	23629.231544
559.875474	23822.179187
560.232455	23998.301979
560.589381	23836.901877
560.946251	23813.952024
561.303065	24130.677638
561.659825	24212.687129
562.016528	23822.083405
562.373177	23562.116143
562.729770	23908.468618
563.086307	23780.647641
563.442789	23954.698519
563.799216	23777.164204
564.155587	23785.774495
564.511904	23756.931533
564.868164	23703.407082
565.224370	23693.067676
565.580520	23593.497325
565.936615	23734.211053
566.292654	23404.068408
566.648638	23708.843967
567.004567	23534.866186
567.360441	23484.552950
567.716260	23207.415517
568.072023	23539.751064
568.427732	23290.045070
568.783385	23084.648297
569.138982	23312.528616
569.494525	23353.036807
569.850013	23098.541717
570.205445	23195.679711
570.560823	22999.130163
570.916145	22763.831787
571.271412	22940.771246
571.626625	22699.894833
571.981782	22811.140495
572.336884	22613.892748
572.691931	22748.826793
573.046923	22482.079178
573.401860	22363.324717
573.756743	22366.629193
574.111570	22277.221809
574.466342	22207.981561
574.821059	22297.504892
575.175722	22000.782576
575.530330	21990.959888
575.884882	22017.844362
576.239380	21927.602667
576.593823	21810.879790
576.948211	21786.533538
577.302544	21634.527626
577.656823	21506.711691
578.011047	21600.865321
578.365216	21480.454841
578.719330	21357.259123
579.073389	21246.096640
579.427394	21410.695354
579.781344	21170.751554
580.135239	21065.257848
580.489080	21032.225688
580.842866	20796.463525
581.196597	20980.594190
581.550273	20972.588838
581.903895	20866.565811
582.257463	21169.246770
582.610975	20699.794359
582.964434	21014.213645
583.317837	20705.833662
583.671186	20810.334260
584.024481	20770.554515
584.377721	20547.617048
584.730906	20591.759912
585.084037	20629.548401
585.437113	20543.730318
585.790135	20731.551108
586.143103	20206.577949
586.496016	20210.260512
586.848874	20455.648758
587.201679	20386.370701
587.554428	20055.897861
587.907124	20396.526106
588.259765	20165.351393
588.612352	20256.850856
588.964884	19810.728905
589.317362	19996.870990
589.669786	20039.746004
590.022155	20085.169321
590.374470	20280.065369
590.726731	20068.115097
591.078937	19831.400157
591.431090	19925.576472
591.783188	19682.439102
592.135232	19647.680346
592.487222	19755.455174
592.839157	19769.146948
593.191038	19656.613270
593.542866	19537.153048
593.894639	19259.861860
594.246358	19469.039497
594.598022	19388.363392
594.949633	19136.214959
595.301190	19089.869111
595.652692	19267.577346
596.004141	19499.697275
596.355535	18828.545778
596.706876	18847.341720
597.058162	18740.161748
597.409395	18970.418971
597.760573	19046.734478
598.111698	18827.865222
598.462768	18757.289068
598.813785	18725.781857
599.164748	18533.373617
599.515657	18567.514832
599.866511	18367.968318
600.217312	18721.708604
600.568060	18246.743692
600.918753	18560.404284
601.269392	18458.890569
601.619978	18234.844048
601.970510	18452.047203
602.320988	18398.184995
602.671412	18613.913612
603.021783	18513.556842
603.372100	18245.533815
603.722363	18384.861225
604.072572	18322.350917
604.422728	18456.990054
604.772830	18220.907778
605.122878	18168.111774
605.472872	18158.447882
605.822813	18157.079209
606.172701	18117.826265
606.522534	18309.125450
606.872314	18345.643569
607.222041	18172.689142
607.571714	18391.044200
607.921333	18214.598774
608.270899	18285.074105
608.620411	18467.788206
608.969870	18236.825222
609.319276	18236.749604
609.668627	18274.608670
610.017926	18410.959278
610.367171	18524.728038
610.716362	18561.223472
611.065500	18381.534063
611.414585	18528.168626
611.763616	18508.964350
612.112594	18441.594370
612.461518	18410.389628
612.810389	18599.069934
613.159207	18462.086661
613.507971	18375.986274
613.856682	18655.979520
614.205340	18576.674608
614.553945	18726.969048
614.902496	18471.785841
615.250994	18706.809474
615.599439	18644.289084
615.947830	18634.017733
616.296169	18681.349127
616.644454	18637.811202
616.992686	18615.942676
617.340864	18829.916972
617.688990	18591.606506
618.037063	18763.041025
618.385082	18614.768087
618.733048	18891.809738
619.080961	18754.234129
619.428821	18805.185071
619.776628	18681.230660
620.124382	18608.862376
620.472083	18648.422830
620.819731	18677.767387
621.167326	18362.970014
621.514868	18401.880160
621.862357	18156.494435
622.209793	18189.846709
622.557176	18006.164707
622.904506	17842.884254
623.251783	17749.438906
623.599007	17510.641969
623.946179	17458.576932
624.293297	17407.961227
624.640363	17145.425496
624.987376	17167.261254
625.334336	16960.783154
625.681243	16801.906150
626.028097	16815.648335
626.374899	16751.348418
626.721647	16609.709639
627.068343	16449.337932
627.414987	16380.533744
627.761577	16357.057090
628.108115	16396.098306
628.454600	16113.282014
628.801032	16210.606530
629.147412	16141.517517
629.493739	16160.837739
629.840014	15970.289685
630.186236	16079.682723
630.532405	15839.607854
630.878521	16036.507761
631.224585	15917.657518
631.570597	15751.700213
631.916556	15785.874195
632.262462	15767.332831
632.608316	15675.389747
632.954117	15621.086438
633.299866	15620.156345
633.645562	15533.864394
633.991206	15301.484845
634.336797	15166.056768
634.682336	15135.782118
635.027823	15017.534293
635.373257	14902.689247
635.718639	14800.429441
636.063968	14748.414816
636.409245	14501.665458
636.754470	14532.116548
637.099642	14376.360018
