Dividing Wavelength (nm)	Counts (n)	Blue Motor Position (mm): 35.700000	Red Motor Position (mm): 0.000000	
326.493990	2132.100567
326.888308	2132.100567
327.282561	2132.100567
327.676750	2098.566811
328.070874	2096.933477
328.464933	2097.336770
328.858929	2104.212903
329.252859	2116.876282
329.646726	2127.031686
330.040528	2138.124745
330.434265	2156.567807
330.827938	2173.652277
331.221547	2190.953517
331.615091	2210.951774
332.008571	2229.228478
332.401986	2249.229256
332.795338	2270.815476
333.188625	2288.898095
333.581847	2309.650005
333.975006	2324.297078
334.368100	2341.096723
334.761129	2362.768643
335.154095	2378.428988
335.546996	2401.472102
335.939833	2423.837181
336.332606	2439.147165
336.725315	2451.916408
337.117960	2459.344548
337.510540	2467.806125
337.903056	2483.267343
338.295508	2489.052068
338.687896	2497.821155
339.080220	2505.108142
339.472480	2512.788340
339.864676	2515.089627
340.256807	2517.990811
340.648875	2524.990453
341.040879	2527.231246
341.432818	2527.352234
341.824694	2528.730989
342.216506	2531.070085
342.608253	2531.359951
342.999937	2530.611340
343.391557	2527.760567
343.783113	2529.252749
344.174605	2525.847449
344.566033	2524.917357
344.957397	2524.566996
345.348697	2522.192613
345.739934	2523.251255
346.131106	2522.679084
346.522215	2516.372601
346.913260	2514.905625
347.304241	2514.189781
347.695159	2512.564009
348.086012	2512.493433
348.476802	2510.003103
348.867528	2507.623678
349.258191	2506.726353
349.648789	2506.348266
350.039324	2504.339367
350.429796	2502.610251
350.820203	2500.767709
351.210548	2499.046155
351.600828	2497.185969
351.991045	2497.642194
352.381198	2495.749240
352.771288	2496.575990
353.161314	2496.515496
353.551276	2496.376864
353.941175	2497.332163
354.331010	2498.645383
354.720782	2496.991885
355.110490	2496.785198
355.500135	2494.688078
355.889717	2498.179077
356.279235	2496.906185
356.668689	2498.186638
357.058080	2497.344766
357.447408	2493.954590
357.836672	2494.362923
358.225873	2495.880310
358.615010	2493.463077
359.004084	2500.828203
359.393095	2499.641011
359.782043	2500.603872
360.170927	2499.545229
360.559748	2501.526403
360.948505	2500.770230
361.337199	2503.502535
361.725830	2501.876763
362.114398	2502.360714
362.502903	2503.603358
362.891344	2504.543533
363.279722	2503.678975
363.668037	2504.704850
364.056289	2503.658811
364.444478	2506.781806
364.832603	2507.122083
365.220665	2505.755931
365.608665	2506.716271
365.996601	2507.558143
366.384474	2506.242402
366.772284	2509.887156
367.160031	2509.635099
367.547715	2507.981600
367.935336	2507.106960
368.322893	2510.981087
368.710388	2507.361538
369.097820	2508.992352
369.485189	2510.842455
369.872495	2512.193484
370.259738	2510.804646
370.646918	2510.764317
371.034035	2509.183915
371.421090	2513.796571
371.808081	2512.029647
372.195010	2512.679956
372.581875	2510.305572
372.968678	2512.811026
373.355418	2512.069976
373.742096	2515.122395
374.128710	2515.036695
374.515262	2511.066786
374.901751	2513.441170
375.288177	2514.582991
375.674540	2513.484020
376.060841	2516.100378
376.447079	2514.837569
376.833254	2516.876716
377.219367	2514.119205
377.605417	2516.175996
377.991404	2512.357322
378.377329	2514.459483
378.763191	2511.293638
379.148991	2517.796727
379.534727	2518.111799
379.920402	2520.070287
380.306013	2520.486182
380.691563	2519.505678
381.077049	2518.961233
381.462474	2520.279495
381.847835	2519.452746
382.233134	2519.646830
382.618371	2520.418127
383.003545	2518.842766
383.388657	2521.300329
383.773706	2520.642458
384.158693	2521.249917
384.543618	2520.695390
384.928480	2520.972654
385.313280	2519.558610
385.698017	2524.952645
386.082692	2519.823271
386.467305	2521.345699
386.851856	2524.330062
387.236344	2526.033972
387.620770	2528.824251
388.005133	2524.824095
388.389435	2526.535567
388.773674	2526.769981
389.157851	2523.664630
389.541965	2527.306863
389.926018	2526.656555
390.310008	2527.672347
390.693936	2529.429189
391.077802	2529.698891
391.461606	2530.220650
391.845348	2528.552028
392.229027	2528.468849
392.612645	2529.426669
392.996200	2527.468180
393.379694	2531.256608
393.763125	2532.108563
394.146494	2532.219468
394.529801	2532.736186
394.913047	2533.419262
395.296230	2533.015970
395.679351	2533.603265
396.062410	2534.568646
396.445408	2535.544109
396.828343	2532.325332
397.211217	2530.021525
397.594028	2531.455733
397.976778	2533.421783
398.359466	2535.869263
398.742092	2531.319622
399.124656	2538.185673
399.507158	2538.989737
399.889598	2542.281611
400.271977	2543.060469
400.654294	2545.671787
401.036549	2548.240255
401.418742	2551.413661
401.800874	2555.300391
402.182944	2559.177038
402.564952	2565.889334
402.946898	2570.945612
403.328783	2578.222517
403.710606	2587.231059
404.092367	2598.684561
404.474067	2611.161417
404.855705	2619.320524
405.237282	2631.318470
405.618797	2649.695997
406.000250	2663.387770
406.381642	2686.085566
406.762972	2702.108873
407.144240	2717.665874
407.525447	2737.089440
407.906593	2761.009715
408.287677	2783.399999
408.668700	2798.767957
409.049661	2827.414314
409.430560	2860.673326
409.811399	2875.494318
410.192176	2931.985488
410.572891	2948.321348
410.953545	2995.461177
411.334138	3002.191118
411.714669	3045.492108
412.095139	3053.106771
412.475547	3124.187041
412.855894	3150.741318
413.236180	3192.872762
413.616405	3214.005279
413.996568	3274.592386
414.376670	3291.432361
414.756711	3315.884477
415.136691	3367.006818
415.516609	3436.131120
415.896466	3488.561641
416.276262	3545.700599
416.655997	3578.757965
417.035670	3700.196841
417.415283	3789.725213
417.794834	3806.693736
418.174324	3829.109227
418.553753	3826.691994
418.933121	3966.659630
419.312428	4052.152558
419.691674	4071.021597
420.070859	4187.210111
420.449983	4185.377652
420.829045	4295.148777
421.208047	4284.819452
421.586988	4376.477712
421.965867	4430.145835
422.344686	4569.311928
422.723444	4509.150798
423.102141	4420.171912
423.480777	4672.902599
423.859352	4545.666396
424.237866	4780.246408
424.616319	4810.637004
424.994712	4936.764153
425.373044	4876.108990
425.751314	5029.339902
426.129524	4899.900715
426.507673	5098.743988
426.885762	5197.056570
427.263789	5171.699566
427.641756	5092.087144
428.019662	5227.651333
428.397508	5262.611735
428.775292	5241.466615
429.153016	5355.366445
429.530679	5309.668385
429.908282	5411.729065
430.285824	5309.509589
430.663305	5586.107618
431.040726	5359.023802
431.418086	5370.404207
431.795385	5488.213452
432.172624	5517.994068
432.549802	5525.775089
432.926920	5548.006577
433.303977	5565.338064
433.680974	5613.425631
434.057910	5637.998735
434.434786	5658.748124
434.811601	5633.224762
435.188355	5868.591194
435.565050	5749.844295
435.941683	5743.741978
436.318257	5961.154341
436.694770	5947.603719
437.071222	5989.999823
437.447614	5923.378454
437.823946	5835.112892
438.200218	5997.639692
438.576429	5865.611873
438.952580	5967.090299
439.328670	6010.134192
439.704700	5922.864257
440.080670	5908.721300
440.456580	6184.384195
440.832429	6063.396503
441.208218	5915.945273
441.583947	6073.302370
441.959616	6073.435960
442.335224	6007.994222
442.710773	6140.193440
443.086261	6168.277708
443.461689	5960.801460
443.837057	6113.989523
444.212365	6264.909066
444.587612	6159.395195
444.962800	6316.606098
445.337927	6297.255629
445.712995	5907.196351
446.088002	6480.678012
446.462949	6310.755839
446.837837	6249.805769
447.212664	6419.017139
447.587431	6562.506021
447.962139	7105.738239
448.336786	8031.039507
448.711374	7766.898169
449.085901	6843.527663
449.460369	6766.791219
449.834776	6702.093051
450.209124	7093.384892
450.583412	7241.796461
450.957640	7387.851291
451.331808	7152.371433
451.705917	6708.084462
452.079965	6632.762062
452.453954	6840.142528
452.827883	6722.189611
453.201752	6812.249824
453.575562	6614.717252
453.949311	6821.981772
454.323001	6702.715633
454.696632	6777.004597
455.070202	6919.969199
455.443713	7074.712458
455.817164	7174.791965
456.190556	7249.764005
456.563888	7329.421797
456.937160	7371.719598
457.310373	7028.472474
457.683526	7053.554735
458.056619	6942.639268
458.429653	6931.120232
458.802628	6865.111363
459.175542	6979.860628
459.548398	7330.871129
459.921194	7492.898855
460.293930	7497.713157
460.666607	8017.929987
461.039224	8324.008683
461.411782	8452.772356
461.784280	8470.978483
462.156719	8364.763892
462.529099	8239.282011
462.901419	7829.252201
463.273680	7726.775626
463.645882	7734.909527
464.018024	7606.027388
464.390106	7773.970908
464.762130	8155.366964
465.134094	8620.932645
465.505999	9637.884610
465.877845	10860.460200
466.249631	11509.773418
466.621358	11132.685028
466.993026	10499.367391
467.364634	10242.850798
467.736184	9882.030212
468.107674	9549.737515
468.479105	9582.073996
468.850477	9343.592131
469.221790	9120.238769
469.593043	8795.429665
469.964238	8659.411772
470.335373	8666.487032
470.706449	8722.211946
471.077467	8707.280049
471.448425	10012.437300
471.819324	11082.724673
472.190164	11100.008269
472.560945	9858.304021
472.931667	9070.744720
473.302330	8939.336963
473.672934	8588.071884
474.043479	8942.885935
474.413965	8883.266729
474.784393	8768.333463
475.154761	8919.212677
475.525070	9005.411367
475.895321	8838.947425
476.265513	9007.344649
476.635645	9183.376700
477.005719	9183.785034
477.375734	9291.816961
477.745691	9533.736893
478.115588	9660.595008
478.485427	9906.550384
478.855207	10438.122413
479.224928	11246.504200
479.594591	11877.137422
479.964194	11685.896210
480.333739	11625.898918
480.703226	11542.750126
481.072653	11632.386883
481.442022	11867.327337
481.811333	12064.703634
482.180584	11861.315761
482.549777	11571.416647
482.918912	11403.412634
483.287988	11421.560788
483.657005	11431.111254
484.025964	11116.719694
484.394864	11249.649880
484.763706	11226.954605
485.132489	10981.117697
485.501213	10943.049423
485.869879	11015.924343
486.238487	10861.783503
486.607036	10974.284413
486.975527	10752.965156
487.343959	10943.924064
487.712333	10993.455921
488.080648	10924.127452
488.448905	10963.004831
488.817104	10911.327963
489.185244	11167.463949
489.553326	11329.360604
489.921350	11859.382479
490.289315	12915.894899
490.657222	13263.739555
491.025070	13169.532993
491.392861	13044.721585
491.760593	12660.757062
492.128267	12308.609780
492.495883	11988.299906
492.863440	11651.558391
493.230939	11318.655714
493.598380	11250.779098
493.965763	11118.100970
494.333088	11017.426607
494.700354	10940.458270
495.067563	11009.086018
495.434713	10831.760911
495.801805	10965.023813
496.168839	10884.506504
496.535815	10823.604324
496.902733	10824.262195
497.269593	10755.331978
497.636395	10853.740342
498.003139	10846.753303
498.369825	10709.157529
498.736453	10865.887002
499.103023	10792.409664
499.469535	10826.049284
499.835989	10812.937243
500.202385	10777.024063
500.568723	10631.044850
500.935003	10854.103305
501.301226	10654.990331
501.667390	10911.022973
502.033497	11009.171718
502.399546	10869.236849
502.765537	10776.703949
503.131470	10847.297747
503.497345	11014.472491
503.863163	10630.891095
504.228923	10939.860894
504.594625	11007.041830
504.960269	10761.363718
505.325856	10982.199024
505.691385	10773.979206
506.056856	10924.934037
506.422270	10949.459251
506.787625	10837.999339
507.152924	10952.078130
507.518164	10931.669019
507.883347	10855.492143
508.248472	10784.444641
508.613540	11006.515030
508.978550	10893.530169
509.343503	10864.969512
509.708398	10993.060190
510.073236	11101.409710
510.438016	11113.770619
510.802738	11053.806094
511.167403	11106.844074
511.532010	11001.395738
511.896561	11241.770556
512.261053	11308.021400
512.625488	11175.144147
512.989866	11154.235961
513.354186	11146.492749
513.718449	11044.759743
514.082655	11243.386246
514.446803	11132.241407
514.810894	11259.192784
515.174927	11127.230500
515.538904	11146.344035
515.902822	11302.357664
516.266684	11184.278717
516.630488	11128.130346
516.994235	11181.826196
517.357925	11248.253480
517.721558	11331.878661
518.085133	11350.760302
518.448651	11357.134842
518.812112	11237.362067
519.175516	11256.271435
519.538863	11371.408869
519.902152	11293.465068
520.265385	11456.869029
520.628560	11367.978363
520.991678	11350.036897
521.354739	11411.513768
521.717743	11339.435350
522.080690	11325.665439
522.443580	11457.857095
522.806413	11414.183059
523.169189	11440.724734
523.531908	11501.198416
523.894569	11324.879019
524.257174	11316.606485
524.619722	11447.679006
524.982213	11385.473688
525.344647	11443.255393
525.707025	11392.281766
526.069345	11485.608647
526.431608	11407.604353
526.793815	11516.047134
527.155964	11307.043416
527.518057	11355.680469
527.880093	11311.058695
528.242072	11373.871472
528.603995	11278.359251
528.965860	11196.962260
529.327669	11250.741290
529.689421	11198.429236
530.051117	11164.908084
530.412755	11273.905392
530.774337	11162.629482
531.135862	11143.692388
531.497331	11171.688436
531.858743	11024.721157
532.220098	11191.462362
532.581396	11058.111239
532.942638	11040.565503
533.303824	11006.310863
533.664953	11013.665907
534.026025	10932.662126
534.387040	11031.693073
534.747999	11034.500995
535.108902	11090.712381
535.469748	10853.836124
535.830537	10954.780188
536.191270	10926.683318
536.551947	10956.635333
536.912567	10952.904879
537.273131	10881.451565
537.633638	10860.119922
537.994089	10855.799653
538.354483	10801.771087
538.714821	10947.291554
539.075103	10959.838986
539.435328	10915.436503
539.795497	10742.711449
540.155609	10902.528629
540.515665	10990.708492
540.875665	10718.259332
541.235609	10787.933120
541.595496	10790.688110
541.955328	10943.883734
542.315102	10827.743112
542.674821	10776.479618
543.034483	10776.585482
543.394090	10777.881059
543.753640	10706.962107
544.113134	10932.790675
544.472571	10784.424477
544.831953	10930.078535
545.191278	10737.841694
545.550548	10761.434294
545.909761	10901.659030
546.268918	10874.272962
546.628019	10964.791920
546.987064	10820.967801
547.346053	10748.216389
547.704986	10840.225008
548.063863	10834.636889
548.422684	10822.089458
548.781449	10742.081305
549.140158	10842.009577
549.498811	10715.937881
549.857408	10576.968393
550.215949	10804.402569
550.574434	10654.365228
550.932864	10757.618141
551.291237	10812.715432
551.649555	10762.591239
552.007817	10773.248238
552.366022	10737.476211
552.724173	10731.895653
553.082267	10715.590041
553.440305	10851.116421
553.798288	10649.903807
554.156215	10806.376181
554.514086	10782.365165
554.871902	10630.208019
555.229661	10671.979019
555.587365	10641.532971
555.945014	10537.677640
556.302606	10662.942751
556.660143	10559.273943
557.017625	10713.361851
557.375050	10613.887283
557.732421	10743.051727
558.089735	10663.114150
558.446994	10656.197687
558.804197	10698.341733
559.161345	10696.960457
559.518437	10544.941942
559.875474	10636.791766
560.232455	10669.662609
560.589381	10617.078333
560.946251	10611.661614
561.303065	10720.797553
561.659825	10652.474795
562.016528	10589.639333
562.373177	10465.939500
562.729770	10578.775647
563.086307	10496.932514
563.442789	10588.260578
563.799216	10463.353388
564.155587	10517.674341
564.511904	10479.043979
564.868164	10464.497730
565.224370	10475.915943
565.580520	10397.644468
565.936615	10404.344162
566.292654	10275.943453
566.648638	10408.208206
567.004567	10362.389159
567.360441	10350.766779
567.716260	10257.177757
568.072023	10350.839875
568.427732	10305.698863
568.783385	10212.929030
569.138982	10286.446697
569.494525	10302.502772
569.850013	10172.698101
570.205445	10252.323126
570.560823	10151.348815
570.916145	10072.966434
571.271412	10143.474533
571.626625	10081.254091
571.981782	10060.834897
572.336884	10035.298933
572.691931	10039.674654
573.046923	9988.373352
573.401860	9941.740158
573.756743	9880.759841
574.111570	9922.361963
574.466342	9910.704295
574.821059	9930.838663
575.175722	9834.325773
575.530330	9834.653448
575.884882	9830.824692
576.239380	9758.973126
576.593823	9738.730373
576.948211	9751.267722
577.302544	9629.470925
577.656823	9646.305858
578.011047	9649.877515
578.365216	9621.445408
578.719330	9547.504284
579.073389	9558.793948
579.427394	9502.683385
579.781344	9479.030291
580.135239	9435.383981
580.489080	9442.469323
580.842866	9345.235547
581.196597	9344.277728
581.550273	9388.430674
581.903895	9352.426753
582.257463	9419.947968
582.610975	9307.512593
582.964434	9322.199995
583.317837	9248.989838
583.671186	9230.042661
584.024481	9229.311694
584.377721	9142.515628
584.730906	9118.809602
585.084037	9145.540320
585.437113	9088.968492
585.790135	9105.062375
586.143103	9004.604782
586.496016	8976.313827
586.848874	9041.339670
587.201679	9021.848049
587.554428	8908.606089
587.907124	8965.921488
588.259765	8933.653062
588.612352	8929.932691
588.964884	8808.345101
589.317362	8821.789858
589.669786	8823.801279
590.022155	8871.692240
590.374470	8888.630517
590.726731	8822.251124
591.078937	8684.373046
591.431090	8787.646123
591.783188	8661.856732
592.135232	8655.509919
592.487222	8655.479672
592.839157	8707.733752
593.191038	8640.759503
593.542866	8585.730268
593.894639	8484.035071
594.246358	8539.976755
594.598022	8558.066936
594.949633	8451.340668
595.301190	8427.347296
595.652692	8456.341493
596.004141	8571.272238
596.355535	8346.202363
596.706876	8327.734096
597.058162	8258.892099
597.409395	8331.842637
597.760573	8396.046772
598.111698	8304.620406
598.462768	8294.157491
598.813785	8259.779342
599.164748	8231.357317
599.515657	8213.975418
599.866511	8121.155173
600.217312	8254.125688
600.568060	8114.682332
600.918753	8213.622538
601.269392	8185.412241
601.619978	8097.139116
601.970510	8159.117582
602.320988	8156.286974
602.671412	8209.113226
603.021783	8148.783217
603.372100	8125.503168
603.722363	8126.740772
604.072572	8095.596523
604.422728	8110.054552
604.772830	8036.143675
605.122878	8045.648771
605.472872	8042.455200
605.822813	8071.461999
606.172701	8014.106271
606.522534	8088.743075
606.872314	8089.862211
607.222041	8058.075215
607.571714	8115.211653
607.921333	8073.869150
608.270899	8081.637568
608.620411	8172.489243
608.969870	8080.412568
609.319276	8070.080723
609.668627	8086.303156
610.017926	8120.857745
610.367171	8165.570259
610.716362	8142.360787
611.065500	8130.168756
611.414585	8161.300402
611.763616	8150.277919
612.112594	8135.643449
612.461518	8143.421950
612.810389	8208.858647
613.159207	8150.514853
613.507971	8095.357068
613.856682	8217.625214
614.205340	8169.875405
614.553945	8244.912980
614.902496	8148.601735
615.250994	8205.498718
615.599439	8181.770007
615.947830	8196.618726
616.296169	8166.563367
616.644454	8183.420985
616.992686	8174.924120
617.340864	8239.713029
617.688990	8140.263667
618.037063	8231.558963
618.385082	8185.482817
618.733048	8269.402905
619.080961	8201.438069
619.428821	8219.452632
619.776628	8225.292809
620.124382	8175.781116
620.472083	8162.406935
620.819731	8192.086728
621.167326	8080.447856
621.514868	8088.238959
621.862357	7978.329202
622.209793	7999.549940
622.557176	7926.780884
622.904506	7896.168477
623.251783	7834.379054
623.599007	7788.255017
623.946179	7790.294164
624.293297	7743.663491
624.640363	7665.288672
624.987376	7645.839901
625.334336	7603.547140
625.681243	7540.918366
626.028097	7534.495936
626.374899	7511.667070
626.721647	7505.042994
627.068343	7431.691685
627.414987	7407.698313
627.761577	7364.150306
628.108115	7400.166830
628.454600	7297.216386
628.801032	7345.772780
629.147412	7307.023951
629.493739	7291.527444
629.840014	7230.746252
630.186236	7288.575848
630.532405	7166.090933
630.878521	7219.711166
631.224585	7175.361615
631.570597	7104.019206
631.916556	7135.531458
632.262462	7128.970397
632.608316	7090.413132
632.954117	7069.630975
633.299866	7055.538429
633.645562	7050.018366
633.991206	6970.226983
634.336797	6913.103148
634.682336	6866.767382
635.027823	6842.232087
635.373257	6831.522155
635.718639	6761.566063
636.063968	6774.322703
636.409245	6665.481671
636.754470	6664.720457
637.099642	6620.963241
637.444762	6570.370221
637.789829	6581.143167
638.134845	6519.787284
638.479808	6506.803792
638.824719	6511.643300
639.169577	6438.077742
639.514383	6453.284382
639.859137	6386.599999
640.203839	6393.271966
640.548489	6382.516664
