Dividing Wavelength (nm)	Counts (n)	Blue Motor Position (mm): 17.500000	Red Motor Position (mm): 0.000000	
326.493990	2104.212903
326.888308	2104.212903
327.282561	2104.212903
327.676750	2078.934038
328.070874	2081.792372
328.464933	2087.829153
328.858929	2098.130751
329.252859	2109.934613
329.646726	2126.562859
330.040528	2139.057359
330.434265	2159.766419
330.827938	2181.849193
331.221547	2200.430886
331.615091	2219.980481
332.008571	2239.812380
332.401986	2262.742068
332.795338	2283.194030
333.188625	2300.739766
333.581847	2320.067549
333.975006	2339.438183
334.368100	2355.012828
334.761129	2375.212731
335.154095	2390.303425
335.546996	2426.917326
335.939833	2487.577530
336.332606	2498.161432
336.725315	2512.470748
337.117960	2517.960564
337.510540	2525.174455
337.903056	2536.489325
338.295508	2541.792619
338.687896	2549.959288
339.080220	2559.232491
339.472480	2561.717780
339.864676	2564.694581
340.256807	2568.430076
340.648875	2568.664490
341.040879	2570.592731
341.432818	2572.473081
341.824694	2572.989800
342.216506	2574.176991
342.608253	2571.220355
342.999937	2571.895869
343.391557	2571.306054
343.783113	2567.071485
344.174605	2567.230281
344.566033	2566.947977
344.957397	2562.562173
345.348697	2562.166442
345.739934	2559.126627
346.131106	2561.775753
346.522215	2557.480690
346.913260	2553.331820
347.304241	2555.348282
347.695159	2550.387786
348.086012	2550.498692
348.476802	2552.285781
348.867528	2547.579864
349.258191	2546.004503
349.648789	2547.884853
350.039324	2542.989893
350.429796	2544.759338
350.820203	2542.763041
351.210548	2543.375541
351.600828	2540.620551
351.991045	2540.628113
352.381198	2543.544420
352.771288	2538.883873
353.161314	2538.667104
353.551276	2543.693134
353.941175	2539.130890
354.331010	2540.900335
354.720782	2541.522917
355.110490	2541.273380
355.500135	2541.797660
355.889717	2540.912938
356.279235	2542.057280
356.668689	2542.606765
357.058080	2541.782537
357.447408	2542.319420
357.836672	2539.377906
358.225873	2540.257588
358.615010	2537.895807
359.004084	2546.896787
359.393095	2546.916952
359.782043	2546.929555
360.170927	2547.688248
360.559748	2545.195398
360.948505	2544.514842
361.337199	2549.646737
361.725830	2546.397713
362.114398	2548.537683
362.502903	2548.797302
362.891344	2548.802343
363.279722	2549.848383
363.668037	2547.385779
364.056289	2548.288146
364.444478	2550.158414
364.832603	2551.264947
365.220665	2555.136553
365.608665	2552.394166
365.996601	2553.167983
366.384474	2551.517005
366.772284	2554.879454
367.160031	2554.425751
367.547715	2555.136553
367.935336	2551.141439
368.322893	2554.035061
368.710388	2553.409958
369.097820	2557.616801
369.485189	2554.090514
369.872495	2556.175031
370.259738	2556.356512
370.646918	2555.441543
371.034035	2556.764846
371.421090	2557.543704
371.808081	2558.264589
372.195010	2557.765515
372.581875	2555.496996
372.968678	2554.773590
373.355418	2557.309291
373.742096	2559.860114
374.128710	2559.608057
374.515262	2560.460012
374.901751	2559.837429
375.288177	2559.217367
375.674540	2558.055381
376.060841	2561.909343
376.447079	2561.901782
376.833254	2563.746844
377.219367	2555.353323
377.605417	2559.134188
377.991404	2558.647717
378.377329	2556.699311
378.763191	2557.629404
379.148991	2562.252142
379.534727	2563.063768
379.920402	2562.073181
380.306013	2561.692574
380.691563	2562.738613
381.077049	2563.809858
381.462474	2562.930177
381.847835	2562.662996
382.233134	2566.005281
382.618371	2562.327759
383.003545	2563.280537
383.388657	2567.240364
383.773706	2565.677606
384.158693	2566.184242
384.543618	2564.344221
384.928480	2568.062072
385.313280	2564.671896
385.698017	2567.038718
386.082692	2568.190621
386.467305	2567.063923
386.851856	2565.876732
387.236344	2568.394788
387.620770	2570.020560
388.005133	2567.391598
388.389435	2570.738924
388.773674	2570.050807
389.157851	2568.430076
389.541965	2570.678431
389.926018	2568.208265
390.310008	2569.244222
390.693936	2569.619788
391.077802	2570.713719
391.461606	2572.699933
391.845348	2571.573235
392.229027	2574.328226
392.612645	2570.454099
392.996200	2571.288410
393.379694	2573.025088
393.763125	2573.962742
394.146494	2573.632547
394.529801	2574.434090
394.913047	2573.567012
395.296230	2574.479461
395.679351	2572.457958
396.062410	2576.324523
396.445408	2573.657752
396.828343	2575.777558
397.211217	2570.549881
397.594028	2572.102557
397.976778	2568.563667
398.359466	2572.891497
398.742092	2570.360838
399.124656	2576.760583
399.507158	2575.202866
399.889598	2579.465162
400.271977	2574.192115
400.654294	2578.051118
401.036549	2576.470716
401.418742	2577.040367
401.800874	2578.572877
402.182944	2578.262847
402.564952	2578.242682
402.946898	2578.230079
403.328783	2577.443659
403.710606	2576.458113
404.092367	2578.177147
404.474067	2580.657395
404.855705	2580.319637
405.237282	2580.241499
405.618797	2580.710327
406.000250	2578.572877
406.381642	2580.173444
406.762972	2580.715368
407.144240	2580.372569
407.525447	2581.731160
407.906593	2582.459607
408.287677	2579.538258
408.668700	2581.743763
409.049661	2582.986408
409.430560	2581.867272
409.811399	2582.991449
410.192176	2583.301480
410.572891	2585.222159
410.953545	2583.387179
411.334138	2584.115626
411.714669	2582.449525
412.095139	2584.584453
412.475547	2582.333578
412.855894	2583.195616
413.236180	2584.740729
413.616405	2586.981522
413.996568	2582.429360
414.376670	2583.457756
414.756711	2582.746953
415.136691	2586.026223
415.516609	2585.542273
415.896466	2584.488672
416.276262	2587.054619
416.655997	2583.538414
417.035670	2583.417426
417.415283	2585.575040
417.794834	2581.746284
418.174324	2585.176789
418.553753	2585.373394
418.933121	2586.235431
419.312428	2589.360947
419.691674	2587.641913
420.070859	2584.851635
420.449983	2586.598394
420.829045	2584.899526
421.208047	2586.081676
421.586988	2588.607294
421.965867	2589.595360
422.344686	2588.476224
422.723444	2590.409507
423.102141	2586.510174
423.480777	2591.069898
423.859352	2586.825246
424.237866	2589.003025
424.616319	2588.990422
424.994712	2591.513519
425.373044	2588.861872
425.751314	2589.497058
426.129524	2592.385639
426.507673	2589.963365
426.885762	2587.387335
427.263789	2589.023189
427.641756	2589.837336
428.019662	2592.388160
428.397508	2591.231215
428.775292	2590.401945
429.153016	2593.754312
429.530679	2593.431678
429.908282	2591.735330
430.285824	2590.858169
430.663305	2589.802048
431.040726	2592.279775
431.418086	2593.290526
431.795385	2594.714652
432.172624	2593.466967
432.549802	2593.192224
432.926920	2593.414034
433.303977	2595.165835
433.680974	2595.745568
434.057910	2594.896134
434.434786	2596.224478
434.811601	2594.477718
435.188355	2599.826382
435.565050	2597.202462
435.941683	2595.145671
436.318257	2594.288675
436.694770	2591.258941
437.071222	2593.240115
437.447614	2595.795980
437.823946	2593.338417
438.200218	2595.506113
438.576429	2594.709611
438.952580	2595.614498
439.328670	2595.886720
439.704700	2596.257245
440.080670	2596.544591
440.456580	2597.119282
440.832429	2599.029880
441.208218	2596.683223
441.583947	2596.400918
441.959616	2595.465784
442.335224	2598.639190
442.710773	2597.751947
443.086261	2600.259921
443.461689	2601.215220
443.837057	2597.726742
444.212365	2600.214551
444.587612	2598.550970
444.962800	2599.975096
445.337927	2601.492483
445.712995	2600.020467
446.088002	2604.267639
446.462949	2602.422576
446.837837	2601.989037
447.212664	2602.825869
447.587431	2605.588421
447.962139	2606.689913
448.336786	2611.244596
448.711374	2609.147476
449.085901	2609.336519
449.460369	2606.213524
449.834776	2604.933071
450.209124	2607.451127
450.583412	2608.746704
450.957640	2609.346601
451.331808	2608.529934
451.705917	2606.286621
452.079965	2609.160078
452.453954	2609.659153
452.827883	2607.554471
453.201752	2607.370469
453.575562	2607.408277
453.949311	2610.342229
454.323001	2610.221241
454.696632	2610.725357
455.070202	2614.067642
455.443713	2612.028495
455.817164	2610.934565
456.190556	2607.877105
456.563888	2610.490943
456.937160	2609.104626
457.310373	2611.650408
457.683526	2613.808022
458.056619	2615.496809
458.429653	2611.650408
458.802628	2615.716099
459.175542	2614.627210
459.548398	2617.830863
459.921194	2618.239197
460.293930	2619.796913
460.666607	2622.640124
461.039224	2623.091307
461.411782	2625.493417
461.784280	2624.981740
462.156719	2624.495268
462.529099	2622.965278
462.901419	2620.976543
463.273680	2625.125413
463.645882	2621.941924
464.018024	2624.558283
464.390106	2624.893520
464.762130	2627.761936
465.134094	2632.273769
465.505999	2640.448000
465.877845	2650.457211
466.249631	2650.956285
466.621358	2648.697848
466.993026	2648.281953
467.364634	2649.043167
467.736184	2644.916983
468.107674	2643.901190
468.479105	2644.990079
468.850477	2643.903711
469.221790	2643.760038
469.593043	2638.539923
469.964238	2642.061169
470.335373	2641.335243
470.706449	2646.905718
471.077467	2649.224649
471.448425	2661.174704
471.819324	2664.683347
472.190164	2663.450785
472.560945	2657.136740
472.931667	2653.524753
473.302330	2652.375370
473.672934	2652.551810
474.043479	2656.632624
474.413965	2655.745381
474.784393	2655.899136
475.154761	2657.492141
475.525070	2659.080104
475.895321	2657.434168
476.265513	2660.922646
476.635645	2667.234171
477.005719	2669.341373
477.375734	2674.669873
477.745691	2674.102743
478.115588	2682.087931
478.485427	2685.286543
478.855207	2695.376412
479.224928	2701.907227
479.594591	2709.829400
479.964194	2707.444934
480.333739	2713.774103
480.703226	2715.961964
481.072653	2718.414485
481.442022	2723.296843
481.811333	2726.475290
482.180584	2725.981257
482.549777	2727.740620
482.918912	2726.150136
483.287988	2732.822103
483.657005	2729.913357
484.025964	2730.392267
484.394864	2734.147926
484.763706	2737.243195
485.132489	2735.657752
485.501213	2739.831827
485.869879	2742.727970
486.238487	2742.622106
486.607036	2746.274422
486.975527	2747.610328
487.343959	2754.216760
487.712333	2756.097110
488.080648	2760.298912
488.448905	2766.998605
488.817104	2769.551950
489.185244	2776.380193
489.553326	2787.223715
489.921350	2802.626960
490.289315	2819.053560
490.657222	2827.288285
491.025070	2834.189624
491.392861	2835.901096
491.760593	2831.706856
492.128267	2827.958758
492.495883	2825.612101
492.863440	2824.498006
493.230939	2823.376349
493.598380	2823.094045
493.965763	2821.251503
494.333088	2825.130671
494.700354	2822.244610
495.067563	2828.795590
495.434713	2832.231136
495.801805	2840.743124
496.168839	2842.878053
496.535815	2846.313599
496.902733	2856.312728
497.269593	2859.256762
497.636395	2865.623739
498.003139	2875.206973
498.369825	2875.383413
498.736453	2886.274826
499.103023	2888.989487
499.469535	2893.718090
499.835989	2901.519275
500.202385	2909.491860
500.568723	2919.357398
500.935003	2931.259562
501.301226	2936.114193
501.667390	2948.543158
502.033497	2962.983543
502.399546	2965.942701
502.765537	2969.509317
503.131470	2984.128663
503.497345	2999.846981
503.863163	3000.134327
504.228923	3013.206039
504.594625	3031.016435
504.960269	3036.138247
505.325856	3055.992832
505.691385	3062.463153
506.056856	3079.529979
506.422270	3099.871035
506.787625	3109.799588
507.152924	3130.511168
507.518164	3149.385248
507.883347	3154.849859
508.248472	3175.140503
508.613540	3200.225285
508.978550	3225.418451
509.343503	3242.596183
509.708398	3263.141405
510.073236	3297.595171
510.438016	3320.386228
510.802738	3334.355265
511.167403	3373.063765
511.532010	3401.374885
511.896561	3431.241201
512.261053	3479.132162
512.625488	3491.432578
512.989866	3521.770242
513.354186	3550.124211
513.718449	3580.045980
514.082655	3630.994401
514.446803	3659.590347
514.810894	3713.329047
515.174927	3745.582349
515.538904	3779.474026
515.902822	3837.071729
516.266684	3865.793703
516.630488	3919.381169
516.994235	3959.874237
517.357925	4023.667518
517.721558	4076.768512
518.085133	4130.083756
518.448651	4187.767158
518.812112	4237.051999
519.175516	4288.305410
519.538863	4354.657077
519.902152	4411.700253
520.265385	4490.223786
520.628560	4553.661666
520.991678	4604.433647
521.354739	4676.837219
521.717743	4759.071042
522.080690	4818.634795
522.443580	4913.952932
522.806413	4987.067307
523.169189	5056.703285
523.531908	5142.712932
523.894569	5207.020411
524.257174	5290.958143
524.619722	5393.147372
524.982213	5475.671061
525.344647	5549.836516
525.707025	5640.519312
526.069345	5751.643987
526.431608	5835.508622
526.793815	5947.704542
527.155964	6007.785014
527.518057	6106.619356
527.880093	6187.025759
528.242072	6325.478529
528.603995	6394.749024
528.965860	6497.512945
529.327669	6600.851558
529.689421	6696.988883
530.051117	6790.149406
530.412755	6908.316572
530.774337	7024.469798
531.135862	7111.349043
531.497331	7232.702219
531.858743	7329.794842
532.220098	7482.425857
532.581396	7570.517500
532.942638	7640.471072
533.303824	7792.393805
533.664953	7910.787823
534.026025	7991.771439
534.387040	8169.295672
534.747999	8285.542159
535.108902	8433.678985
535.469748	8489.708890
535.830537	8623.798541
536.191270	8779.245040
536.551947	8863.495324
536.912567	9033.407414
537.273131	9183.671608
537.633638	9238.809228
537.994089	9425.619266
538.354483	9501.859156
538.714821	9728.380884
539.075103	9926.704917
539.435328	10026.847438
539.795497	10149.886880
540.155609	10291.593715
540.515665	10522.145845
540.875665	10563.924407
541.235609	10769.152301
541.595496	10917.931874
541.955328	11198.981242
542.315102	11228.645912
542.674821	11335.861172
543.034483	11491.824390
543.394090	11641.397945
543.753640	11786.545367
544.113134	12161.965135
544.472571	12102.802154
544.831953	12553.123386
545.191278	12535.292825
545.550548	12641.081438
545.909761	12927.665993
546.268918	13152.803924
546.628019	13404.912028
546.987064	13470.573057
547.346053	13450.925159
547.704986	13849.693032
548.063863	13902.282348
548.422684	14130.394560
548.781449	14259.143109
549.140158	14546.713209
549.498811	14679.834959
549.857408	14696.916909
550.215949	15120.676301
550.574434	15292.050326
550.932864	15395.933383
551.291237	15796.427851
551.649555	15869.295209
552.007817	16129.575023
552.366022	16200.854418
552.724173	16457.986032
553.082267	16771.565965
553.440305	17064.754432
553.798288	17030.272940
554.156215	17334.536821
554.514086	17612.581662
554.871902	17716.101756
555.229661	17932.969674
555.587365	18082.094566
555.945014	18318.197007
556.302606	18487.133634
556.660143	18781.617677
557.017625	19013.563686
557.375050	19133.633888
557.732421	19475.958481
558.089735	19669.606844
558.446994	19846.732826
558.804197	20239.819318
559.161345	20415.856410
559.518437	20312.721964
559.875474	20641.803446
560.232455	20924.070253
560.589381	21212.988862
560.946251	21294.413579
561.303065	21795.360598
561.659825	21928.494951
562.016528	21981.532930
562.373177	22046.094988
562.729770	22494.208194
563.086307	22473.335297
563.442789	22918.930447
563.799216	23144.128872
564.155587	23246.575200
564.511904	23487.348269
564.868164	23731.811463
565.224370	24061.959149
565.580520	24141.795903
565.936615	24464.848165
566.292654	24523.723801
566.648638	24870.945875
567.004567	25067.639095
567.360441	25309.964840
567.716260	25446.854852
568.072023	25814.690204
568.427732	26002.581569
568.783385	25972.984955
569.138982	26398.528916
569.494525	26590.191065
569.850013	26658.715469
570.205445	26848.905601
570.560823	27030.510647
570.916145	27185.639554
571.271412	27403.092246
571.626625	27465.380743
571.981782	27710.821921
572.336884	27726.268016
572.691931	28127.400189
573.046923	28101.677702
573.401860	28211.158960
573.756743	28400.603001
574.111570	28673.145422
574.466342	28772.771225
574.821059	29057.790502
575.175722	28947.795046
575.530330	29171.713017
575.884882	29181.502938
576.239380	29347.432517
576.593823	29540.304542
576.948211	29686.087150
577.302544	29557.910772
577.656823	29765.485323
578.011047	30109.929721
578.365216	30114.436513
578.719330	30150.337090
579.073389	30239.676418
579.427394	30488.243112
579.781344	30640.475875
580.135239	30599.619844
580.489080	30830.194659
580.842866	30654.218061
581.196597	31135.287811
581.550273	31280.064708
581.903895	31370.523172
582.257463	31838.261591
582.610975	31573.449779
582.964434	31947.553806
583.317837	31862.703625
583.671186	31913.939393
584.024481	32249.990270
584.377721	32057.405590
584.730906	32445.309775
585.084037	32653.993380
585.437113	32594.031376
585.790135	32776.480816
586.143103	32642.728922
586.496016	32896.503127
586.848874	33072.300764
587.201679	33257.792541
587.554428	33016.984183
587.907124	33316.607683
588.259765	33270.627318
588.612352	33613.340080
588.964884	33284.389668
589.317362	33669.455684
589.669786	33764.975467
590.022155	33725.299066
590.374470	34214.618664
590.726731	33984.167357
591.078937	33743.006119
591.431090	33974.937005
591.783188	33831.644727
592.135232	33705.842733
592.487222	34051.973397
592.839157	34250.431021
593.191038	34104.010708
593.542866	34045.586255
593.894639	33681.700647
594.246358	34039.793969
594.598022	34160.970705
594.949633	33963.102896
595.301190	34038.256418
595.652692	34020.869478
596.004141	34414.626443
596.355535	33718.072572
596.706876	33784.709064
597.058162	33755.770321
597.409395	34270.890544
597.760573	34461.957837
598.111698	34217.620671
598.462768	34323.787371
598.813785	34463.618897
599.164748	34097.235397
599.515657	34536.428282
599.866511	34186.055487
600.217312	34829.894012
600.568060	34022.180178
600.918753	34784.614368
601.269392	34840.845918
601.619978	34627.642919
601.970510	34913.546919
602.320988	35164.661915
602.671412	35521.936050
603.021783	35404.840128
603.372100	35188.188980
603.722363	35348.507755
604.072572	35505.022979
604.422728	35609.805882
604.772830	35514.512951
605.122878	35702.812650
605.472872	35723.340228
605.822813	36040.806892
606.172701	35971.042364
606.522534	36269.027488
606.872314	36573.689621
607.222041	36428.879956
607.571714	36852.818309
607.921333	36433.177540
608.270899	36745.807216
608.620411	37150.755543
608.969870	37024.761985
609.319276	37105.342308
609.668627	37210.294090
610.017926	37717.512305
610.367171	37922.011752
610.716362	38072.717046
611.065500	38067.254956
611.414585	38303.516193
611.763616	38646.826332
612.112594	38639.461206
612.461518	38909.294007
612.810389	39257.567161
613.159207	39178.242085
613.507971	39297.964448
613.856682	39800.191920
614.205340	39749.077141
614.553945	40467.436522
614.902496	39985.146813
615.250994	40484.699954
615.599439	40595.459145
615.947830	40845.051713
616.296169	40945.703391
616.644454	41100.386155
616.992686	41312.099493
617.340864	41841.685308
617.688990	41618.984775
618.037063	42222.282341
618.385082	42236.342119
618.733048	42540.782441
619.080961	42598.445679
619.428821	42664.850278
619.776628	42790.927015
620.124382	42678.718492
620.472083	42854.863970
620.819731	43014.378680
621.167326	42731.701019
621.514868	42751.177517
621.862357	42358.421221
622.209793	42433.136162
622.557176	42160.757579
622.904506	41942.331944
623.251783	41659.024139
623.599007	41466.031126
623.946179	41292.489405
624.293297	41310.042703
624.640363	40754.174833
624.987376	40768.584971
625.334336	40572.970558
625.681243	40259.352815
626.028097	40237.552345
626.374899	40138.415534
626.721647	40140.114403
627.068343	40053.051156
627.414987	39856.494047
627.761577	39656.420733
628.108115	40018.214262
628.454600	39500.165128
628.801032	39713.100946
629.147412	39683.514414
629.493739	39701.715500
629.840014	39367.371054
630.186236	39729.903112
630.532405	39338.399543
630.878521	39569.728010
631.224585	39465.671033
631.570597	39190.698776
631.916556	39366.312411
632.262462	39328.743212
632.608316	39372.266014
632.954117	39287.834249
633.299866	39287.372983
633.645562	39218.420081
633.991206	38757.991336
634.336797	38344.387348
634.682336	38356.123154
635.027823	38134.635018
635.373257	37976.443611
635.718639	37761.844212
636.063968	37647.856162
636.409245	37085.220543
636.754470	37156.073960
637.099642	36936.665301
637.444762	36474.056256
637.789829	36625.777343
638.134845	36306.289177
638.479808	36254.587103
638.824719	36179.781421
639.169577	35815.734496
639.514383	35882.065998
639.859137	35602.690293
640.203839	35844.272468
