Dividing Wavelength (nm)	Counts (n)	Blue Motor Position (mm): 26.100000	Red Motor Position (mm): 0.000000	
326.493990	2203.137986
326.888308	2203.137986
327.282561	2203.137986
327.676750	2161.553508
328.070874	2156.265338
328.464933	2155.748619
328.858929	2162.249187
329.252859	2167.610454
329.646726	2176.326609
330.040528	2187.676767
330.434265	2201.260156
330.827938	2220.058619
331.221547	2234.405743
331.615091	2250.683628
332.008571	2270.175250
332.401986	2290.297015
332.795338	2311.963895
333.188625	2327.193220
333.581847	2344.333143
333.975006	2365.332070
334.368100	2384.170862
334.761129	2403.377658
335.154095	2419.237128
335.546996	2445.010027
335.939833	2479.854482
336.332606	2493.193375
336.725315	2507.928668
337.117960	2521.280164
337.510540	2534.182997
337.903056	2542.427804
338.295508	2552.482386
338.687896	2564.928995
339.080220	2569.128276
339.472480	2575.878381
339.864676	2582.726788
340.256807	2585.864907
340.648875	2591.367326
341.040879	2593.466967
341.432818	2594.833119
341.824694	2598.596341
342.216506	2598.951742
342.608253	2600.421238
342.999937	2600.683378
343.391557	2602.115066
343.783113	2602.500714
344.174605	2599.836464
344.566033	2597.280599
344.957397	2596.554673
345.348697	2599.304623
345.739934	2596.171546
346.131106	2592.604929
346.522215	2592.078129
346.913260	2589.613004
347.304241	2589.071080
347.695159	2583.114957
348.086012	2586.842890
348.476802	2582.015986
348.867528	2576.795871
349.258191	2572.578946
349.648789	2572.367217
350.039324	2571.139696
350.429796	2572.405026
350.820203	2571.023750
351.210548	2571.449727
351.600828	2572.001733
351.991045	2568.687175
352.381198	2570.476784
352.771288	2567.978893
353.161314	2568.044428
353.551276	2565.228943
353.941175	2565.304561
354.331010	2567.565518
354.720782	2565.697771
355.110490	2565.975034
355.500135	2565.589386
355.889717	2567.560477
356.279235	2566.461505
356.668689	2566.151474
357.058080	2565.067626
357.447408	2563.948490
357.836672	2562.199210
358.225873	2565.251628
358.615010	2564.550908
359.004084	2568.919068
359.393095	2566.166598
359.782043	2567.764644
360.170927	2569.455951
360.559748	2569.992834
360.948505	2570.912844
361.337199	2570.665828
361.725830	2571.258163
362.114398	2570.726322
362.502903	2572.780592
362.891344	2572.732701
363.279722	2572.334450
363.668037	2574.602969
364.056289	2574.507187
364.444478	2573.067938
364.832603	2573.894687
365.220665	2576.430387
365.608665	2576.490881
365.996601	2579.833166
366.384474	2576.105233
366.772284	2578.729153
367.160031	2576.621951
367.547715	2579.961715
367.935336	2578.764441
368.322893	2573.264542
368.710388	2576.894173
369.097820	2575.742270
369.485189	2576.430387
369.872495	2577.662949
370.259738	2577.259657
370.646918	2581.090934
371.034035	2583.089751
371.421090	2581.900039
371.808081	2580.964905
372.195010	2581.824422
372.581875	2582.492375
372.968678	2582.948599
373.355418	2584.697879
373.742096	2579.944071
374.128710	2587.286512
374.515262	2583.777869
374.901751	2582.026068
375.288177	2583.641758
375.674540	2586.217787
376.060841	2587.629310
376.447079	2583.359453
376.833254	2586.288363
377.219367	2584.733167
377.605417	2584.813826
377.991404	2584.624783
378.377329	2585.106213
378.763191	2586.182499
379.148991	2589.870103
379.534727	2588.498909
379.920402	2586.411872
380.306013	2585.607808
380.691563	2591.505958
381.077049	2585.015472
381.462474	2587.026893
381.847835	2586.782397
382.233134	2586.689135
382.618371	2588.438416
383.003545	2589.794486
383.388657	2587.972109
383.773706	2589.005545
384.158693	2590.674167
384.543618	2590.288519
384.928480	2588.652665
385.313280	2589.902871
385.698017	2591.498396
386.082692	2591.059816
386.467305	2591.092583
386.851856	2594.041658
387.236344	2592.098293
387.620770	2588.206522
388.005133	2589.650813
388.389435	2589.673498
388.773674	2588.428333
389.157851	2590.752305
389.541965	2593.628283
389.926018	2595.586772
390.310008	2593.144333
390.693936	2594.238263
391.077802	2596.642893
391.461606	2595.148191
391.845348	2593.343458
392.229027	2592.799014
392.612645	2594.628953
392.996200	2597.230188
393.379694	2597.636001
393.763125	2597.172215
394.146494	2598.462750
394.529801	2597.603233
394.913047	2597.409149
395.296230	2596.378233
395.679351	2599.465940
396.062410	2600.945518
396.445408	2600.474170
396.828343	2597.681371
397.211217	2601.225302
397.594028	2600.184304
397.976778	2600.764037
398.359466	2601.154726
398.742092	2599.327308
399.124656	2601.300920
399.507158	2598.460229
399.889598	2604.570108
400.271977	2602.427617
400.654294	2600.915271
401.036549	2602.425097
401.418742	2601.694130
401.800874	2601.338728
402.182944	2605.134717
402.564952	2604.650766
402.946898	2605.326281
403.328783	2605.359048
403.710606	2601.404263
404.092367	2601.454675
404.474067	2602.714963
404.855705	2604.459202
405.237282	2606.710078
405.618797	2605.472474
406.000250	2606.541199
406.381642	2607.796446
406.762972	2601.442072
407.144240	2603.236723
407.525447	2603.450972
407.906593	2602.135231
408.287677	2609.301231
408.668700	2606.616816
409.049661	2609.190325
409.430560	2609.616303
409.811399	2609.515480
410.192176	2610.052363
410.572891	2609.041611
410.953545	2610.921962
411.334138	2610.374997
411.714669	2610.553957
412.095139	2612.330964
412.475547	2613.374483
412.855894	2609.838114
413.236180	2609.568412
413.616405	2609.641509
413.996568	2611.665532
414.376670	2611.852055
414.756711	2613.830707
415.136691	2611.789040
415.516609	2613.472786
415.896466	2613.273660
416.276262	2615.010337
416.655997	2615.854731
417.035670	2616.031171
417.415283	2617.198198
417.794834	2616.920935
418.174324	2613.576129
418.553753	2613.646705
418.933121	2616.575616
419.312428	2616.061418
419.691674	2616.258023
420.070859	2615.784155
420.449983	2616.663836
420.829045	2617.825822
421.208047	2618.617283
421.586988	2616.258023
421.965867	2618.367746
422.344686	2621.543673
422.723444	2618.188785
423.102141	2619.307921
423.480777	2619.622993
423.859352	2618.004783
424.237866	2618.403034
424.616319	2623.255145
424.994712	2624.054167
425.373044	2621.158025
425.751314	2618.581995
426.129524	2617.793054
426.507673	2619.660802
426.885762	2619.617952
427.263789	2625.616925
427.641756	2623.597943
428.019662	2625.624487
428.397508	2625.301853
428.775292	2624.134826
429.153016	2626.032820
429.530679	2625.322018
429.908282	2623.933180
430.285824	2628.278654
430.663305	2628.238325
431.040726	2629.465846
431.418086	2629.256638
431.795385	2628.946607
432.172624	2629.337297
432.549802	2630.854684
432.926920	2631.948614
433.303977	2633.226547
433.680974	2630.597585
434.057910	2631.305867
434.434786	2633.927267
434.811601	2634.098667
435.188355	2635.865591
435.565050	2634.799387
435.941683	2636.573873
436.318257	2637.418266
436.694770	2639.112094
437.071222	2637.125879
437.447614	2641.453710
437.823946	2643.555871
438.200218	2643.026550
438.576429	2643.770120
438.952580	2643.548309
439.328670	2646.573002
439.704700	2648.294556
440.080670	2648.841521
440.456580	2652.612304
440.832429	2651.914104
441.208218	2656.735968
441.583947	2657.577841
441.959616	2660.554642
442.335224	2664.726197
442.710773	2665.868018
443.086261	2671.945129
443.461689	2671.637619
443.837057	2679.620286
444.212365	2687.928107
444.587612	2687.101358
444.962800	2693.375074
445.337927	2703.134748
445.712995	2705.494008
446.088002	2731.178687
446.462949	2737.631364
446.837837	2749.543610
447.212664	2764.097421
447.587431	2786.873354
447.962139	2811.454021
448.336786	2889.690208
448.711374	2935.599996
449.085901	2905.403484
449.460369	2921.227666
449.834776	2932.172011
450.209124	2994.072339
450.583412	3050.936555
450.957640	3137.173053
451.331808	3137.536016
451.705917	3133.319091
452.079965	3144.122283
452.453954	3245.048704
452.827883	3277.382665
453.201752	3352.027030
453.575562	3375.433107
453.949311	3467.913074
454.323001	3528.822816
454.696632	3620.062659
455.070202	3721.939337
455.443713	3827.823733
455.817164	3966.677274
456.190556	4054.579874
456.563888	4198.456925
456.937160	4318.537210
457.310373	4312.064368
457.683526	4403.503337
458.056619	4432.318573
458.429653	4545.648752
458.802628	4561.427564
459.175542	4730.399479
459.548398	5011.257283
459.921194	5217.639601
460.293930	5354.822000
460.666607	5694.784813
461.039224	6089.897848
461.411782	6430.276556
461.784280	6550.797942
462.156719	6716.878755
462.529099	6740.287353
462.901419	6590.252532
463.273680	6666.378996
463.645882	6753.593478
464.018024	6799.558719
464.390106	7025.372165
464.762130	7441.653005
465.134094	7853.182558
465.505999	8739.054441
465.877845	10190.740391
466.249631	11558.128166
466.621358	11690.559277
466.993026	11344.032883
467.364634	11326.119142
467.736184	10963.307300
468.107674	10783.506987
468.479105	11029.565706
468.850477	11010.583241
469.221790	10989.410395
469.593043	10842.478404
469.964238	10789.521083
470.335373	10785.404981
470.706449	11180.588593
471.077467	11092.249933
471.448425	12245.776839
471.819324	14713.552716
472.190164	16202.906167
472.560945	14472.056241
472.931667	13212.024879
473.302330	12991.005571
473.672934	12816.899240
474.043479	13266.345832
474.413965	13330.933095
474.784393	13266.900359
475.154761	13866.830434
475.525070	14060.488880
475.895321	13961.142861
476.265513	14531.856929
476.635645	15092.224029
477.005719	15127.509585
477.375734	15434.856132
477.745691	15974.403267
478.115588	16486.370248
478.485427	17057.096919
478.855207	18031.723357
479.224928	19502.169961
479.594591	21433.458684
479.964194	21699.714786
480.333739	22179.589783
480.703226	21997.422647
481.072653	21929.472935
481.442022	22529.314790
481.811333	23429.609414
482.180584	23571.107041
482.549777	22935.876286
482.918912	22793.554430
483.287988	23029.051932
483.657005	22922.227362
484.025964	22786.630405
484.394864	22902.705493
484.763706	22780.790229
485.132489	22393.158265
485.501213	22633.800265
485.869879	22692.091127
486.238487	22573.119896
486.607036	22854.144058
486.975527	22631.408237
487.343959	23042.337893
487.712333	23103.597995
488.080648	22860.808464
488.448905	23383.394636
488.817104	23213.419531
489.185244	23900.617021
489.553326	23966.351146
489.921350	24900.734053
490.289315	27089.761849
490.657222	28913.893286
491.025070	29459.920824
491.392861	29334.207050
491.760593	28598.191026
492.128267	27813.444689
492.495883	26857.306683
492.863440	26059.198768
493.230939	25234.095474
493.598380	25125.539267
493.965763	24752.241825
494.333088	24375.967581
494.700354	24306.871006
495.067563	24234.422064
495.434713	24011.804710
495.801805	24162.530169
496.168839	24020.404918
496.535815	23873.737588
496.902733	24077.972375
497.269593	23766.066104
497.636395	23973.960768
498.003139	23975.223577
498.369825	23743.501899
498.736453	23932.371249
499.103023	23829.531710
499.469535	23859.607234
499.835989	24070.319903
500.202385	24107.553865
500.568723	23616.268217
500.935003	23907.596498
501.301226	23475.390652
501.667390	24315.461132
502.033497	24574.730195
502.399546	24296.433297
502.765537	23902.217587
503.131470	24282.227326
503.497345	24419.530712
503.863163	23626.973108
504.228923	24266.456076
504.594625	24439.770945
504.960269	23956.825886
505.325856	24465.553926
505.691385	23871.491754
506.056856	24485.509334
506.422270	24453.659324
506.787625	24059.284817
507.152924	24450.329642
507.518164	24480.934487
507.883347	24292.707884
508.248472	23971.662002
508.613540	24753.489511
508.978550	24541.219125
509.343503	24528.301168
509.708398	24808.899353
510.073236	24966.059845
510.438016	25172.200187
510.802738	24856.003895
511.167403	25102.470947
511.532010	24789.478308
511.896561	25578.615490
512.261053	25544.053339
512.625488	25390.865277
512.989866	25290.022035
513.354186	25138.951257
513.718449	25223.060388
514.082655	25611.897187
514.446803	25359.854619
514.810894	25806.417670
515.174927	25286.556242
515.538904	25322.938249
515.902822	25824.351575
516.266684	25569.654839
516.630488	25468.816638
516.994235	25481.018751
517.357925	25749.261068
517.721558	25956.873427
518.085133	26025.927153
518.448651	25954.367974
518.812112	25672.837176
519.175516	25869.227927
519.538863	26019.323241
519.902152	25802.014222
520.265385	26114.525432
520.628560	25895.764561
520.991678	25912.264257
521.354739	25985.534908
521.717743	26026.000250
522.080690	25841.254564
522.443580	26159.852967
522.806413	26176.856778
523.169189	26251.939724
523.531908	26313.290566
523.894569	25909.592446
524.257174	25979.699772
524.619722	26185.212491
524.982213	25864.718615
525.344647	25946.012262
525.707025	26056.824385
526.069345	26059.004684
526.431608	26000.539902
526.793815	26201.334101
527.155964	25646.497147
527.518057	25809.845655
527.880093	25747.680666
528.242072	25975.623999
528.603995	25684.774628
528.965860	25473.686393
529.327669	25535.049838
529.689421	25527.402408
530.051117	25343.024727
530.412755	25523.825709
530.774337	25341.134294
531.135862	25195.840678
531.497331	25409.678863
531.858743	24945.920435
532.220098	25445.055160
532.581396	25123.142199
532.942638	25063.712036
533.303824	25156.076057
533.664953	25160.781974
534.026025	24842.407903
534.387040	25067.770165
534.747999	25136.770958
535.108902	25298.491173
535.469748	24786.866990
535.830537	24982.380580
536.191270	25088.330511
536.551947	24996.692416
536.912567	24649.036803
537.273131	24953.996364
537.633638	24684.970147
537.994089	24889.245263
538.354483	24438.558547
538.714821	24937.103457
539.075103	24969.145031
539.435328	24770.334526
539.795497	24316.673530
540.155609	24724.223092
540.515665	25016.027762
540.875665	24262.191260
541.235609	24541.516553
541.595496	24494.666590
541.955328	24858.713515
542.315102	24779.232163
542.674821	24352.241391
543.034483	24217.798859
543.394090	24378.208374
543.753640	24174.066849
544.113134	24814.384128
544.472571	24407.696604
544.831953	24690.076836
545.191278	24295.273832
545.550548	24245.502520
545.909761	24453.737462
546.268918	24672.097561
546.628019	24640.857531
546.987064	24333.420243
547.346053	24104.042702
547.704986	24230.643719
548.063863	24381.538056
548.422684	24387.405959
548.781449	23936.893164
549.140158	24328.432021
549.498811	23909.819647
549.857408	23633.662719
550.215949	24085.771040
550.574434	23752.160081
550.932864	23982.092149
551.291237	24123.932574
551.649555	24003.993442
552.007817	24045.184710
552.366022	23916.027828
552.724173	23964.811074
553.082267	23899.104674
553.440305	24375.828950
553.798288	23646.076560
554.156215	24162.872967
554.514086	24246.273816
554.871902	23624.611327
555.229661	23913.255193
555.587365	23772.594398
555.945014	23618.708136
556.302606	23887.013467
556.660143	23810.390449
557.017625	24073.014400
557.375050	23612.530202
557.732421	24005.324307
558.089735	23801.641527
558.446994	23867.189129
558.804197	23902.207505
559.161345	23863.289797
559.518437	23584.763526
559.875474	23795.599704
560.232455	23975.533608
560.589381	23804.537669
560.946251	23762.590228
561.303065	24112.471511
561.659825	24181.081615
562.016528	23796.670949
562.373177	23538.813409
562.729770	23881.291757
563.086307	23761.544189
563.442789	23926.452934
563.799216	23751.713939
564.155587	23767.545682
564.511904	23746.614812
564.868164	23674.067567
565.224370	23665.855527
565.580520	23571.979160
565.936615	23705.514284
566.292654	23362.345298
566.648638	23690.141286
567.004567	23509.526826
567.360441	23462.200473
567.716260	23180.725128
568.072023	23505.793851
568.427732	23280.940746
568.783385	23059.714750
569.138982	23282.226240
569.494525	23329.693745
569.850013	23072.264703
570.205445	23165.084948
570.560823	22965.624134
570.916145	22733.385738
571.271412	22911.540115
571.626625	22673.022962
571.981782	22788.780457
572.336884	22585.901742
572.691931	22725.705541
573.046923	22456.747380
573.401860	22337.539215
573.756743	22340.795800
574.111570	22261.753029
574.466342	22183.983148
574.821059	22279.966717
575.175722	21974.576138
575.530330	21963.064663
575.884882	21992.590701
576.239380	21901.136609
576.593823	21786.916666
576.948211	21768.027462
577.302544	21614.602465
577.656823	21478.735808
578.011047	21588.282601
578.365216	21452.521807
578.719330	21334.145433
579.073389	21226.358002
579.427394	21378.043801
579.781344	21158.511633
580.135239	21041.312368
580.489080	21015.796567
580.842866	20780.979621
581.196597	20960.517795
581.550273	20950.095209
581.903895	20832.964000
582.257463	21164.117396
582.610975	20686.296670
582.964434	20985.640385
583.317837	20705.884073
583.671186	20791.044285
584.024481	20745.668859
584.377721	20531.011487
584.730906	20585.234138
585.084037	20611.367480
585.437113	20509.621872
585.790135	20714.315403
586.143103	20185.271513
586.496016	20202.983607
586.848874	20442.297262
587.201679	20385.599405
587.554428	20036.101250
587.907124	20377.241172
588.259765	20162.054478
588.612352	20238.085161
588.964884	19801.531320
589.317362	19969.290838
589.669786	20024.607419
590.022155	20073.141127
590.374470	20258.239694
590.726731	20065.460930
591.078937	19811.696807
591.431090	19930.421021
591.783188	19664.560649
592.135232	19639.337236
592.487222	19734.055476
592.839157	19759.704867
593.191038	19635.576535
593.542866	19536.031391
593.894639	19245.696217
594.246358	19469.057142
594.598022	19366.522593
594.949633	19122.122413
595.301190	19090.083360
595.652692	19252.766436
596.004141	19499.404888
596.355535	18831.003340
596.706876	18835.656325
597.058162	18726.711950
597.409395	18953.589078
597.760573	19036.624444
598.111698	18813.167738
598.462768	18741.916070
598.813785	18704.793013
599.164748	18532.594759
599.515657	18560.941167
599.866511	18355.156226
600.217312	18720.468481
600.568060	18253.289630
600.918753	18557.203152
601.269392	18460.874263
601.619978	18237.772959
601.970510	18453.486452
602.320988	18387.134785
602.671412	18601.998845
603.021783	18508.656840
603.372100	18240.525429
603.722363	18371.630717
604.072572	18315.973858
604.422728	18450.013097
604.772830	18215.271768
605.122878	18163.867123
605.472872	18159.317481
605.822813	18141.610428
606.172701	18117.891800
606.522534	18310.461356
606.872314	18338.127208
607.222041	18164.983738
607.571714	18385.070433
607.921333	18207.079893
608.270899	18287.884548
608.620411	18475.034864
608.969870	18229.553357
609.319276	18247.731758
609.668627	18272.297301
610.017926	18404.357887
610.367171	18513.826543
610.716362	18561.770437
611.065500	18383.885762
611.414585	18514.577675
611.763616	18497.833483
612.112594	18442.877344
612.461518	18411.511285
612.810389	18597.159337
613.159207	18464.206466
613.507971	18364.767186
613.856682	18647.938880
614.205340	18577.982788
614.553945	18722.525271
614.902496	18459.866033
615.250994	18708.024392
615.599439	18642.663312
615.947830	18630.292321
616.296169	18679.612449
616.644454	18645.347727
616.992686	18606.858517
617.340864	18829.574173
617.688990	18584.740454
618.037063	18753.367051
618.385082	18612.872613
618.733048	18887.706239
619.080961	18752.230270
619.428821	18794.994378
619.776628	18683.332821
620.124382	18604.963043
620.472083	18643.210277
620.819731	18674.934258
621.167326	18370.879585
621.514868	18400.720695
621.862357	18161.641453
622.209793	18172.086724
622.557176	18012.493876
622.904506	17834.180702
623.251783	17739.462463
623.599007	17509.197678
623.946179	17455.252291
624.293297	17398.592243
624.640363	17153.365314
624.987376	17171.947007
625.334336	16970.346223
625.681243	16805.954196
626.028097	16818.118501
626.374899	16752.815394
626.721647	16617.767923
627.068343	16446.542612
627.414987	16378.991151
627.761577	16355.695979
628.108115	16403.223977
628.454600	16113.312261
628.801032	16211.148454
629.147412	16145.721839
629.493739	16165.641958
629.840014	15977.458206
630.186236	16067.082359
630.532405	15828.575289
630.878521	16037.304264
631.224585	15932.090342
631.570597	15750.117291
631.916556	15778.834224
632.262462	15760.529794
632.608316	15681.373596
632.954117	15631.584640
633.299866	15626.437622
633.645562	15540.440579
633.991206	15293.877744
634.336797	15159.415048
634.682336	15132.850687
635.027823	15019.873389
635.373257	14910.606379
635.718639	14795.690757
636.063968	14754.514612
636.409245	14499.585983
636.754470	14531.151167
637.099642	14380.781110
637.444762	14152.835256
