Dividing Wavelength (nm)	Counts (n)	Blue Motor Position (mm): 45.200000	Red Motor Position (mm): 0.000000	
326.493990	2130.361368
326.888308	2130.361368
327.282561	2130.361368
327.676750	2095.600092
328.070874	2094.165884
328.464933	2097.651842
328.858929	2102.093098
329.252859	2114.839656
329.646726	2126.247787
330.040528	2137.300517
330.434265	2157.974289
330.827938	2175.139418
331.221547	2191.535770
331.615091	2210.780375
332.008571	2232.016236
332.401986	2246.466703
332.795338	2267.052255
333.188625	2288.615791
333.581847	2306.937864
333.975006	2323.440081
334.368100	2342.241065
334.761129	2359.559949
335.154095	2373.962525
335.546996	2398.843140
335.939833	2424.265679
336.332606	2437.738163
336.725315	2451.195523
337.117960	2459.435289
337.510540	2467.538943
337.903056	2479.068062
338.295508	2487.428816
338.687896	2494.221771
339.080220	2503.530261
339.472480	2511.616272
339.864676	2514.671211
340.256807	2521.282685
340.648875	2522.732016
341.040879	2525.227388
341.432818	2526.296112
341.824694	2527.188396
342.216506	2528.206709
342.608253	2527.475742
342.999937	2527.228726
343.391557	2529.023376
343.783113	2527.478263
344.174605	2527.851308
344.566033	2523.185720
344.957397	2524.670340
345.348697	2520.077849
345.739934	2519.470390
346.131106	2515.871006
346.522215	2517.214473
346.913260	2513.005110
347.304241	2513.736077
347.695159	2511.177692
348.086012	2509.199039
348.476802	2509.816580
348.867528	2506.686024
349.258191	2504.546054
349.648789	2503.865498
350.039324	2500.949191
350.429796	2502.968173
350.820203	2496.263438
351.210548	2500.624036
351.600828	2498.980620
351.991045	2500.044303
352.381198	2496.165136
352.771288	2494.627584
353.161314	2496.570948
353.551276	2497.760661
353.941175	2495.008191
354.331010	2497.286792
354.720782	2495.867707
355.110490	2497.160763
355.500135	2498.015239
355.889717	2496.855774
356.279235	2497.606906
356.668689	2496.691936
357.058080	2499.159581
357.447408	2495.421565
357.836672	2496.056751
358.225873	2496.936432
358.615010	2493.672285
359.004084	2500.427431
359.393095	2499.535147
359.782043	2502.663183
360.170927	2503.845333
360.559748	2499.388953
360.948505	2503.767196
361.337199	2504.856085
361.725830	2502.287617
362.114398	2506.176867
362.502903	2504.966990
362.891344	2507.353977
363.279722	2508.742814
363.668037	2507.112001
364.056289	2508.959584
364.444478	2508.750376
364.832603	2508.490757
365.220665	2508.969666
365.608665	2507.333812
365.996601	2510.431601
366.384474	2511.845645
366.772284	2510.529903
367.160031	2513.242044
367.547715	2510.802126
367.935336	2513.794051
368.322893	2515.366891
368.710388	2512.173320
369.097820	2517.053157
369.485189	2516.009638
369.872495	2518.240348
370.259738	2514.401510
370.646918	2513.110974
371.034035	2516.649864
371.421090	2517.411078
371.808081	2517.456449
372.195010	2516.622138
372.581875	2519.006604
372.968678	2519.198168
373.355418	2518.492406
373.742096	2522.406862
374.128710	2523.410052
374.515262	2528.461288
374.901751	2529.628315
375.288177	2533.704088
375.674540	2537.784902
376.060841	2543.524255
376.447079	2549.697148
376.833254	2555.731409
377.219367	2557.649568
377.605417	2574.418967
377.991404	2581.456417
378.377329	2595.521237
378.763191	2602.571290
379.148991	2628.160187
379.534727	2640.523617
379.920402	2656.627583
380.306013	2669.890859
380.691563	2696.742565
381.077049	2717.128991
381.462474	2731.813872
381.847835	2763.424427
382.233134	2783.863786
382.618371	2794.949283
383.003545	2842.114318
383.388657	2863.478728
383.773706	2892.271278
384.158693	2921.089034
384.543618	2952.137501
384.928480	2986.946668
385.313280	3032.808565
385.698017	3048.925134
386.082692	3102.169801
386.467305	3126.503451
386.851856	3162.666168
387.236344	3194.460725
387.620770	3239.689957
388.005133	3278.060700
388.389435	3315.990342
388.773674	3342.894980
389.157851	3393.059502
389.541965	3424.019748
389.926018	3412.102460
390.310008	3487.876044
390.693936	3521.503060
391.077802	3569.081470
391.461606	3575.798808
391.845348	3645.011330
392.229027	3657.828463
392.612645	3678.877801
392.996200	3763.039865
393.379694	3809.002585
393.763125	3884.735839
394.146494	3863.961244
394.529801	3929.234104
394.913047	3991.383969
395.296230	3964.703662
395.679351	4023.770862
396.062410	4057.012231
396.445408	4042.554201
396.828343	4082.510387
397.211217	4106.869242
397.594028	4032.449208
397.976778	4103.295064
398.359466	4137.685816
398.742092	4167.030372
399.124656	4088.519442
399.507158	4171.511958
399.889598	4195.833005
400.271977	4260.178292
400.654294	4227.509095
401.036549	4241.377309
401.418742	4212.796487
401.800874	4314.526972
402.182944	4336.322401
402.564952	4400.970158
402.946898	4388.576481
403.328783	4385.221593
403.710606	4299.474087
404.092367	4494.037419
404.474067	4455.157520
404.855705	4465.963233
405.237282	4395.992018
405.618797	4500.258203
406.000250	4537.434192
406.381642	4616.567705
406.762972	4577.730655
407.144240	4591.596349
407.525447	4592.985187
407.906593	4648.639525
408.287677	4688.865412
408.668700	4622.428046
409.049661	4673.376467
409.430560	4713.703177
409.811399	4638.738699
410.192176	4802.518226
410.572891	4740.766612
410.953545	4845.892314
411.334138	4725.249940
411.714669	4795.231238
412.095139	4687.937840
412.475547	4828.523018
412.855894	4811.342766
413.236180	4821.530938
413.616405	4770.877424
413.996568	4860.214232
414.376670	4800.728616
414.756711	4759.474334
415.136691	4785.521976
415.516609	4865.469635
415.896466	4902.380963
416.276262	4938.258855
416.655997	4917.721194
417.035670	5102.078711
417.415283	5188.320250
417.794834	5137.404597
418.174324	5091.744346
418.553753	4997.232793
418.933121	5183.090053
419.312428	5248.181432
419.691674	5185.035939
420.070859	5308.229136
420.449983	5224.808122
420.829045	5341.178117
421.208047	5249.913068
421.586988	5319.690199
421.965867	5329.084389
422.344686	5464.704031
422.723444	5317.502338
423.102141	5133.376715
423.480777	5432.425523
423.859352	5198.223597
424.237866	5464.237724
424.616319	5454.825890
424.994712	5563.855965
425.373044	5439.775525
425.751314	5582.382205
426.129524	5384.426176
426.507673	5577.799797
426.885762	5664.076624
427.263789	5590.087609
427.641756	5477.324559
428.019662	5597.742601
428.397508	5607.353561
428.775292	5555.807763
429.153016	5653.878370
429.530679	5580.779118
429.908282	5662.866747
430.285824	5533.730030
430.663305	5809.639941
431.040726	5544.089601
431.418086	5542.950300
431.795385	5653.573380
432.172624	5661.568650
432.549802	5653.714532
432.926920	5670.383107
433.303977	5675.751936
433.680974	5713.621084
434.057910	5733.500874
434.434786	5735.028344
434.811601	5705.479621
435.188355	5936.500578
435.565050	5814.807124
435.941683	5797.367252
436.318257	6015.319018
436.694770	5992.505277
437.071222	6031.687645
437.447614	5960.657787
437.823946	5875.013624
438.200218	6026.225555
438.576429	5898.888529
438.952580	5992.593497
439.328670	6040.323141
439.704700	5942.330672
440.080670	5933.496050
440.456580	6199.827770
440.832429	6084.889462
441.208218	5930.310041
441.583947	6085.340645
441.959616	6091.294248
442.335224	6016.670047
442.710773	6150.679040
443.086261	6181.598957
443.461689	5972.943079
443.837057	6124.021419
444.212365	6282.081756
444.587612	6171.400703
444.962800	6326.942984
445.337927	6303.889788
445.712995	5916.519965
446.088002	6491.521534
446.462949	6325.965001
446.837837	6257.422952
447.212664	6429.593480
447.587431	6570.738226
447.962139	7112.294260
448.336786	8041.154582
448.711374	7778.825539
449.085901	6856.236412
449.460369	6771.499657
449.834776	6710.993208
450.209124	7103.794874
450.583412	7253.136537
450.957640	7399.375368
451.331808	7161.753020
451.705917	6713.924639
452.079965	6636.416898
452.453954	6849.559404
452.827883	6722.038376
453.201752	6819.309960
453.575562	6618.223374
453.949311	6821.155022
454.323001	6712.014042
454.696632	6786.371061
455.070202	6921.993223
455.443713	7077.878302
455.817164	7185.922832
456.190556	7261.346056
456.563888	7338.745411
456.937160	7382.164869
457.310373	7040.629217
457.683526	7064.733494
458.056619	6956.459592
458.429653	6938.374452
458.802628	6878.563682
459.175542	6987.182904
459.548398	7338.402613
459.921194	7502.779516
460.293930	7500.500915
460.666607	8031.742748
461.039224	8335.515117
461.411782	8462.479097
461.784280	8479.797981
462.156719	8379.438691
462.529099	8252.409175
462.901419	7838.389292
463.273680	7731.098415
463.645882	7750.332937
464.018024	7615.852597
464.390106	7783.609594
464.762130	8175.629882
465.134094	8645.513311
465.505999	9659.632148
465.877845	10882.817717
466.249631	11536.857017
466.621358	11153.310909
466.993026	10513.512869
467.364634	10265.737637
467.736184	9903.016535
468.107674	9569.960103
468.479105	9596.680739
468.850477	9364.966623
469.221790	9135.082446
469.593043	8808.171181
469.964238	8670.313267
470.335373	8677.776696
470.706449	8740.947395
471.077467	8720.356802
471.448425	10037.696001
471.819324	11103.244690
472.190164	11121.591969
472.560945	9869.518068
472.931667	9092.633410
473.302330	8956.194582
473.672934	8602.746683
474.043479	8957.023851
474.413965	8901.387157
474.784393	8780.001213
475.154761	8940.622457
475.525070	9024.363584
475.895321	8851.033592
476.265513	9031.272486
476.635645	9197.484369
477.005719	9195.818268
477.375734	9315.691865
477.745691	9548.875477
478.115588	9686.720788
478.485427	9929.321276
478.855207	10463.418923
479.224928	11282.399736
479.594591	11912.470870
479.964194	11724.188815
480.333739	11658.003506
480.703226	11571.711555
481.072653	11662.207828
481.442022	11900.858572
481.811333	12085.047210
482.180584	11898.693396
482.549777	11604.922677
482.918912	11430.718044
483.287988	11447.868049
483.657005	11462.638630
484.025964	11143.962089
484.394864	11278.220619
484.763706	11247.290620
485.132489	11008.786070
485.501213	10968.852569
485.869879	11047.257635
486.238487	10889.477082
486.607036	10998.124029
486.975527	10774.127920
487.343959	10966.997425
487.712333	11020.360559
488.080648	10945.406163
488.448905	10992.858544
488.817104	10932.415109
489.185244	11191.916065
489.553326	11346.903820
489.921350	11885.745193
490.289315	12947.190382
490.657222	13291.178556
491.025070	13199.865616
491.392861	13073.390627
491.760593	12693.471629
492.128267	12342.554390
492.495883	12019.429031
492.863440	11679.985457
493.230939	11342.573469
493.598380	11268.750812
493.965763	11137.824485
494.333088	11038.987622
494.700354	10960.842176
495.067563	11025.265602
495.434713	10851.605413
495.801805	10983.323202
496.168839	10911.103632
496.535815	10833.590850
496.902733	10839.249545
497.269593	10771.078022
497.636395	10867.951355
498.003139	10866.325582
498.369825	10730.025385
498.736453	10891.964891
499.103023	10816.423201
499.469535	10846.839002
499.835989	10836.784421
500.202385	10800.362084
500.568723	10639.181272
500.935003	10870.781963
501.301226	10675.522951
501.667390	10928.112485
502.033497	11030.135356
502.399546	10887.533717
502.765537	10795.792278
503.131470	10868.213495
503.497345	11049.390043
503.863163	10655.610393
504.228923	10961.384100
504.594625	11032.471931
504.960269	10777.908785
505.325856	10995.484985
505.691385	10792.097113
506.056856	10947.168046
506.422270	10972.250307
506.787625	10859.424243
507.152924	10975.700977
507.518164	10959.690272
507.883347	10881.930474
508.248472	10796.417382
508.613540	11024.910200
508.978550	10917.183263
509.343503	10889.769468
509.708398	11013.280258
510.073236	11130.169492
510.438016	11125.730757
510.802738	11073.529608
511.167403	11134.305759
511.532010	11029.888340
511.896561	11264.768300
512.261053	11332.307159
512.625488	11201.968126
512.989866	11184.253512
513.354186	11172.187510
513.718449	11072.881820
514.082655	11260.871488
514.446803	11157.399285
514.810894	11282.054417
515.174927	11149.298151
515.538904	11168.452015
515.902822	11322.464306
516.266684	11207.357120
516.630488	11155.541620
516.994235	11205.501975
517.357925	11264.826273
517.721558	11356.111487
518.085133	11375.436751
518.448651	11379.870445
518.812112	11264.738053
519.175516	11278.888572
519.538863	11400.866851
519.902152	11316.626650
520.265385	11478.747637
520.628560	11386.207176
520.991678	11365.813188
521.354739	11434.156111
521.717743	11361.301355
522.080690	11350.120076
522.443580	11481.190076
522.806413	11431.416243
523.169189	11468.027623
523.531908	11524.957374
523.894569	11347.002122
524.257174	11345.207472
524.619722	11465.202057
524.982213	11416.764130
525.344647	11463.573764
525.707025	11413.230281
526.069345	11514.728873
526.431608	11427.590008
526.793815	11540.221987
527.155964	11320.440283
527.518057	11375.151925
527.880093	11325.370531
528.242072	11396.140769
528.603995	11303.547376
528.965860	11223.151055
529.327669	11273.534867
529.689421	11214.981865
530.051117	11192.364728
530.412755	11299.438836
530.774337	11187.250478
531.135862	11166.075111
531.497331	11190.272649
531.858743	11039.642972
532.220098	11204.955010
532.581396	11076.017418
532.942638	11059.714326
533.303824	11026.994717
533.664953	11045.221009
534.026025	10953.666093
534.387040	11053.485981
534.747999	11052.200487
535.108902	11110.226688
535.469748	10870.073680
535.830537	10972.280554
536.191270	10950.941350
536.551947	10973.825668
536.912567	10976.356327
537.273131	10899.040150
537.633638	10877.642973
537.994089	10875.341686
538.354483	10815.546040
538.714821	10959.856630
539.075103	10970.715276
539.435328	10936.742940
539.795497	10757.749211
540.155609	10926.940416
540.515665	11007.669454
540.875665	10747.349311
541.235609	10816.040073
541.595496	10803.122116
541.955328	10965.701848
542.315102	10842.498569
542.674821	10793.349839
543.034483	10793.163317
543.394090	10800.223453
543.753640	10729.901877
544.113134	10956.811773
544.472571	10802.260079
544.831953	10947.921699
545.191278	10754.417008
545.550548	10786.372883
545.909761	10922.194170
546.268918	10898.689790
546.628019	10979.171811
546.987064	10835.461118
547.346053	10763.163410
547.704986	10858.773934
548.063863	10850.476195
548.422684	10842.788435
548.781449	10763.559141
549.140158	10868.329441
549.498811	10734.232228
549.857408	10593.445404
550.215949	10822.371762
550.574434	10671.122023
550.932864	10773.228074
551.291237	10834.614204
551.649555	10777.981882
552.007817	10798.123812
552.366022	10763.105437
552.724173	10749.968190
553.082267	10727.930786
553.440305	10867.021262
553.798288	10671.066571
554.156215	10822.333953
554.514086	10802.078597
554.871902	10653.530917
555.229661	10690.744715
555.587365	10663.557772
555.945014	10560.040198
556.302606	10683.677017
556.660143	10573.469832
557.017625	10733.723072
557.375050	10628.582247
557.732421	10762.707186
558.089735	10675.366675
558.446994	10673.161170
558.804197	10712.058713
559.161345	10715.176667
559.518437	10560.498943
559.875474	10649.011523
560.232455	10674.134113
560.589381	10633.043668
560.946251	10627.896650
561.303065	10735.134595
561.659825	10671.545480
562.016528	10600.354306
562.373177	10487.760134
562.729770	10597.768194
563.086307	10517.394557
563.442789	10604.596437
563.799216	10482.482046
564.155587	10529.301763
564.511904	10483.712088
564.868164	10475.769750
565.224370	10489.411112
565.580520	10419.659187
565.936615	10423.145145
566.292654	10291.364342
566.648638	10416.359752
567.004567	10383.340194
567.360441	10367.261434
567.716260	10272.991857
568.072023	10368.214212
568.427732	10317.500204
568.783385	10229.496782
569.138982	10297.093614
569.494525	10312.156581
569.850013	10191.758704
570.205445	10276.800449
570.560823	10171.062247
570.916145	10084.296427
571.271412	10152.180605
571.626625	10091.780020
571.981782	10076.565818
572.336884	10052.506911
572.691931	10054.084793
573.046923	9996.693777
573.401860	9955.058887
573.756743	9892.306604
574.111570	9938.281927
574.466342	9921.431870
574.821059	9945.228637
575.175722	9838.121762
575.530330	9848.072999
575.884882	9846.011168
576.239380	9765.501420
576.593823	9745.034335
576.948211	9758.998332
577.302544	9643.525662
577.656823	9661.048712
578.011047	9660.345471
578.365216	9633.309763
578.719330	9555.708762
579.073389	9566.363240
579.427394	9520.894553
579.781344	9494.259617
580.135239	9443.583418
580.489080	9447.921331
580.842866	9351.199232
581.196597	9361.969658
581.550273	9397.827385
581.903895	9369.866625
582.257463	9433.463301
582.610975	9312.831010
582.964434	9337.913271
583.317837	9263.770501
583.671186	9242.136389
584.024481	9241.072706
584.377721	9158.054984
584.730906	9134.033886
585.084037	9162.881889
585.437113	9097.966951
585.790135	9119.817832
586.143103	9016.575002
586.496016	8991.578440
586.848874	9048.724960
587.201679	9037.762971
587.554428	8925.657792
587.907124	8971.612951
588.259765	8941.623126
588.612352	8942.202859
588.964884	8815.649733
589.317362	8836.744441
589.669786	8833.200510
590.022155	8882.457624
590.374470	8904.540399
590.726731	8838.057662
591.078937	8686.344137
591.431090	8801.000140
591.783188	8673.748814
592.135232	8661.516454
592.487222	8667.215478
592.839157	8713.899084
593.191038	8651.983632
593.542866	8595.565559
593.894639	8499.745827
594.246358	8551.773055
594.598022	8560.441319
594.949633	8458.794014
595.301190	8437.956404
595.652692	8464.251063
596.004141	8579.065862
596.355535	8349.597580
596.706876	8340.009306
597.058162	8269.859129
597.409395	8349.322837
597.760573	8406.973473
598.111698	8317.593815
598.462768	8296.763768
598.813785	8268.104808
599.164748	8235.959890
599.515657	8221.741316
599.866511	8135.918192
600.217312	8258.864373
600.568060	8118.125440
600.918753	8224.173673
601.269392	8195.106380
601.619978	8103.720343
601.970510	8171.183584
602.320988	8164.740989
602.671412	8224.271975
603.021783	8160.284609
603.372100	8130.443499
603.722363	8127.091132
604.072572	8108.995910
604.422728	8119.345399
604.772830	8047.513998
605.122878	8059.617808
605.472872	8054.037251
605.822813	8075.323523
606.172701	8024.680092
606.522534	8100.146165
606.872314	8099.125331
607.222041	8071.945950
607.571714	8122.148281
607.921333	8083.704441
608.270899	8088.002025
608.620411	8184.751850
608.969870	8085.035306
609.319276	8074.700941
609.668627	8091.457736
610.017926	8125.974516
610.367171	8172.070827
610.716362	8151.903691
611.065500	8137.533882
611.414585	8168.022781
611.763616	8159.944332
612.112594	8142.494378
612.461518	8154.376377
612.810389	8216.319555
613.159207	8151.359247
613.507971	8102.407122
613.856682	8224.468580
614.205340	8177.001076
614.553945	8252.431861
614.902496	8155.946697
615.250994	8209.546765
615.599439	8185.623969
615.947830	8196.225516
616.296169	8177.222886
616.644454	8192.444650
616.992686	8190.551697
617.340864	8246.856344
617.688990	8151.893609
618.037063	8243.496415
618.385082	8187.990791
618.733048	8270.607741
619.080961	8211.061632
619.428821	8230.459992
619.776628	8243.420798
620.124382	8185.603805
620.472083	8167.440527
620.819731	8194.216616
621.167326	8092.498734
621.514868	8101.519879
621.862357	7981.177454
622.209793	8004.036567
622.557176	7935.650794
622.904506	7903.279025
623.251783	7841.224941
623.599007	7799.048128
623.946179	7799.930330
624.293297	7755.225377
624.640363	7671.912748
624.987376	7658.495717
625.334336	7603.411029
625.681243	7553.884213
626.028097	7538.859054
626.374899	7521.063781
626.721647	7506.232707
627.068343	7441.552182
627.414987	7415.486896
627.761577	7367.681634
628.108115	7405.696975
628.454600	7302.028167
628.801032	7351.817123
629.147412	7310.920762
629.493739	7304.294166
629.840014	7241.516677
630.186236	7298.048176
630.532405	7176.468148
630.878521	7228.714667
631.224585	7187.271341
631.570597	7108.475586
631.916556	7138.568754
632.262462	7139.274515
632.608316	7098.368072
632.954117	7077.023827
633.299866	7060.776188
633.645562	7054.046248
633.991206	6972.435008
634.336797	6917.458705
634.682336	6876.035544
635.027823	6841.349885
635.373257	6834.413257
635.718639	6768.578308
636.063968	6778.065760
636.409245	6675.460635
636.754470	6672.846797
637.099642	6633.062011
637.444762	6570.972639
637.789829	6580.402118
638.134845	6522.106214
638.479808	6505.183061
638.824719	6509.084914
639.169577	6441.951868
639.514383	6463.344005
639.859137	6387.308281
640.203839	6397.309930
640.548489	6385.551439
