Dividing Wavelength (nm)	Counts (n)	Blue Motor Position (mm): 0.200000	Red Motor Position (mm): 0.000000	
326.493990	2166.561894
326.888308	2166.561894
327.282561	2166.561894
327.676750	2127.339197
328.070874	2124.160749
328.464933	2123.666716
328.858929	2126.489762
329.252859	2131.583848
329.646726	2140.214304
330.040528	2156.204844
330.434265	2164.638694
330.827938	2183.021262
331.221547	2201.688654
331.615091	2219.809082
332.008571	2236.185270
332.401986	2256.901892
332.795338	2274.654315
333.188625	2295.340690
333.581847	2311.346353
333.975006	2329.756647
334.368100	2346.929338
334.761129	2365.352234
335.154095	2384.760677
335.546996	2398.802811
335.939833	2416.096489
336.332606	2431.804724
336.725315	2444.132866
337.117960	2457.761626
337.510540	2468.504324
337.903056	2479.267188
338.295508	2485.170379
338.687896	2496.739827
339.080220	2503.215189
339.472480	2511.954029
339.864676	2516.516274
340.256807	2520.551717
340.648875	2525.426513
341.040879	2525.353416
341.432818	2531.624612
341.824694	2534.901362
342.216506	2533.446989
342.608253	2538.268852
342.999937	2535.299613
343.391557	2536.804397
343.783113	2536.023018
344.174605	2534.621578
344.566033	2533.875487
344.957397	2532.257277
345.348697	2528.819210
345.739934	2531.117976
346.131106	2527.236287
346.522215	2526.028931
346.913260	2523.571368
347.304241	2523.137829
347.695159	2520.085411
348.086012	2518.343692
348.476802	2516.357477
348.867528	2509.924965
349.258191	2509.725839
349.648789	2504.924140
350.039324	2504.563698
350.429796	2509.257012
350.820203	2508.510921
351.210548	2506.239882
351.600828	2504.460354
351.991045	2504.974552
352.381198	2501.826351
352.771288	2502.688389
353.161314	2504.001609
353.551276	2502.302740
353.941175	2497.795949
354.331010	2502.862308
354.720782	2500.487925
355.110490	2501.659993
355.500135	2496.339055
355.889717	2502.287617
356.279235	2498.809221
356.668689	2501.259222
357.058080	2499.000785
357.447408	2502.426249
357.836672	2498.816782
358.225873	2502.050683
358.615010	2502.879952
359.004084	2502.796773
359.393095	2500.858450
359.782043	2504.190653
360.170927	2504.306599
360.559748	2505.546723
360.948505	2506.212155
361.337199	2509.050325
361.725830	2506.194511
362.114398	2508.631909
362.502903	2505.556805
362.891344	2509.128463
363.279722	2508.362207
363.668037	2510.880264
364.056289	2507.298524
364.444478	2510.907990
364.832603	2509.297341
365.220665	2510.615603
365.608665	2510.262722
365.996601	2510.870181
366.384474	2509.418329
366.772284	2510.660973
367.160031	2510.822290
367.547715	2513.315141
367.935336	2510.769358
368.322893	2512.092661
368.710388	2507.885818
369.097820	2512.395130
369.485189	2509.052845
369.872495	2513.257168
370.259738	2514.565347
370.646918	2516.856552
371.034035	2511.558299
371.421090	2518.086593
371.808081	2513.859586
372.195010	2513.468896
372.581875	2514.809843
372.968678	2518.610873
373.355418	2516.080214
373.742096	2517.834535
374.128710	2515.843280
374.515262	2517.521984
374.901751	2516.380163
375.288177	2521.489372
375.674540	2518.315966
376.060841	2517.930317
376.447079	2516.193640
376.833254	2518.076511
377.219367	2520.597088
377.605417	2518.694052
377.991404	2517.048115
378.377329	2520.221522
378.763191	2519.949299
379.148991	2520.738240
379.534727	2520.894516
379.920402	2520.342509
380.306013	2520.513909
380.691563	2520.032478
381.077049	2521.348220
381.462474	2523.231091
381.847835	2522.351409
382.233134	2521.010462
382.618371	2523.465504
383.003545	2520.022396
383.388657	2519.813188
383.773706	2522.351409
384.158693	2521.839732
384.543618	2527.858870
384.928480	2522.101872
385.313280	2523.740247
385.698017	2523.500792
386.082692	2521.917870
386.467305	2523.757891
386.851856	2525.837367
387.236344	2525.829805
387.620770	2522.210257
388.005133	2518.295801
388.389435	2523.405010
388.773674	2521.431399
389.157851	2527.019518
389.541965	2523.901564
389.926018	2526.530526
390.310008	2524.297295
390.693936	2524.992974
391.077802	2528.015146
391.461606	2524.826616
391.845348	2527.652183
392.229027	2529.585465
392.612645	2528.065557
392.996200	2528.078160
393.379694	2528.055475
393.763125	2525.855011
394.146494	2527.203520
394.529801	2528.015146
394.913047	2529.013294
395.296230	2530.147554
395.679351	2527.190917
396.062410	2528.809127
396.445408	2528.829292
396.828343	2529.293078
397.211217	2532.496731
397.594028	2529.104035
397.976778	2530.646628
398.359466	2527.954652
398.742092	2528.909950
399.124656	2531.140661
399.507158	2528.373068
399.889598	2534.404808
400.271977	2530.419776
400.654294	2529.981196
401.036549	2530.843233
401.418742	2530.863398
401.800874	2530.606299
402.182944	2530.959179
402.564952	2529.330887
402.946898	2533.603265
403.328783	2532.219468
403.710606	2532.544622
404.092367	2533.424304
404.474067	2532.375744
404.855705	2534.220806
405.237282	2531.904396
405.618797	2531.407842
406.000250	2533.661238
406.381642	2530.545805
406.762972	2530.528161
407.144240	2527.989940
407.525447	2531.233922
407.906593	2529.913140
408.287677	2532.186700
408.668700	2532.050589
409.049661	2535.307175
409.430560	2534.044366
409.811399	2533.638553
410.192176	2535.569315
410.572891	2536.164171
410.953545	2533.497400
411.334138	2532.874818
411.714669	2535.055117
412.095139	2536.146527
412.475547	2534.760209
412.855894	2534.913965
413.236180	2535.949922
413.616405	2535.440765
413.996568	2535.740714
414.376670	2536.179294
414.756711	2538.808256
415.136691	2536.756506
415.516609	2536.849768
415.896466	2539.786240
416.276262	2536.678368
416.655997	2537.527803
417.035670	2536.063348
417.415283	2540.025695
417.794834	2538.999820
418.174324	2536.224665
418.553753	2539.476209
418.933121	2539.282124
419.312428	2537.989068
419.691674	2536.685930
420.070859	2537.595858
420.449983	2539.423277
420.829045	2537.737011
421.208047	2539.748431
421.586988	2536.759027
421.965867	2540.434028
422.344686	2541.190201
422.723444	2538.097453
423.102141	2535.786084
423.480777	2540.764224
423.859352	2540.585263
424.237866	2537.868081
424.616319	2539.579553
424.994712	2541.923689
425.373044	2540.764224
425.751314	2538.881353
426.129524	2536.995961
426.507673	2536.834644
426.885762	2535.181146
427.263789	2538.679707
427.641756	2540.625592
428.019662	2542.916796
428.397508	2542.780685
428.775292	2541.469985
429.153016	2543.239430
429.530679	2541.714481
429.908282	2541.157434
430.285824	2544.406457
430.663305	2539.158616
431.040726	2543.194060
431.418086	2543.529297
431.795385	2541.722043
432.172624	2540.492001
432.549802	2543.005017
432.926920	2543.060469
433.303977	2542.110212
433.680974	2541.676673
434.057910	2542.654656
434.434786	2543.975439
434.811601	2542.543751
435.188355	2541.588452
435.565050	2540.373534
435.941683	2546.120450
436.318257	2545.165151
436.694770	2544.469472
437.071222	2540.723894
437.447614	2541.911086
437.823946	2542.246323
438.200218	2544.915614
438.576429	2544.686241
438.952580	2543.746066
439.328670	2542.057280
439.704700	2546.528783
440.080670	2546.531304
440.456580	2546.664894
440.832429	2545.812939
441.208218	2543.960315
441.583947	2544.134235
441.959616	2544.933258
442.335224	2545.936447
442.710773	2546.987528
443.086261	2544.214893
443.461689	2544.383772
443.837057	2546.662374
444.212365	2546.455686
444.587612	2544.706406
444.962800	2543.390665
445.337927	2544.358566
445.712995	2539.403112
446.088002	2545.611293
446.462949	2545.896118
446.837837	2545.412168
447.212664	2545.714637
447.587431	2545.510470
447.962139	2548.320913
448.336786	2548.149514
448.711374	2543.549461
449.085901	2548.767055
449.460369	2545.812939
449.834776	2546.589277
450.209124	2541.863195
450.583412	2547.899977
450.957640	2548.560368
451.331808	2548.300749
451.705917	2545.087013
452.079965	2548.426777
452.453954	2544.908052
452.827883	2546.725388
453.201752	2547.537014
453.575562	2546.795964
453.949311	2547.451314
454.323001	2547.111036
454.696632	2546.690100
455.070202	2547.935265
455.443713	2547.569781
455.817164	2549.485420
456.190556	2549.034237
456.563888	2550.032385
456.937160	2547.214380
457.310373	2549.228321
457.683526	2548.608259
458.056619	2549.266130
458.429653	2551.315359
458.802628	2550.284443
459.175542	2550.496171
459.548398	2549.573640
459.921194	2548.449463
460.293930	2550.508774
460.666607	2546.226314
461.039224	2549.225800
461.411782	2546.959802
461.784280	2550.191181
462.156719	2548.056253
462.529099	2548.981304
462.901419	2546.690100
463.273680	2549.457693
463.645882	2543.665408
464.018024	2548.184802
464.390106	2547.582384
464.762130	2550.055070
465.134094	2549.384597
465.505999	2549.374514
465.877845	2548.361243
466.249631	2548.141952
466.621358	2552.048847
466.993026	2551.295194
467.364634	2552.094217
467.736184	2551.360729
468.107674	2549.467776
468.479105	2549.924000
468.850477	2550.536500
469.221790	2549.775286
469.593043	2548.363763
469.964238	2551.093548
470.335373	2550.899463
470.706449	2550.158414
471.077467	2549.349309
471.448425	2551.872406
471.819324	2549.671943
472.190164	2548.552806
472.560945	2549.619010
472.931667	2552.600853
473.302330	2548.449463
473.672934	2551.078424
474.043479	2553.314176
474.413965	2549.823177
474.784393	2554.093034
475.154761	2550.586912
475.525070	2551.141439
475.895321	2553.125133
476.265513	2550.337375
476.635645	2551.945503
477.005719	2553.009186
477.375734	2550.657488
477.745691	2552.968857
478.115588	2553.115051
478.485427	2553.490617
478.855207	2551.650595
479.224928	2552.603373
479.594591	2551.317879
479.964194	2552.288301
480.333739	2549.472817
480.703226	2552.946172
481.072653	2554.992880
481.442022	2552.701676
481.811333	2550.952396
482.180584	2550.100441
482.549777	2552.212684
482.918912	2548.172199
483.287988	2555.865000
483.657005	2550.927190
484.025964	2553.707386
484.394864	2552.489947
484.763706	2553.573796
485.132489	2552.774773
485.501213	2551.885009
485.869879	2554.851728
486.238487	2552.537838
486.607036	2553.974567
486.975527	2555.383570
487.343959	2554.551779
487.712333	2553.979608
488.080648	2555.539846
488.448905	2552.936090
488.817104	2553.667057
489.185244	2553.397355
489.553326	2552.555482
489.921350	2556.361554
490.289315	2553.301573
490.657222	2556.989177
491.025070	2551.411141
491.392861	2554.864331
491.760593	2553.258723
492.128267	2554.786193
492.495883	2556.497665
492.863440	2551.065822
493.230939	2551.811912
493.598380	2554.786193
493.965763	2553.261244
494.333088	2555.204609
494.700354	2553.372149
495.067563	2555.197047
495.434713	2553.523384
495.801805	2553.465411
496.168839	2555.844835
496.535815	2556.391801
496.902733	2555.381049
497.269593	2556.454815
497.636395	2551.214536
498.003139	2554.607232
498.369825	2554.559341
498.736453	2553.745195
499.103023	2552.588250
499.469535	2557.871379
499.835989	2553.541028
500.202385	2550.246634
500.568723	2549.881150
500.935003	2553.072201
501.301226	2551.459032
501.667390	2555.776780
502.033497	2553.291491
502.399546	2553.571275
502.765537	2555.192006
503.131470	2554.151008
503.497345	2557.359702
503.863163	2558.957748
504.228923	2555.076059
504.594625	2554.710576
504.960269	2555.648230
505.325856	2553.979608
505.691385	2552.678991
506.056856	2554.350133
506.422270	2554.831563
506.787625	2556.051523
507.152924	2557.067315
507.518164	2555.391132
507.883347	2554.748384
508.248472	2555.766697
508.613540	2556.308622
508.978550	2556.041440
509.343503	2553.387273
509.708398	2557.052192
510.073236	2555.005483
510.438016	2556.142263
510.802738	2556.202757
511.167403	2559.809703
511.532010	2554.435833
511.896561	2554.720658
512.261053	2552.898281
512.625488	2552.384083
512.989866	2555.444064
513.354186	2557.168138
513.718449	2556.555638
514.082655	2556.200237
514.446803	2556.898437
514.810894	2556.384239
515.174927	2558.587223
515.538904	2556.676626
515.902822	2557.379867
516.266684	2556.611091
516.630488	2556.293498
516.994235	2552.893240
517.357925	2559.106462
517.721558	2560.349106
518.085133	2558.650238
518.448651	2555.575134
518.812112	2550.135729
519.175516	2554.887016
519.538863	2553.271326
519.902152	2557.019424
520.265385	2558.078067
520.628560	2559.156873
520.991678	2555.837274
521.354739	2554.629917
521.717743	2556.669064
522.080690	2556.122099
522.443580	2556.432130
522.806413	2558.975392
523.169189	2556.507747
523.531908	2555.663354
523.894569	2555.060936
524.257174	2555.083621
524.619722	2555.199568
524.982213	2559.121585
525.344647	2555.804506
525.707025	2557.581513
526.069345	2559.494631
526.431608	2558.539332
526.793815	2556.711914
527.155964	2557.384908
527.518057	2556.359033
527.880093	2558.307439
528.242072	2555.769218
528.603995	2556.714434
528.965860	2557.349620
529.327669	2555.063457
529.689421	2556.830381
530.051117	2556.331307
530.412755	2557.929352
530.774337	2557.299208
531.135862	2554.093034
531.497331	2554.148487
531.858743	2556.477500
532.220098	2556.840463
532.581396	2557.175700
532.942638	2559.315670
533.303824	2557.100083
533.664953	2557.440361
534.026025	2555.154197
534.387040	2556.427089
534.747999	2556.235525
535.108902	2557.526060
535.469748	2554.808878
535.830537	2557.873900
536.191270	2557.389949
536.551947	2555.045812
536.912567	2556.016235
537.273131	2552.275698
537.633638	2552.038764
537.994089	2557.851215
538.354483	2556.023796
538.714821	2560.250804
539.075103	2556.298539
539.435328	2555.617983
539.795497	2557.639486
540.155609	2556.429609
540.515665	2558.473797
540.875665	2556.631255
541.235609	2557.077398
541.595496	2557.394990
541.955328	2558.882131
542.315102	2557.248797
542.674821	2558.909857
543.034483	2560.283571
543.394090	2556.248128
543.753640	2557.654610
544.113134	2557.982285
544.472571	2555.643189
544.831953	2559.965979
545.191278	2557.742830
545.550548	2557.284085
545.909761	2557.871379
546.268918	2556.800134
546.628019	2559.610577
546.987064	2560.407080
547.346053	2561.382543
547.704986	2558.723334
548.063863	2558.985474
548.422684	2556.527912
548.781449	2557.180741
549.140158	2558.418344
549.498811	2558.753581
549.857408	2559.703839
550.215949	2559.484548
550.574434	2558.100752
550.932864	2557.291647
551.291237	2559.073694
551.649555	2558.012532
552.007817	2558.625032
552.366022	2557.226112
552.724173	2559.310629
553.082267	2556.497665
553.440305	2557.853735
553.798288	2558.166287
554.156215	2557.810885
554.514086	2557.243756
554.871902	2552.825184
555.229661	2554.151008
555.587365	2552.391645
555.945014	2558.012532
556.302606	2559.781977
556.660143	2557.452963
557.017625	2556.235525
557.375050	2558.085628
557.732421	2557.168138
558.089735	2558.927501
558.446994	2557.662171
558.804197	2558.388097
559.161345	2556.779969
559.518437	2559.325752
559.875474	2561.503531
560.232455	2558.902295
560.589381	2556.674105
560.946251	2556.721996
561.303065	2559.451781
561.659825	2557.458005
562.016528	2559.482028
562.373177	2555.370967
562.729770	2558.514126
563.086307	2559.010680
563.442789	2557.107644
563.799216	2559.812223
564.155587	2559.292985
564.511904	2559.524878
564.868164	2557.137891
565.224370	2559.517316
565.580520	2558.735937
565.936615	2560.694425
566.292654	2558.325083
566.648638	2557.689898
567.004567	2557.150494
567.360441	2559.943293
567.716260	2557.236194
568.072023	2557.397511
568.427732	2558.521688
568.783385	2559.658468
569.138982	2557.367264
569.494525	2558.892213
569.850013	2559.300546
570.205445	2558.004970
570.560823	2557.798283
570.916145	2559.895402
571.271412	2559.451781
571.626625	2560.485217
571.981782	2560.754919
572.336884	2556.865669
572.691931	2555.348282
573.046923	2557.001780
573.401860	2552.716799
573.756743	2557.284085
574.111570	2558.277192
574.466342	2559.169476
574.821059	2560.054199
575.175722	2555.839794
575.530330	2560.321380
575.884882	2558.824157
576.239380	2557.972202
576.593823	2559.829868
576.948211	2558.108313
577.302544	2560.137378
577.656823	2558.289795
578.011047	2563.832544
578.365216	2555.486913
578.719330	2557.715103
579.073389	2560.482697
579.427394	2558.965310
579.781344	2558.594785
580.135239	2559.635783
580.489080	2559.716442
580.842866	2559.270299
581.196597	2564.999571
581.550273	2558.728375
581.903895	2559.650907
582.257463	2558.829198
582.610975	2561.296843
582.964434	2560.626370
583.317837	2558.957748
583.671186	2558.935063
584.024481	2561.390105
584.377721	2559.628221
584.730906	2557.659651
585.084037	2560.167625
585.437113	2559.411452
585.790135	2560.127296
586.143103	2561.745506
586.496016	2561.984961
586.848874	2559.925649
587.201679	2560.034034
587.554428	2561.962276
587.907124	2559.751730
588.259765	2561.979920
588.612352	2562.161401
588.964884	2560.099569
589.317362	2560.956565
589.669786	2557.546225
590.022155	2556.157387
590.374470	2555.726368
590.726731	2558.836760
591.078937	2552.757129
591.431090	2559.295505
591.783188	2558.231822
592.135232	2557.866338
592.487222	2559.343396
592.839157	2561.019580
593.191038	2558.834240
593.542866	2558.993036
593.894639	2559.348437
594.246358	2562.148798
594.598022	2562.080743
594.949633	2561.432954
595.301190	2556.865669
595.652692	2557.838612
596.004141	2558.612429
596.355535	2559.245094
596.706876	2561.329611
597.058162	2558.330124
597.409395	2560.177707
597.760573	2558.415824
598.111698	2560.964127
598.462768	2557.417675
598.813785	2561.140568
599.164748	2559.792059
599.515657	2558.481359
599.866511	2560.313818
600.217312	2560.283571
600.568060	2557.100083
600.918753	2562.993192
601.269392	2559.209806
601.619978	2556.643858
601.970510	2558.670402
602.320988	2558.055381
602.671412	2559.224929
603.021783	2560.417162
603.372100	2559.658468
603.722363	2558.614949
604.072572	2559.892882
604.422728	2559.048489
604.772830	2561.813562
605.122878	2559.257697
605.472872	2559.756771
605.822813	2559.149312
606.172701	2559.895403
606.522534	2561.402707
606.872314	2561.322049
607.222041	2559.187120
607.571714	2555.638148
607.921333	2556.699311
608.270899	2557.458005
608.620411	2556.769887
608.969870	2563.920764
609.319276	2564.256001
609.668627	2566.821948
610.017926	2572.284038
610.367171	2574.169430
610.716362	2572.604151
611.065500	2570.423852
611.414585	2565.957390
611.763616	2567.933522
612.112594	2562.519323
612.461518	2563.903120
612.810389	2564.303892
613.159207	2563.706515
613.507971	2562.703325
613.856682	2561.443037
614.205340	2560.555794
614.553945	2560.291133
614.902496	2558.806513
615.250994	2557.248797
615.599439	2559.605536
615.947830	2562.710887
616.296169	2557.208467
616.644454	2560.046637
616.992686	2558.710731
617.340864	2559.781977
617.688990	2561.687533
618.037063	2560.268448
618.385082	2559.252655
618.733048	2558.637635
619.080961	2560.119734
619.428821	2559.794579
619.776628	2558.844322
620.124382	2560.288613
620.472083	2561.233829
620.819731	2561.236349
621.167326	2558.960268
621.514868	2562.365568
621.862357	2562.226936
622.209793	2561.417831
622.557176	2561.773232
622.904506	2560.316339
623.251783	2559.872717
623.599007	2558.282233
623.946179	2559.706359
624.293297	2559.381205
624.640363	2559.759291
624.987376	2556.280895
625.334336	2556.003632
625.681243	2556.369115
626.028097	2558.052861
626.374899	2560.891030
626.721647	2561.654765
627.068343	2558.130999
627.414987	2561.324570
627.761577	2561.448078
628.108115	2559.703839
628.454600	2559.608057
628.801032	2559.320711
629.147412	2562.632749
629.493739	2562.718449
629.840014	2561.064950
630.186236	2561.090156
630.532405	2561.556463
630.878521	2558.942624
631.224585	2558.887172
631.570597	2557.447922
631.916556	2558.257027
632.262462	2559.116544
632.608316	2560.152501
632.954117	2559.449260
633.299866	2556.296019
633.645562	2557.505896
633.991206	2555.675957
634.336797	2560.303736
634.682336	2556.840463
635.027823	2560.608726
635.373257	2559.227450
635.718639	2557.074877
636.063968	2559.376164
636.409245	2556.868190
636.754470	2560.326421
637.099642	2558.869528
637.444762	2559.368602
637.789829	2555.935576
638.134845	2560.565876
638.479808	2557.468087
638.824719	2559.595454
639.169577	2560.533108
639.514383	2560.185269
639.859137	2557.914229
640.203839	2559.083777
640.548489	2556.991698
640.893086	2559.048489
641.237632	2557.205947
641.582125	2557.858776
641.926566	2561.354817
642.270955	2555.728889
642.615292	2553.931717
642.959576	2555.207129
643.303809	2554.682849
643.647990	2559.078736
643.992118	2558.869528
644.336195	2556.157387
