Dividing Wavelength (nm)	Counts (n)	Blue Motor Position (mm): 19.500000	Red Motor Position (mm): 0.000000	
326.493990	2185.226766
326.888308	2185.226766
327.282561	2185.226766
327.676750	2142.805457
328.070874	2141.053656
328.464933	2142.858389
328.858929	2141.648512
329.252859	2150.294091
329.646726	2156.315749
330.040528	2171.439211
330.434265	2183.253155
330.827938	2202.560774
331.221547	2217.709441
331.615091	2232.873232
332.008571	2251.651530
332.401986	2271.543923
332.795338	2290.584361
333.188625	2311.484985
333.581847	2327.742706
333.975006	2347.753566
334.368100	2364.974148
334.761129	2383.369318
335.154095	2403.072668
335.546996	2422.259300
335.939833	2454.515123
336.332606	2466.606330
336.725315	2485.482931
337.117960	2495.098932
337.510540	2509.136024
337.903056	2519.362005
338.295508	2527.742923
338.687896	2534.987061
339.080220	2541.618699
339.472480	2553.523384
339.864676	2553.992211
340.256807	2560.512944
340.648875	2563.078891
341.040879	2564.883624
341.432818	2570.544840
341.824694	2572.566343
342.216506	2571.477453
342.608253	2574.867629
342.999937	2575.790161
343.391557	2575.124728
343.783113	2574.192115
344.174605	2573.163719
344.566033	2570.161712
344.957397	2570.781774
345.348697	2568.430076
345.739934	2565.975034
346.131106	2567.925961
346.522215	2566.988306
346.913260	2563.792214
347.304241	2557.674774
347.695159	2560.487738
348.086012	2557.216029
348.476802	2555.809547
348.867528	2550.249155
349.258191	2548.255378
349.648789	2546.254040
350.039324	2544.729091
350.429796	2548.681356
350.820203	2545.152548
351.210548	2542.694986
351.600828	2543.919986
351.991045	2543.173895
352.381198	2541.185160
352.771288	2543.675490
353.161314	2540.829759
353.551276	2539.226672
353.941175	2538.341949
354.331010	2537.986548
354.720782	2539.312371
355.110490	2538.780530
355.500135	2537.021167
355.889717	2539.267001
356.279235	2540.184491
356.668689	2538.868750
357.058080	2539.032587
357.447408	2538.241126
357.836672	2542.054759
358.225873	2538.309182
358.615010	2539.793802
359.004084	2541.802701
359.393095	2538.490663
359.782043	2543.834286
360.170927	2544.318237
360.559748	2540.557536
360.948505	2544.837476
361.337199	2545.003834
361.725830	2545.046684
362.114398	2545.124822
362.502903	2541.623740
362.891344	2546.296890
363.279722	2546.548948
363.668037	2546.453166
364.056289	2546.067518
364.444478	2550.173537
364.832603	2549.843342
365.220665	2547.161448
365.608665	2549.061963
365.996601	2550.901984
366.384474	2550.859134
366.772284	2550.155893
367.160031	2550.768393
367.547715	2551.595143
367.935336	2552.936090
368.322893	2551.128836
368.710388	2549.165307
369.097820	2549.987015
369.485189	2545.500388
369.872495	2553.646892
370.259738	2552.525236
370.646918	2554.745864
371.034035	2551.441388
371.421090	2551.741336
371.808081	2552.762170
372.195010	2554.599670
372.581875	2555.781821
372.968678	2555.633107
373.355418	2553.694783
373.742096	2554.675288
374.128710	2555.368446
374.515262	2557.311811
374.901751	2555.237376
375.288177	2557.730227
375.674540	2557.420196
376.060841	2557.876420
376.447079	2557.707542
376.833254	2558.141081
377.219367	2558.123437
377.605417	2556.273333
377.991404	2558.136040
378.377329	2558.562017
378.763191	2559.401369
379.148991	2559.025803
379.534727	2559.638304
379.920402	2560.580999
380.306013	2560.197872
380.691563	2561.513613
381.077049	2560.076884
381.462474	2557.379867
381.847835	2560.177707
382.233134	2561.644683
382.618371	2562.400856
383.003545	2559.860114
383.388657	2562.294992
383.773706	2562.940259
384.158693	2561.100238
384.543618	2560.838098
384.928480	2563.530074
385.313280	2562.902451
385.698017	2563.023438
386.082692	2560.833057
386.467305	2560.744837
386.851856	2563.598130
387.236344	2563.686350
387.620770	2561.049827
388.005133	2560.742316
388.389435	2560.185269
388.773674	2558.710731
389.157851	2566.103583
389.541965	2566.033007
389.926018	2566.164077
390.310008	2565.750703
390.693936	2564.268603
391.077802	2567.358831
391.461606	2566.552246
391.845348	2568.735066
392.229027	2565.453275
392.612645	2566.153995
392.996200	2566.305230
393.379694	2567.237843
393.763125	2567.739438
394.146494	2567.321022
394.529801	2567.540312
394.913047	2566.612740
395.296230	2567.157185
395.679351	2568.099880
396.062410	2569.539130
396.445408	2568.631722
396.828343	2567.628532
397.211217	2571.482495
397.594028	2567.663821
397.976778	2568.483008
398.359466	2570.421332
398.742092	2569.455951
399.124656	2569.647515
399.507158	2570.852350
399.889598	2573.483833
400.271977	2569.017370
400.654294	2571.467371
401.036549	2571.558112
401.418742	2570.716239
401.800874	2573.715726
402.182944	2570.955694
402.564952	2571.560632
402.946898	2571.492577
403.328783	2571.560632
403.710606	2571.424521
404.092367	2573.952660
404.474067	2571.474933
404.855705	2573.425859
405.237282	2571.127093
405.618797	2574.106415
406.000250	2573.836713
406.381642	2577.141190
406.762972	2576.168247
407.144240	2571.369069
407.525447	2573.020047
407.906593	2570.174315
408.287677	2576.392578
408.668700	2574.945767
409.049661	2575.817887
409.430560	2576.679924
409.811399	2580.440625
410.192176	2576.412743
410.572891	2576.763103
410.953545	2575.033987
411.334138	2575.938875
411.714669	2578.101530
412.095139	2576.911817
412.475547	2579.649164
412.855894	2577.592373
413.236180	2577.683114
413.616405	2578.507343
413.996568	2576.523648
414.376670	2579.394586
414.756711	2578.943402
415.136691	2578.177147
415.516609	2576.909297
415.896466	2578.658577
416.276262	2577.930130
416.655997	2579.828125
417.035670	2579.205542
417.415283	2581.053125
417.794834	2579.689493
418.174324	2579.855851
418.553753	2579.538258
418.933121	2581.637899
419.312428	2579.485326
419.691674	2579.311407
420.070859	2579.303845
420.449983	2581.219483
420.829045	2582.668815
421.208047	2583.641758
421.586988	2580.833835
421.965867	2584.163517
422.344686	2583.611511
422.723444	2583.125039
423.102141	2579.394586
423.480777	2579.901222
423.859352	2583.974474
424.237866	2584.859196
424.616319	2581.867272
424.994712	2585.723754
425.373044	2583.714854
425.751314	2581.809298
426.129524	2579.429874
426.507673	2578.595563
426.885762	2577.594894
427.263789	2584.410534
427.641756	2583.341809
428.019662	2582.754515
428.397508	2584.166038
428.775292	2585.547314
429.153016	2584.871799
429.530679	2583.790472
429.908282	2585.297777
430.285824	2584.082859
430.663305	2581.549679
431.040726	2587.137798
431.418086	2586.116964
431.795385	2585.486820
432.172624	2586.815164
432.549802	2583.324165
432.926920	2585.335585
433.303977	2587.357088
433.680974	2584.816347
434.057910	2584.818867
434.434786	2586.270719
434.811601	2586.411872
435.188355	2588.607294
435.565050	2586.132088
435.941683	2584.718044
436.318257	2587.425144
436.694770	2590.333889
437.071222	2588.282140
437.447614	2585.038157
437.823946	2587.631831
438.200218	2587.273909
438.576429	2594.281113
438.952580	2586.668971
439.328670	2589.035792
439.704700	2587.767942
440.080670	2587.649475
440.456580	2589.338262
440.832429	2591.732810
441.208218	2591.087542
441.583947	2588.473704
441.959616	2591.077460
442.335224	2587.934300
442.710773	2588.882037
443.086261	2592.496544
443.461689	2590.661564
443.837057	2590.379260
444.212365	2591.369847
444.587612	2588.483786
444.962800	2586.835329
445.337927	2590.754826
445.712995	2589.219794
446.088002	2589.580237
446.462949	2592.075608
446.837837	2590.217943
447.212664	2593.789600
447.587431	2592.299939
447.962139	2593.290526
448.336786	2598.188007
448.711374	2596.053078
449.085901	2593.237594
449.460369	2592.811617
449.834776	2594.523088
450.209124	2593.487131
450.583412	2596.771443
450.957640	2597.449478
451.331808	2596.131216
451.705917	2596.032914
452.079965	2594.646597
452.453954	2598.550970
452.827883	2594.288675
453.201752	2598.356886
453.575562	2596.864704
453.949311	2594.298757
454.323001	2598.626588
454.696632	2598.775302
455.070202	2597.641042
455.443713	2595.876638
455.817164	2598.344283
456.190556	2599.302102
456.563888	2600.300251
456.937160	2598.762699
457.310373	2600.572473
457.683526	2598.873604
458.056619	2595.470825
458.429653	2600.527102
458.802628	2599.075250
459.175542	2596.751278
459.548398	2601.187494
459.921194	2599.014756
460.293930	2601.744541
460.666607	2601.537854
461.039224	2603.559357
461.411782	2603.488780
461.784280	2606.263936
462.156719	2605.963987
462.529099	2606.289141
462.901419	2603.438369
463.273680	2602.561208
463.645882	2600.098604
464.018024	2603.461054
464.390106	2600.829572
464.762130	2604.474326
465.134094	2607.768720
465.505999	2609.049173
465.877845	2612.099071
466.249631	2616.056377
466.621358	2615.552262
466.993026	2613.591253
467.364634	2618.713065
467.736184	2614.891870
468.107674	2609.659153
468.479105	2613.392127
468.850477	2611.899946
469.221790	2612.797271
469.593043	2610.390120
469.964238	2611.637806
470.335373	2611.589915
470.706449	2613.684514
471.077467	2610.921962
471.448425	2612.482199
471.819324	2616.747015
472.190164	2623.761781
472.560945	2617.016717
472.931667	2613.258537
473.302330	2614.254164
473.672934	2615.539659
474.043479	2614.244082
474.413965	2615.476644
474.784393	2613.732405
475.154761	2617.982098
475.525070	2617.871192
475.895321	2619.378497
476.265513	2617.281377
476.635645	2620.893364
477.005719	2620.374125
477.375734	2624.366719
477.745691	2624.623818
478.115588	2626.788993
478.485427	2626.796555
478.855207	2629.175980
479.224928	2628.457615
479.594591	2636.276445
479.964194	2638.174439
480.333739	2639.038997
480.703226	2639.112094
481.072653	2640.505973
481.442022	2640.465644
481.811333	2645.002682
482.180584	2642.777013
482.549777	2642.025881
482.918912	2644.163330
483.287988	2647.571150
483.657005	2650.089207
484.025964	2650.124495
484.394864	2651.813281
484.763706	2652.183806
485.132489	2655.097593
485.501213	2659.538849
485.869879	2659.163283
486.238487	2660.305105
486.607036	2663.377688
486.975527	2663.619663
487.343959	2668.247443
487.712333	2668.265087
488.080648	2674.145593
488.448905	2678.193639
488.817104	2678.508711
489.185244	2688.333920
489.553326	2688.780062
489.921350	2700.321784
490.289315	2716.796275
490.657222	2731.783625
491.025070	2741.755027
491.392861	2747.227200
491.760593	2750.879516
492.128267	2751.171903
492.495883	2752.215422
492.863440	2756.202974
493.230939	2758.032913
493.598380	2774.139400
493.965763	2777.849689
494.333088	2783.342026
494.700354	2797.167391
495.067563	2809.465285
495.434713	2818.602377
495.801805	2838.066272
496.168839	2847.788137
496.535815	2859.967565
496.902733	2882.279712
497.269593	2901.413411
497.636395	2918.465114
498.003139	2944.033846
498.369825	2959.595888
498.736453	2985.686380
499.103023	3010.405678
499.469535	3033.698329
499.835989	3063.912485
500.202385	3093.398193
500.568723	3111.569032
500.935003	3152.127636
501.301226	3175.074968
501.667390	3236.808938
502.033497	3288.304325
502.399546	3310.487922
502.765537	3339.774505
503.131470	3394.206364
503.497345	3443.110598
503.863163	3466.756130
504.228923	3540.135165
504.594625	3600.747478
504.960269	3625.383597
505.325856	3710.140517
505.691385	3747.457658
506.056856	3824.783917
506.422270	3892.998290
506.787625	3928.649330
507.152924	4030.634393
507.518164	4087.733022
507.883347	4136.657420
508.248472	4183.421684
508.613540	4319.099298
508.978550	4398.346237
509.343503	4473.625787
509.708398	4575.631015
510.073236	4663.354653
510.438016	4765.203605
510.802738	4835.424358
511.167403	4941.195327
511.532010	5001.338813
511.896561	5182.467471
512.261053	5293.758504
512.625488	5356.972052
512.989866	5442.170073
513.354186	5513.346124
513.718449	5653.933823
514.082655	5787.882321
514.446803	5882.759357
514.810894	6055.809566
515.174927	6087.999854
515.538904	6200.074786
515.902822	6387.610750
516.266684	6496.842472
516.630488	6576.495223
516.994235	6698.168512
517.357925	6868.914914
517.721558	7041.012344
518.085133	7184.032400
518.448651	7296.714791
518.812112	7391.372537
519.175516	7542.471041
519.538863	7736.878098
519.902152	7811.338461
520.265385	8032.166205
520.628560	8120.033517
520.991678	8272.793081
521.354739	8438.342053
521.717743	8608.584339
522.080690	8691.907050
522.443580	8948.282491
522.806413	9066.061488
523.169189	9281.744735
523.531908	9406.072192
523.894569	9491.950768
524.257174	9667.148508
524.619722	9878.420746
524.982213	9928.736502
525.344647	10137.069747
525.707025	10305.968565
526.069345	10490.048818
526.431608	10648.855247
526.793815	10881.633046
527.155964	10816.710546
527.518057	11060.679707
527.880093	11205.716224
528.242072	11393.968032
528.603995	11462.895729
528.965860	11556.333515
529.327669	11794.853189
529.689421	11910.812330
530.051117	12001.452276
530.412755	12277.097528
530.774337	12316.458857
531.135862	12450.220833
531.497331	12695.467926
531.858743	12659.826969
532.220098	13089.348400
532.581396	13033.880584
532.942638	13257.649842
533.303824	13412.972833
533.664953	13589.451026
534.026025	13618.162918
534.387040	13859.359444
534.747999	14108.127783
535.108902	14303.563236
535.469748	14229.027256
535.830537	14499.530530
536.191270	14685.717985
536.551947	14836.219113
536.912567	14763.805458
537.273131	15086.784624
537.633638	15070.166460
537.994089	15381.729932
538.354483	15257.704945
538.714821	15704.182297
539.075103	15914.872281
539.435328	15933.181752
539.795497	15809.612988
540.155609	16215.224227
540.515665	16534.611570
540.875665	16214.974690
541.235609	16517.413674
541.595496	16693.725509
541.955328	17044.010084
542.315102	17122.740304
542.674821	17014.426072
543.034483	17068.000935
543.394090	17276.402235
543.753640	17284.642001
544.113134	17862.345629
544.472571	17750.648783
544.831953	18120.092263
545.191278	17940.536446
545.550548	18071.031754
545.909761	18293.182801
546.268918	18631.716447
546.628019	18715.500423
546.987064	18693.158030
547.346053	18630.867012
547.704986	18824.681733
548.063863	19090.315253
548.422684	19152.669285
548.781449	18986.061671
549.140158	19384.232166
549.498811	19218.093380
549.857408	19086.683102
550.215949	19558.966120
550.574434	19403.872502
550.932864	19688.599392
551.291237	19894.049096
551.649555	19923.285268
552.007817	20063.081505
552.366022	20068.072247
552.724173	20187.638334
553.082267	20250.821636
553.440305	20731.062116
553.798288	20218.729651
554.156215	20753.555744
554.514086	20914.983573
554.871902	20465.133689
555.229661	20797.489400
555.587365	20789.194182
555.945014	20706.549505
556.302606	21045.609951
556.660143	21034.584948
557.017625	21348.452227
557.375050	21039.220289
557.732421	21435.646545
558.089735	21356.079493
558.446994	21482.995582
558.804197	21574.028739
559.161345	21618.985749
559.518437	21422.335378
559.875474	21701.864838
560.232455	21911.846540
560.589381	21850.457889
560.946251	21851.876974
561.303065	22223.798181
561.659825	22356.703161
562.016528	22058.723078
562.373177	21895.994632
562.729770	22254.594590
563.086307	22215.387016
563.442789	22425.630858
563.799216	22306.576448
564.155587	22366.036858
564.511904	22397.470973
564.868164	22363.982587
565.224370	22412.508734
565.580520	22356.148634
565.936615	22535.742261
566.292654	22241.890882
566.648638	22608.816306
567.004567	22460.820632
567.360441	22453.541206
567.716260	22223.621741
568.072023	22580.931164
568.427732	22383.224672
568.783385	22208.266386
569.138982	22445.278755
569.494525	22522.773893
569.850013	22315.642963
570.205445	22430.964399
570.560823	22255.711206
570.916145	22070.826888
571.271412	22246.715267
571.626625	22051.264691
571.981782	22173.626098
572.336884	21997.105055
572.691931	22150.187253
573.046923	21913.837796
573.401860	21827.228252
573.756743	21823.550731
574.111570	21765.267430
574.466342	21712.315150
574.821059	21821.960247
575.175722	21543.388606
575.530330	21557.561810
575.884882	21583.846386
576.239380	21503.366885
576.593823	21421.430491
576.948211	21414.685427
577.302544	21255.621900
577.656823	21158.362919
578.011047	21255.266499
578.365216	21148.701548
578.719330	21025.152949
579.073389	20947.385589
579.427394	21103.588262
579.781344	20894.307280
580.135239	20787.886002
580.489080	20765.646952
580.842866	20536.322343
581.196597	20728.765870
581.550273	20716.914118
581.903895	20617.132039
582.257463	20930.165008
582.610975	20459.162442
582.964434	20771.713981
583.317837	20503.295223
583.671186	20599.535892
584.024481	20554.175589
584.377721	20341.680872
584.730906	20381.223683
585.084037	20436.371386
585.437113	20325.518933
585.790135	20530.761950
586.143103	20017.244814
586.496016	20033.749551
586.848874	20275.876171
587.201679	20227.912112
587.554428	19876.732733
587.907124	20216.884588
588.259765	20002.837196
588.612352	20075.001313
588.964884	19652.345934
589.317362	19840.156641
589.669786	19875.066631
590.022155	19953.063363
590.374470	20107.320151
590.726731	19935.232802
591.078937	19664.119548
591.431090	19776.554923
591.783188	19520.857518
592.135232	19505.444190
592.487222	19597.556153
592.839157	19636.829262
593.191038	19509.809829
593.542866	19404.517769
593.894639	19129.066603
594.246358	19349.811168
594.598022	19262.667262
594.949633	19016.948821
595.301190	18966.877560
595.652692	19132.202200
596.004141	19384.700994
596.355535	18714.461946
596.706876	18722.805055
597.058162	18615.304970
597.409395	18829.604420
597.760573	18930.180481
598.111698	18704.508188
598.462768	18644.042068
598.813785	18604.963043
599.164748	18432.515252
599.515657	18457.794118
599.866511	18251.673940
600.217312	18617.462584
600.568060	18150.084608
600.918753	18457.433676
601.269392	18360.197380
601.619978	18130.416546
601.970510	18349.610957
602.320988	18293.865878
602.671412	18505.180964
603.021783	18392.168377
603.372100	18141.020613
603.722363	18275.024565
604.072572	18207.331951
604.422728	18335.866251
604.772830	18108.958875
605.122878	18051.245225
605.472872	18052.913847
605.822813	18042.294657
606.172701	17995.238006
606.522534	18205.978401
606.872314	18228.845075
607.222041	18056.614054
607.571714	18282.500596
607.921333	18106.355119
608.270899	18177.949586
608.620411	18371.482003
608.969870	18121.818858
609.319276	18132.065004
609.668627	18157.563160
610.017926	18304.913566
610.367171	18416.554959
610.716362	18449.135937
611.065500	18285.341286
611.414585	18407.982477
611.763616	18384.571359
612.112594	18347.521398
612.461518	18309.682498
612.810389	18498.430859
613.159207	18361.583697
613.507971	18257.945136
613.856682	18539.619607
614.205340	18476.398497
614.553945	18619.448799
614.902496	18353.843005
615.250994	18611.045195
615.599439	18534.442342
615.947830	18536.499133
616.296169	18562.859326
616.644454	18545.182520
616.992686	18510.043157
617.340864	18719.162822
617.688990	18488.053644
618.037063	18662.696858
618.385082	18500.800202
618.733048	18789.411301
619.080961	18647.054157
619.428821	18686.118058
619.776628	18584.402697
620.124382	18504.787754
620.472083	18536.458803
620.819731	18564.364111
621.167326	18261.312627
621.514868	18316.505699
621.862357	18059.815187
622.209793	18082.334021
622.557176	17907.156445
622.904506	17737.433398
623.251783	17639.554355
623.599007	17416.803411
623.946179	17357.229575
624.293297	17301.721430
624.640363	17068.908343
624.987376	17081.145744
625.334336	16869.508023
625.681243	16710.525154
626.028097	16715.745269
626.374899	16656.534396
626.721647	16535.302208
627.068343	16357.102461
627.414987	16291.885053
627.761577	16250.678662
628.108115	16314.638301
628.454600	16024.300607
628.801032	16123.376924
629.147412	16050.355811
629.493739	16075.579224
629.840014	15890.354629
630.186236	15985.566902
630.532405	15752.345481
630.878521	15955.100688
631.224585	15834.365054
631.570597	15661.907181
631.916556	15703.950404
632.262462	15679.112639
632.608316	15594.713641
632.954117	15536.906730
633.299866	15532.936821
633.645562	15460.374453
633.991206	15208.168047
634.336797	15073.435648
634.682336	15048.948243
635.027823	14939.708960
635.373257	14828.165870
635.718639	14714.692017
636.063968	14675.676007
636.409245	14431.152319
636.754470	14451.692500
637.099642	14309.844513
637.444762	14065.877873
637.789829	14112.891674
638.134845	13954.488538
638.479808	13978.139111
638.824719	13936.968008
639.169577	13780.392290
639.514383	13837.498480
