Dividing Wavelength (nm)	Counts (n)	Blue Motor Position (mm): 30.200000	Red Motor Position (mm): 0.000000	
326.493990	2132.075361
326.888308	2132.075361
327.282561	2132.075361
327.676750	2099.421287
328.070874	2098.463468
328.464933	2103.456730
328.858929	2107.431680
329.252859	2116.115068
329.646726	2127.329114
330.040528	2139.916876
330.434265	2158.818682
330.827938	2173.927020
331.221547	2192.964938
331.615091	2213.767259
332.008571	2230.279558
332.401986	2253.617580
332.795338	2271.543923
333.188625	2291.970678
333.581847	2307.273101
333.975006	2326.064002
334.368100	2345.318689
334.761129	2362.778725
335.154095	2376.137783
335.546996	2402.248439
335.939833	2422.939855
336.332606	2440.777978
336.725315	2454.283229
337.117960	2461.323201
337.510540	2470.644294
337.903056	2478.591673
338.295508	2492.399394
338.687896	2497.634632
339.080220	2506.496980
339.472480	2512.019564
339.864676	2515.228259
340.256807	2521.822088
340.648875	2523.452901
341.040879	2526.568334
341.432818	2524.539270
341.824694	2530.308871
342.216506	2529.356093
342.608253	2529.247708
342.999937	2533.948584
343.391557	2530.339118
343.783113	2528.370547
344.174605	2524.453570
344.566033	2520.813857
344.957397	2521.653209
345.348697	2520.566841
345.739934	2521.786800
346.131106	2517.847138
346.522215	2519.452746
346.913260	2513.763804
347.304241	2514.033505
347.695159	2512.337157
348.086012	2509.859430
348.476802	2508.079903
348.867528	2504.964470
349.258191	2504.440190
349.648789	2503.555467
350.039324	2503.285765
350.429796	2504.157885
350.820203	2497.755620
351.210548	2500.190497
351.600828	2496.389467
351.991045	2499.615805
352.381198	2498.168994
352.771288	2496.311329
353.161314	2496.684374
353.551276	2496.795280
353.941175	2495.290495
354.331010	2495.955928
354.720782	2495.411483
355.110490	2495.098932
355.500135	2495.897954
355.889717	2496.215547
356.279235	2495.988695
356.668689	2498.781494
357.058080	2497.513644
357.447408	2495.938284
357.836672	2492.785042
358.225873	2495.373674
358.615010	2494.231853
359.004084	2498.259735
359.393095	2500.061948
359.782043	2497.317039
360.170927	2499.817452
360.559748	2500.760147
360.948505	2501.415497
361.337199	2500.056906
361.725830	2505.319871
362.114398	2503.076558
362.502903	2501.690240
362.891344	2504.931702
363.279722	2505.380365
363.668037	2506.769203
364.056289	2507.270798
364.444478	2507.013699
364.832603	2504.578821
365.220665	2506.103770
365.608665	2505.153513
365.996601	2507.061590
366.384474	2506.741476
366.772284	2508.606703
367.160031	2505.803822
367.547715	2511.200377
367.935336	2507.878257
368.322893	2512.773217
368.710388	2510.287928
369.097820	2512.417816
369.485189	2510.918072
369.872495	2511.182733
370.259738	2511.777589
370.646918	2510.759276
371.034035	2512.566530
371.421090	2512.995028
371.808081	2511.538134
372.195010	2510.547547
372.581875	2511.583505
372.968678	2515.182888
373.355418	2511.500326
373.742096	2514.575429
374.128710	2514.492250
374.515262	2515.170286
374.901751	2512.614421
375.288177	2513.715913
375.674540	2514.943434
376.060841	2512.831190
376.447079	2512.654750
376.833254	2515.694566
377.219367	2510.257681
377.605417	2512.291787
377.991404	2512.228772
378.377329	2512.342198
378.763191	2511.245747
379.148991	2518.341171
379.534727	2514.540141
379.920402	2517.020389
380.306013	2513.915038
380.691563	2518.361336
381.077049	2517.889988
381.462474	2517.542148
381.847835	2516.175996
382.233134	2518.038702
382.618371	2515.293794
383.003545	2519.059536
383.388657	2518.762108
383.773706	2520.027437
384.158693	2518.535256
384.543618	2518.353774
384.928480	2517.791686
385.313280	2520.037520
385.698017	2521.229753
386.082692	2520.203878
386.467305	2521.658251
386.851856	2519.661954
387.236344	2520.403003
387.620770	2524.380474
388.005133	2521.262520
388.389435	2521.209588
388.773674	2524.846780
389.157851	2522.774866
389.541965	2524.057840
389.926018	2526.265865
390.310008	2522.374094
390.693936	2522.515247
391.077802	2522.593385
391.461606	2525.048427
391.845348	2524.330062
392.229027	2526.253262
392.612645	2523.682274
392.996200	2526.177645
393.379694	2523.684794
393.763125	2525.814682
394.146494	2523.145391
394.529801	2525.045906
394.913047	2526.341482
395.296230	2530.381967
395.679351	2528.015146
396.062410	2524.408200
396.445408	2523.765453
396.828343	2526.081863
397.211217	2524.284692
397.594028	2524.347706
397.976778	2522.497603
398.359466	2524.909795
398.742092	2521.854856
399.124656	2529.721576
399.507158	2528.544467
399.889598	2529.144364
400.271977	2530.029087
400.654294	2531.995137
401.036549	2531.269210
401.418742	2527.637059
401.800874	2532.768954
402.182944	2528.940197
402.564952	2531.261649
402.946898	2530.064375
403.328783	2534.462781
403.710606	2533.242822
404.092367	2532.494211
404.474067	2531.790970
404.855705	2533.474715
405.237282	2533.172246
405.618797	2532.224509
406.000250	2529.966072
406.381642	2533.139478
406.762972	2535.120652
407.144240	2534.624098
407.525447	2536.915303
407.906593	2532.388347
408.287677	2532.816845
408.668700	2533.764582
409.049661	2536.741383
409.430560	2536.020498
409.811399	2537.220292
410.192176	2535.299613
410.572891	2536.103677
410.953545	2535.851619
411.334138	2535.889428
411.714669	2537.179963
412.095139	2534.919006
412.475547	2538.291538
412.855894	2536.824562
413.236180	2536.950591
413.616405	2542.221117
413.996568	2539.632485
414.376670	2540.171888
414.756711	2539.635005
415.136691	2542.074924
415.516609	2540.212217
415.896466	2539.723225
416.276262	2542.848741
416.655997	2539.710623
417.035670	2539.582073
417.415283	2545.230686
417.794834	2536.575025
418.174324	2541.419574
418.553753	2541.175078
418.933121	2543.743546
419.312428	2545.976777
419.691674	2544.038453
420.070859	2546.329658
420.449983	2547.214380
420.829045	2547.892415
421.208047	2548.688917
421.586988	2551.942982
421.965867	2552.807540
422.344686	2552.608415
422.723444	2560.296174
423.102141	2556.898437
423.480777	2563.938408
423.859352	2563.703994
424.237866	2571.575756
424.616319	2576.576581
424.994712	2584.309711
425.373044	2587.004207
425.751314	2596.564756
426.129524	2598.014087
426.507673	2610.412805
426.885762	2621.014352
427.263789	2630.292595
427.641756	2635.358955
428.019662	2649.025523
428.397508	2661.749395
428.775292	2672.892866
429.153016	2686.282171
429.530679	2696.820703
429.908282	2712.181098
430.285824	2719.838611
430.663305	2753.274064
431.040726	2753.387490
431.418086	2767.379212
431.795385	2795.367699
432.172624	2812.953764
432.549802	2832.833554
432.926920	2857.462111
433.303977	2876.424411
433.680974	2902.809811
434.057910	2933.064295
434.434786	2959.679067
434.811601	2978.911069
435.188355	3036.604554
435.565050	3047.090154
435.941683	3075.086202
436.318257	3141.710091
436.694770	3170.986592
437.071222	3213.874209
437.447614	3232.823906
437.823946	3247.707913
438.200218	3321.417144
438.576429	3329.442661
438.952580	3392.885582
439.328670	3445.079168
439.704700	3460.386632
440.080670	3499.548835
440.456580	3620.057618
440.832429	3629.035913
441.208218	3626.724544
441.583947	3723.721385
441.959616	3771.014970
442.335224	3789.349647
442.710773	3885.600397
443.086261	3953.005665
443.461689	3914.939912
443.837057	4026.997201
444.212365	4144.226713
444.587612	4145.040859
444.962800	4265.441257
445.337927	4307.837361
445.712995	4181.148123
446.088002	4514.323022
446.462949	4480.819514
446.837837	4504.276003
447.212664	4634.773832
447.587431	4782.782109
447.962139	5140.267972
448.336786	5718.435386
448.711374	5636.821626
449.085901	5162.063401
449.460369	5178.129558
449.834776	5184.809087
450.209124	5498.749463
450.583412	5662.937323
450.957640	5796.069155
451.331808	5708.869797
451.705917	5460.824863
452.079965	5454.238595
452.453954	5657.550850
452.827883	5614.990909
453.201752	5734.410803
453.575562	5626.789730
453.949311	5835.632131
454.323001	5787.784019
454.696632	5881.478904
455.070202	6034.876175
455.443713	6197.592018
455.817164	6329.624878
456.190556	6433.928872
456.563888	6540.297218
456.937160	6616.431244
457.310373	6362.851123
457.683526	6423.428148
458.056619	6375.731271
458.429653	6395.956381
458.802628	6362.838520
459.175542	6490.324260
459.548398	6836.555747
459.921194	7002.916345
460.293930	7030.050355
460.666607	7528.610388
461.039224	7839.773089
461.411782	7984.391190
461.784280	8033.093777
462.156719	7969.555074
462.529099	7887.301087
462.901419	7524.804317
463.273680	7450.268337
463.645882	7485.395097
464.018024	7374.696400
464.390106	7553.458236
464.762130	7941.619520
465.134094	8403.190087
465.505999	9388.939831
465.877845	10574.601571
466.249631	11221.946219
466.621358	10883.997347
466.993026	10300.302308
467.364634	10066.753212
467.736184	9727.796110
468.107674	9419.443853
468.479105	9458.590933
468.850477	9231.224812
469.221790	9021.381742
469.593043	8701.717135
469.964238	8575.405985
470.335373	8593.259231
470.706449	8657.443202
471.077467	8644.555492
471.448425	9941.299057
471.819324	11001.476397
472.190164	11025.898266
472.560945	9792.343044
472.931667	9022.919294
473.302330	8890.349551
473.672934	8540.377527
474.043479	8893.984222
474.413965	8838.670162
474.784393	8725.972647
475.154761	8887.276967
475.525070	8973.715112
475.895321	8798.590468
476.265513	8976.573446
476.635645	9148.693562
477.005719	9145.855392
477.375734	9263.510882
477.745691	9499.459567
478.115588	9623.814750
478.485427	9874.145847
478.855207	10412.858671
479.224928	11225.989224
479.594591	11847.820592
479.964194	11659.384782
480.333739	11598.074269
480.703226	11512.704849
481.072653	11602.765063
481.442022	11846.822444
481.811333	12026.196780
482.180584	11841.395642
482.549777	11550.964686
482.918912	11371.819723
483.287988	11393.756304
483.657005	11409.091494
484.025964	11095.130953
484.394864	11224.328164
484.763706	11190.776765
485.132489	10945.897675
485.501213	10923.333471
485.869879	10994.713689
486.238487	10833.376601
486.607036	10951.563932
486.975527	10733.319779
487.343959	10918.564539
487.712333	10966.226128
488.080648	10897.618545
488.448905	10936.987436
488.817104	10879.500638
489.185244	11141.300360
489.553326	11300.399176
489.921350	11827.696306
490.289315	12902.346798
490.657222	13229.658835
491.025070	13147.162873
491.392861	13016.294519
491.760593	12634.235551
492.128267	12287.363837
492.495883	11961.312089
492.863440	11631.562654
493.230939	11295.184102
493.598380	11227.988042
493.965763	11098.168248
494.333088	10993.155972
494.700354	10918.922461
495.067563	10972.187293
495.434713	10808.639659
495.801805	10936.342168
496.168839	10863.638648
496.535815	10797.821343
496.902733	10801.183792
497.269593	10734.771632
497.636395	10830.419964
498.003139	10825.792185
498.369825	10688.849241
498.736453	10845.901348
499.103023	10767.420665
499.469535	10806.381222
499.835989	10793.390169
500.202385	10756.254509
500.568723	10610.333270
500.935003	10829.358801
501.301226	10633.119285
501.667390	10898.084852
502.033497	10986.554581
502.399546	10855.774447
502.765537	10753.318037
503.131470	10837.298619
503.497345	11004.864052
503.863163	10617.156471
504.228923	10927.963771
504.594625	10988.273615
504.960269	10741.534340
505.325856	10955.838831
505.691385	10753.444066
506.056856	10905.591130
506.422270	10932.838566
506.787625	10817.267594
507.152924	10938.451891
507.518164	10920.129818
507.883347	10841.442447
508.248472	10762.808009
508.613540	10996.745274
508.978550	10880.836544
509.343503	10851.038283
509.708398	10969.155039
510.073236	11083.115362
510.438016	11091.125756
510.802738	11036.290605
511.167403	11093.086765
511.532010	10985.316978
511.896561	11217.535209
512.261053	11291.942640
512.625488	11158.125211
512.989866	11139.490586
513.354186	11126.852413
513.718449	11030.430264
514.082655	11228.235058
514.446803	11120.631629
514.810894	11237.157901
515.174927	11105.175452
515.538904	11135.520677
515.902822	11289.535489
516.266684	11168.570482
516.630488	11114.191555
516.994235	11166.813640
517.357925	11226.740356
517.721558	11312.359313
518.085133	11328.422950
518.448651	11343.682523
518.812112	11224.428987
519.175516	11236.555483
519.538863	11363.320337
519.902152	11269.146542
520.265385	11439.257758
520.628560	11348.189314
520.991678	11324.354739
521.354739	11389.365459
521.717743	11318.895169
522.080690	11298.385235
522.443580	11437.823550
522.806413	11395.538352
523.169189	11421.540623
523.531908	11482.163019
523.894569	11301.999742
524.257174	11308.565845
524.619722	11421.137331
524.982213	11371.784435
525.344647	11422.705130
525.707025	11375.620753
526.069345	11465.716254
526.431608	11385.019984
526.793815	11494.725574
527.155964	11281.772112
527.518057	11334.038795
527.880093	11279.468305
528.242072	11358.145593
528.603995	11257.539286
528.965860	11176.023828
529.327669	11231.539535
529.689421	11177.286637
530.051117	11151.100363
530.412755	11253.108111
530.774337	11147.768161
531.135862	11127.802671
531.497331	11145.333283
531.858743	11000.775676
532.220098	11167.781541
532.581396	11034.836232
532.942638	11022.704695
533.303824	10990.317803
533.664953	11002.151911
534.026025	10904.136757
534.387040	11013.441575
534.747999	11013.018118
535.108902	11073.486759
535.469748	10830.964409
535.830537	10934.182034
536.191270	10915.217213
536.551947	10935.664133
536.912567	10933.481313
537.273131	10859.882988
537.633638	10835.907260
537.994089	10828.176651
538.354483	10780.802407
538.714821	10916.812738
539.075103	10925.856568
539.435328	10903.229349
539.795497	10725.500950
540.155609	10881.590196
540.515665	10967.609925
540.875665	10707.597292
541.235609	10776.348548
541.595496	10766.989646
541.955328	10923.005796
542.315102	10796.689604
542.674821	10754.084292
543.034483	10754.532955
543.394090	10763.798596
543.753640	10694.195384
544.113134	10908.449464
544.472571	10767.597105
544.831953	10903.541901
545.191278	10713.472757
545.550548	10742.998795
545.909761	10881.058355
546.268918	10855.837462
546.628019	10942.540267
546.987064	10801.113216
547.346053	10718.534075
547.704986	10820.544344
548.063863	10811.500514
548.422684	10804.629421
548.781449	10719.421318
549.140158	10824.615076
549.498811	10696.620179
549.857408	10555.495598
550.215949	10780.199990
550.574434	10636.406117
550.932864	10732.437578
551.291237	10792.875971
551.649555	10740.415203
552.007817	10748.193704
552.366022	10706.142919
552.724173	10707.322549
553.082267	10693.764366
553.440305	10827.352422
553.798288	10630.376897
554.156215	10784.961359
554.514086	10758.828018
554.871902	10615.361821
555.229661	10649.737449
555.587365	10616.634712
555.945014	10520.512511
556.302606	10643.143619
556.660143	10537.400376
557.017625	10693.298059
557.375050	10592.918604
557.732421	10720.091792
558.089735	10637.058947
558.446994	10638.672116
558.804197	10675.008753
559.161345	10670.779225
559.518437	10523.786740
559.875474	10609.277148
560.232455	10639.546756
560.589381	10593.180744
560.946251	10586.327295
561.303065	10692.867040
561.659825	10628.136104
562.016528	10563.397607
562.373177	10444.373444
562.729770	10559.152955
563.086307	10469.332197
563.442789	10558.603469
563.799216	10437.910685
564.155587	10488.559157
564.511904	10447.360327
564.868164	10434.830540
565.224370	10453.316451
565.580520	10375.304595
565.936615	10378.878773
566.292654	10244.138813
566.648638	10374.664368
567.004567	10337.707670
567.360441	10323.509260
567.716260	10226.993849
568.072023	10325.929014
568.427732	10280.472929
568.783385	10182.044401
569.138982	10257.386965
569.494525	10271.411455
569.850013	10146.867229
570.205445	10230.643644
570.560823	10124.275298
570.916145	10045.908041
571.271412	10116.307754
571.626625	10057.265761
571.981782	10028.926914
572.336884	10009.412608
572.691931	10013.385037
573.046923	9963.432243
573.401860	9918.286190
573.756743	9855.128094
574.111570	9902.272965
574.466342	9881.730263
574.821059	9910.394264
575.175722	9810.995313
575.530330	9814.703082
575.884882	9797.278333
576.239380	9727.531449
576.593823	9712.037463
576.948211	9727.322241
577.302544	9605.543088
577.656823	9621.546231
578.011047	9623.451787
578.365216	9595.952293
578.719330	9516.786013
579.073389	9535.697901
579.427394	9475.501483
579.781344	9456.718144
580.135239	9404.022963
580.489080	9416.323378
580.842866	9313.602307
581.196597	9323.545983
581.550273	9359.068473
581.903895	9331.599226
582.257463	9396.325121
582.610975	9274.160319
582.964434	9301.974886
583.317837	9223.284995
583.671186	9207.740597
584.024481	9195.344399
584.377721	9118.431515
584.730906	9097.493083
585.084037	9128.317218
585.437113	9060.649810
585.790135	9079.680166
586.143103	8979.951019
586.496016	8958.120302
586.848874	9019.569447
587.201679	9007.284155
587.554428	8891.655209
587.907124	8940.118342
588.259765	8908.056603
588.612352	8903.673320
588.964884	8786.090927
589.317362	8797.809089
589.669786	8802.409142
590.022155	8848.606276
590.374470	8867.167805
590.726731	8802.094070
591.078937	8649.427767
591.431090	8770.859081
591.783188	8640.325964
592.135232	8631.380436
592.487222	8638.579204
592.839157	8681.572685
593.191038	8623.720403
593.542866	8566.546157
593.894639	8464.384653
594.246358	8517.899022
594.598022	8535.101960
594.949633	8430.392153
595.301190	8404.462978
595.652692	8434.407432
596.004141	8548.372797
596.355535	8313.800347
596.706876	8297.804766
597.058162	8243.554389
597.409395	8313.031571
597.760573	8374.339563
598.111698	8283.460162
598.462768	8272.994727
598.813785	8229.746668
599.164748	8207.288328
599.515657	8192.719393
599.866511	8110.173020
600.217312	8231.710198
600.568060	8088.682581
600.918753	8192.522788
601.269392	8163.331987
601.619978	8077.521466
601.970510	8137.922051
602.320988	8140.160323
602.671412	8190.312242
603.021783	8131.688664
603.372100	8101.560208
603.722363	8105.230168
604.072572	8076.440139
604.422728	8095.208354
604.772830	8023.833178
605.122878	8024.697736
605.472872	8018.786983
605.822813	8051.720841
606.172701	8000.583376
606.522534	8073.657422
606.872314	8067.650887
607.222041	8041.104171
607.571714	8096.922347
607.921333	8053.618835
608.270899	8065.425217
608.620411	8146.653329
608.969870	8054.342241
609.319276	8049.124647
609.668627	8063.703663
610.017926	8097.522244
610.367171	8145.566961
610.716362	8121.427396
611.065500	8111.498843
611.414585	8144.042012
611.763616	8128.182542
612.112594	8112.002958
612.461518	8127.028117
612.810389	8182.508536
613.159207	8130.622460
613.507971	8074.390910
613.856682	8195.038324
614.205340	8146.073597
614.553945	8228.372954
614.902496	8125.790514
615.250994	8182.775717
615.599439	8162.598499
615.947830	8175.881939
616.296169	8149.342785
616.644454	8160.879466
616.992686	8155.722365
617.340864	8217.582364
617.688990	8124.321018
618.037063	8211.837969
618.385082	8158.328642
618.733048	8246.175789
619.080961	8177.051487
619.428821	8207.951240
619.776628	8205.768420
620.124382	8164.546905
620.472083	8146.280284
620.819731	8168.017739
621.167326	8063.212151
621.514868	8072.286228
621.862357	7955.833053
622.209793	7975.024726
622.557176	7905.832369
622.904506	7883.762198
623.251783	7813.332237
623.599007	7768.239116
623.946179	7771.281452
624.293297	7733.210658
624.640363	7650.444995
624.987376	7634.260370
625.334336	7579.652071
625.681243	7531.380502
626.028097	7519.324583
626.374899	7493.513875
626.721647	7484.810323
627.068343	7421.831188
627.414987	7385.681074
627.761577	7346.844025
628.108115	7381.658233
628.454600	7278.304497
628.801032	7327.601941
629.147412	7291.797145
629.493739	7280.855321
629.840014	7214.821247
630.186236	7274.979856
630.532405	7155.335631
630.878521	7204.144083
631.224585	7161.054820
631.570597	7084.527584
631.916556	7119.004036
632.262462	7115.071936
632.608316	7082.354847
632.954117	7054.414252
633.299866	7043.255658
633.645562	7028.631271
633.991206	6954.932122
634.336797	6898.405664
634.682336	6857.801690
635.027823	6820.421534
635.373257	6816.925494
635.718639	6742.094607
636.063968	6758.009529
636.409245	6655.064127
636.754470	6650.096069
637.099642	6607.737774
637.444762	6559.004940
637.789829	6562.069962
638.134845	6502.896898
638.479808	6486.835782
638.824719	6495.012533
639.169577	6423.276914
639.514383	6449.682478
639.859137	6373.099789
640.203839	6378.839143
640.548489	6369.611311
