Dividing Wavelength (nm)	Counts (n)	Blue Motor Position (mm): 40.900000	Red Motor Position (mm): 0.000000	
326.493990	2249.735892
326.888308	2249.735892
327.282561	2249.735892
327.676750	2210.190560
328.070874	2208.466486
328.464933	2207.380117
328.858929	2209.830118
329.252859	2216.461756
329.646726	2226.014742
330.040528	2239.348594
330.434265	2247.797568
330.827938	2269.146854
331.221547	2285.575975
331.615091	2303.507359
332.008571	2320.954793
332.401986	2342.533452
332.795338	2359.751513
333.188625	2380.342105
333.581847	2398.369272
333.975006	2417.578588
334.368100	2438.214552
334.761129	2451.908846
335.154095	2473.059007
335.546996	2498.988182
335.939833	2535.680220
336.332606	2554.531615
336.725315	2565.561659
337.117960	2580.261664
337.510540	2592.143664
337.903056	2602.536002
338.295508	2608.804677
338.687896	2618.110647
339.080220	2626.778911
339.472480	2632.994654
339.864676	2638.348359
340.256807	2642.603093
340.648875	2645.390851
341.040879	2648.624751
341.432818	2652.776142
341.824694	2656.246976
342.216506	2656.461225
342.608253	2657.051040
342.999937	2657.807213
343.391557	2658.076915
343.783113	2656.332676
344.174605	2655.924342
344.566033	2654.563231
344.957397	2654.170021
345.348697	2653.376039
345.739934	2650.540390
346.131106	2653.239928
346.522215	2648.392858
346.913260	2646.701551
347.304241	2647.815646
347.695159	2642.774492
348.086012	2642.343474
348.476802	2640.200983
348.867528	2636.901548
349.258191	2635.328708
349.648789	2634.161681
350.039324	2627.509878
350.429796	2634.655714
350.820203	2632.235960
351.210548	2628.946607
351.600828	2629.191103
351.991045	2628.399642
352.381198	2626.867131
352.771288	2627.104066
353.161314	2625.291771
353.551276	2624.112141
353.941175	2624.820423
354.331010	2624.938890
354.720782	2624.810341
355.110490	2627.920732
355.500135	2623.348406
355.889717	2624.268417
356.279235	2625.420320
356.668689	2621.846142
357.058080	2626.357975
357.447408	2625.437964
357.836672	2625.954682
358.225873	2623.824795
358.615010	2627.343520
359.004084	2627.043572
359.393095	2625.821092
359.782043	2627.288068
360.170927	2628.346710
360.559748	2629.687657
360.948505	2628.293778
361.337199	2632.354427
361.725830	2630.723614
362.114398	2628.384519
362.502903	2630.670682
362.891344	2633.463481
363.279722	2633.481125
363.668037	2635.701753
364.056289	2634.267545
364.444478	2636.460447
364.832603	2637.067906
365.220665	2637.561939
365.608665	2636.394912
365.996601	2637.090591
366.384474	2638.852475
366.772284	2638.194604
367.160031	2638.066055
367.547715	2641.211735
367.935336	2641.221817
368.322893	2639.321302
368.710388	2637.125879
369.097820	2642.093937
369.485189	2639.691827
369.872495	2641.927578
370.259738	2642.711478
370.646918	2643.893628
371.034035	2644.619555
371.421090	2645.337919
371.808081	2645.022847
372.195010	2646.509987
372.581875	2646.084010
372.968678	2647.493012
373.355418	2647.734988
373.742096	2647.263640
374.128710	2649.176758
374.515262	2647.026706
374.901751	2646.877992
375.288177	2650.114412
375.674540	2649.592653
376.060841	2654.590957
376.447079	2652.249341
376.833254	2653.794455
377.219367	2654.023827
377.605417	2653.542397
377.991404	2654.114568
378.377329	2652.471152
378.763191	2654.638848
379.148991	2653.670946
379.534727	2655.397542
379.920402	2656.955258
380.306013	2656.980464
380.691563	2659.269148
381.077049	2656.476348
381.462474	2657.514826
381.847835	2661.451967
382.233134	2660.211843
382.618371	2658.865855
383.003545	2659.564055
383.388657	2663.420538
383.773706	2666.906496
384.158693	2666.104952
384.543618	2668.086126
384.928480	2671.511590
385.313280	2674.097702
385.698017	2679.869823
386.082692	2686.630010
386.467305	2695.179807
386.851856	2708.485933
387.236344	2720.839280
387.620770	2736.686147
388.005133	2758.899992
388.389435	2783.062242
388.773674	2811.428815
389.157851	2853.424147
389.541965	2896.924263
389.926018	2929.878286
390.310008	2986.243427
390.693936	3040.249308
391.077802	3093.504058
391.461606	3138.942498
391.845348	3203.222251
392.229027	3270.186418
392.612645	3326.700273
392.996200	3414.426432
393.379694	3492.342506
393.763125	3591.204574
394.146494	3661.614370
394.529801	3748.869181
394.913047	3850.972711
395.296230	3883.944378
395.679351	4003.407121
396.062410	4096.287860
396.445408	4138.986433
396.828343	4240.169953
397.211217	4339.049665
397.594028	4311.479594
397.976778	4452.087457
398.359466	4537.535015
398.742092	4612.020584
399.124656	4584.667283
399.507158	4730.240683
399.889598	4827.839942
400.271977	4975.727231
400.654294	5007.236963
401.036549	5080.464764
401.418742	5045.569897
401.800874	5262.120222
402.182944	5345.090053
402.564952	5479.981247
402.946898	5558.161982
403.328783	5440.128406
403.710606	5476.286082
404.092367	5797.407582
404.474067	5839.281926
404.855705	5764.635040
405.237282	5718.251384
405.618797	5967.183561
406.000250	5965.968643
406.381642	6172.774418
406.762972	6206.209870
407.144240	6270.129181
407.525447	6258.872284
407.906593	6296.106246
408.287677	6459.797553
408.668700	6367.367997
409.049661	6493.656463
409.430560	6524.586462
409.811399	6387.799794
410.192176	6663.717267
410.572891	6665.035529
410.953545	6869.887857
411.334138	6604.430777
411.714669	6775.353619
412.095139	6568.593215
412.475547	6812.275030
412.855894	6882.072325
413.236180	7059.248718
413.616405	6747.150884
413.996568	6961.901517
414.376670	6997.434090
414.756711	6886.682461
415.136691	6991.435117
415.516609	7192.700664
415.896466	7186.316042
416.276262	7380.050105
416.655997	7364.818259
417.035670	7550.458749
417.415283	7893.632777
417.794834	7944.964326
418.174324	7802.783623
418.553753	7727.617498
418.933121	8037.713995
419.312428	8135.734190
419.691674	7919.060357
420.070859	8387.161738
420.449983	8068.013850
420.829045	8435.340046
421.208047	8211.845531
421.586988	8508.938371
421.965867	8522.602419
422.344686	8637.187846
422.723444	8674.489863
423.102141	8044.348153
423.480777	8789.728120
423.859352	8316.348650
424.237866	8934.273124
424.616319	8803.152712
424.994712	9212.610351
425.373044	8776.124566
425.751314	9237.687571
426.129524	9113.821380
426.507673	9230.151046
426.885762	9380.080003
427.263789	9296.888361
427.641756	9214.067245
428.019662	9315.240682
428.397508	9568.624198
428.775292	9247.767358
429.153016	9627.630903
429.530679	9453.595149
429.908282	9496.918825
430.285824	9214.906597
430.663305	9896.026975
431.040726	9350.831228
431.418086	9340.396040
431.795385	9663.382767
432.172624	9748.726981
432.549802	9665.434516
432.926920	9741.994520
433.303977	9620.240572
433.680974	9823.094082
434.057910	9910.134644
434.434786	9977.232402
434.811601	9815.297938
435.188355	10378.596468
435.565050	10119.171130
435.941683	10040.030056
436.318257	10531.988698
436.694770	10674.454226
437.071222	10729.738040
437.447614	10575.720707
437.823946	10478.305450
438.200218	10602.849677
438.576429	10418.703888
438.952580	10664.636579
439.328670	10711.075688
439.704700	10498.868317
440.080670	10488.826338
440.456580	11030.400017
440.832429	10802.461725
441.208218	10401.821064
441.583947	10724.371731
441.959616	10879.321677
442.335224	10687.208345
442.710773	10814.845319
443.086261	11025.731908
443.461689	10301.333224
443.837057	10970.281737
444.212365	11231.728578
444.587612	10872.599298
444.962800	11094.914183
445.337927	10849.236071
445.712995	10470.652979
446.088002	11545.530323
446.462949	11205.202026
446.837837	11186.370796
447.212664	11148.552060
447.587431	11690.050121
447.962139	12429.428594
448.336786	14697.156363
448.711374	15221.509460
449.085901	13060.994430
449.460369	12690.867873
449.834776	12133.936320
450.209124	13032.292621
450.583412	13451.096559
450.957640	14391.143202
451.331808	13485.736847
451.705917	12508.463804
452.079965	11789.522169
452.453954	12694.789891
452.827883	12345.203516
453.201752	12628.418060
453.575562	12161.093016
453.949311	12585.210330
454.323001	12547.010987
454.696632	12785.550825
455.070202	13065.334863
455.443713	13282.631279
455.817164	13761.664403
456.190556	13736.872008
456.563888	14101.312143
456.937160	14257.466925
457.310373	13610.434829
457.683526	13698.579404
458.056619	13236.691244
458.429653	13417.330910
458.802628	12807.563023
459.175542	13215.067215
459.548398	14160.790197
459.921194	14503.054296
460.293930	14573.877467
460.666607	15440.308140
461.039224	16484.147099
461.411782	17203.343313
461.784280	17024.581477
462.156719	17106.946369
462.529099	16788.849561
462.901419	15731.964096
463.273680	15499.128323
463.645882	15392.870882
464.018024	15120.608245
464.390106	15338.023128
464.762130	16062.721761
465.134094	16839.833271
465.505999	18866.830821
465.877845	22131.088842
466.249631	24942.376504
466.621358	24590.388019
466.993026	23163.060925
467.364634	22580.495104
467.736184	21117.484202
468.107674	20316.384362
468.479105	20448.913776
468.850477	19914.622045
469.221790	19503.473099
469.593043	18823.960848
469.964238	18253.519003
470.335373	17897.628665
470.706449	18381.483652
471.077467	17951.321994
471.448425	19805.249171
471.819324	23879.867631
472.190164	25801.386599
472.560945	22194.173841
472.931667	19868.959273
473.302330	19238.288242
473.672934	18835.041305
474.043479	19094.970759
474.413965	18921.792001
474.784393	18529.948153
475.154761	19246.870806
475.525070	19209.276402
475.895321	18898.874915
476.265513	19497.481687
476.635645	20073.849410
477.005719	19850.690132
477.375734	20036.181908
477.745691	20524.828512
478.115588	21064.715924
478.485427	21596.524888
478.855207	22672.186131
479.224928	24458.690395
479.594591	26694.711828
479.964194	26650.016958
480.333739	26868.649280
480.703226	26446.097244
481.072653	26140.268084
481.442022	26752.773317
481.811333	27662.182348
482.180584	27557.578405
482.549777	26607.600689
482.918912	26276.991738
483.287988	26396.560345
483.657005	26043.248557
484.025964	25812.552755
484.394864	25707.606014
484.763706	25370.861978
485.132489	24817.887730
485.501213	24995.933723
485.869879	24910.103037
486.238487	24744.796041
486.607036	24883.432813
486.975527	24617.383398
487.343959	24923.623412
487.712333	24835.791388
488.080648	24505.419371
488.448905	24996.127807
488.817104	24746.757050
489.185244	25448.891478
489.553326	25401.310547
489.921350	26431.195593
490.289315	28736.341327
490.657222	30489.823513
491.025070	30991.619967
491.392861	30756.049368
491.760593	29901.346940
492.128267	28990.811211
492.495883	27923.727492
492.863440	27056.948979
493.230939	26198.251435
493.598380	26044.629834
493.965763	25649.121067
494.333088	25177.730333
494.700354	25127.593538
495.067563	24977.803213
495.434713	24741.879733
495.801805	24903.579784
496.168839	24690.417114
496.535815	24547.896133
496.902733	24770.110195
497.269593	24450.372492
497.636395	24623.883966
498.003139	24564.839451
498.369825	24309.283198
498.736453	24518.460836
499.103023	24399.779472
499.469535	24395.297886
499.835989	24610.824857
500.202385	24640.751667
500.568723	24169.434029
500.935003	24379.027562
501.301226	24020.339383
501.667390	24868.276584
502.033497	25074.527832
502.399546	24815.805734
502.765537	24361.456620
503.131470	24763.899493
503.497345	24901.195318
503.863163	24131.690910
504.228923	24698.321643
504.594625	24929.105667
504.960269	24466.161385
505.325856	24954.508041
505.691385	24350.781977
506.056856	24961.469874
506.422270	24937.839466
506.787625	24480.148067
507.152924	24898.876388
507.518164	24925.826396
507.883347	24754.197793
508.248472	24422.076495
508.613540	25201.146493
508.978550	25001.834393
509.343503	25018.805437
509.708398	25231.824434
510.073236	25404.221814
510.438016	25618.924556
510.802738	25276.433605
511.167403	25532.791401
511.532010	25263.795432
511.896561	26024.059405
512.261053	25989.474569
512.625488	25807.665356
512.989866	25712.601797
513.354186	25543.581991
513.718449	25672.617886
514.082655	26037.836879
514.446803	25768.883759
514.810894	26251.208757
515.174927	25730.389509
515.538904	25756.258190
515.902822	26253.867965
516.266684	26012.739494
516.630488	25924.776401
516.994235	25862.319025
517.357925	26201.666817
517.721558	26366.164708
518.085133	26485.342626
518.448651	26371.732663
518.812112	26127.942463
519.175516	26336.752096
519.538863	26493.204306
519.902152	26281.790916
520.265385	26548.036936
520.628560	26350.111154
520.991678	26336.061458
521.354739	26404.008650
521.717743	26482.421278
522.080690	26258.140343
522.443580	26596.762209
522.806413	26574.434938
523.169189	26680.505856
523.531908	26730.110810
523.894569	26349.392789
524.257174	26434.495028
524.619722	26593.470335
524.982213	26297.196683
525.344647	26331.685737
525.707025	26480.051935
526.069345	26441.560205
526.431608	26421.758553
526.793815	26600.548115
527.155964	26075.199391
527.518057	26253.694045
527.880093	26164.402608
528.242072	26393.681847
528.603995	26108.992765
528.965860	25907.243268
529.327669	25944.184843
529.689421	25936.837362
530.051117	25776.347188
530.412755	25963.641177
530.774337	25731.085188
531.135862	25618.077642
531.497331	25822.201523
531.858743	25410.238431
532.220098	25862.785332
532.581396	25543.652567
532.942638	25452.755522
533.303824	25578.607928
533.664953	25573.347484
534.026025	25225.676747
534.387040	25481.028834
534.747999	25534.213007
535.108902	25690.229157
535.469748	25186.690984
535.830537	25351.841705
536.191270	25499.439127
536.551947	25330.008467
536.912567	24955.803617
537.273131	25372.664191
537.633638	25058.895213
537.994089	25274.921259
538.354483	24787.401353
538.714821	25293.558404
539.075103	25336.806463
539.435328	25105.460352
539.795497	24698.757703
540.155609	25056.299019
540.515665	25359.715987
540.875665	24574.400000
541.235609	24912.689149
541.595496	24855.361148
541.955328	25201.252357
542.315102	25142.066690
542.674821	24659.741693
543.034483	24526.115828
543.394090	24701.190060
543.753640	24510.727706
544.113134	25138.865558
544.472571	24726.811724
544.831953	25029.318764
545.191278	24671.633775
545.550548	24574.016872
545.909761	24774.874085
546.268918	25002.646019
546.628019	24976.061494
546.987064	24659.540047
547.346053	24413.428396
547.704986	24512.983622
548.063863	24679.077039
548.422684	24695.538927
548.781449	24200.560633
549.140158	24625.318174
549.498811	24191.980589
549.857408	23948.208033
550.215949	24357.428738
550.574434	24046.765112
550.932864	24245.615946
551.291237	24427.614202
551.649555	24273.425471
552.007817	24331.857485
552.366022	24182.059599
552.724173	24207.532549
553.082267	24174.376880
553.440305	24661.821169
553.798288	23895.590990
554.156215	24395.292845
554.514086	24526.773699
554.871902	23904.271857
555.229661	24184.312994
555.587365	24024.916751
555.945014	23930.178347
556.302606	24154.943232
556.660143	24126.077585
557.017625	24363.347053
557.375050	23888.997161
557.732421	24270.990594
558.089735	24097.574901
558.446994	24145.140708
558.804197	24182.626728
559.161345	24088.833541
559.518437	23877.515933
559.875474	24039.737743
560.232455	24235.473144
560.589381	24039.185737
560.946251	24048.587489
561.303065	24353.138716
561.659825	24444.388642
562.016528	24044.753691
562.373177	23782.938846
562.729770	24152.112624
563.086307	24003.219625
563.442789	24160.642257
563.799216	24015.134392
564.155587	24012.865873
564.511904	23998.039839
564.868164	23936.958699
565.224370	23899.329006
565.580520	23837.529501
565.936615	23963.102123
566.292654	23649.980934
566.648638	23911.037086
567.004567	23745.331838
567.360441	23675.703421
567.716260	23398.467686
568.072023	23713.761612
568.427732	23508.715200
568.783385	23276.527216
569.138982	23516.801211
569.494525	23549.765316
569.850013	23315.943997
570.205445	23415.045520
570.560823	23229.384865
570.916145	22999.735102
571.271412	23174.718593
571.626625	22925.362959
571.981782	23033.331872
572.336884	22845.001926
572.691931	22978.630311
573.046923	22717.012071
573.401860	22598.761725
573.756743	22619.324592
574.111570	22523.550230
574.466342	22438.576541
574.821059	22529.095499
575.175722	22223.510836
575.530330	22180.043487
575.884882	22211.810318
576.239380	22124.570630
576.593823	22017.420905
576.948211	21998.761074
577.302544	21850.508301
577.656823	21715.728012
578.011047	21819.485040
578.365216	21689.408147
578.719330	21569.496741
579.073389	21458.714865
579.427394	21598.778283
579.781344	21366.277747
580.135239	21247.954305
580.489080	21194.334072
580.842866	20975.734518
581.196597	21181.093482
581.550273	21151.287659
581.903895	21027.164369
582.257463	21347.761589
582.610975	20872.733663
582.964434	21196.025379
583.317837	20885.860827
583.671186	20967.746810
584.024481	20948.189653
584.377721	20715.658870
584.730906	20790.393976
585.084037	20789.970519
585.437113	20716.435208
585.790135	20920.155797
586.143103	20372.119359
586.496016	20394.343286
586.848874	20631.990840
587.201679	20546.497912
587.554428	20249.498333
587.907124	20581.458314
588.259765	20332.568987
588.612352	20407.820811
588.964884	19979.100923
589.317362	20149.880092
589.669786	20214.941223
590.022155	20221.608149
590.374470	20452.505598
590.726731	20215.750329
591.078937	20002.890128
591.431090	20099.435786
591.783188	19855.317911
592.135232	19808.329316
592.487222	19909.124667
592.839157	19919.542211
593.191038	19797.977307
593.542866	19694.197593
593.894639	19397.311440
594.246358	19621.317632
594.598022	19518.377270
594.949633	19265.737325
595.301190	19242.384179
595.652692	19416.800541
596.004141	19643.518873
596.355535	18974.025916
596.706876	18997.260594
597.058162	18886.166166
597.409395	19113.948182
597.760573	19170.809877
598.111698	18951.557493
598.462768	18893.450634
598.813785	18872.897849
599.164748	18662.258277
599.515657	18723.818327
599.866511	18518.318211
600.217312	18868.875009
600.568060	18385.582110
600.918753	18693.407567
601.269392	18594.540458
601.619978	18381.239156
601.970510	18577.208971
602.320988	18530.721970
602.671412	18725.461743
603.021783	18656.584458
603.372100	18362.778451
603.722363	18516.437861
604.072572	18458.106670
604.422728	18605.623434
604.772830	18364.424387
605.122878	18324.478284
605.472872	18304.669070
605.822813	18281.661244
606.172701	18269.184388
606.522534	18451.001163
606.872314	18478.654413
607.222041	18315.235329
607.571714	18534.608700
607.921333	18361.213172
608.270899	18432.066590
608.620411	18595.223534
608.969870	18380.969454
609.319276	18387.651504
609.668627	18403.236231
610.017926	18534.999389
610.367171	18655.074633
610.716362	18716.647286
611.065500	18523.429941
611.414585	18668.685748
611.763616	18644.800761
612.112594	18586.983768
612.461518	18556.021001
612.810389	18749.752543
613.159207	18598.538093
613.507971	18515.434671
613.856682	18769.554196
614.205340	18692.394295
614.553945	18857.847485
614.902496	18604.025388
615.250994	18813.818047
615.599439	18757.394933
615.947830	18750.125589
616.296169	18815.068253
616.644454	18784.523902
616.992686	18755.166742
617.340864	18969.604824
617.688990	18719.944201
618.037063	18886.375374
618.385082	18751.713552
618.733048	19017.697432
619.080961	18909.660464
619.428821	18933.091747
619.776628	18817.558583
620.124382	18747.637779
620.472083	18798.109812
620.819731	18805.379155
621.167326	18500.550665
621.514868	18546.702428
621.862357	18320.672213
622.209793	18317.105597
622.557176	18159.695568
622.904506	17978.153536
623.251783	17905.863389
623.599007	17653.457858
623.946179	17596.470134
624.293297	17535.262964
624.640363	17264.530318
624.987376	17292.826314
625.334336	17097.615193
625.681243	16943.491997
626.028097	16966.877909
626.374899	16878.924898
626.721647	16744.227788
627.068343	16581.940443
627.414987	16509.567118
627.761577	16477.273486
628.108115	16511.417221
628.454600	16242.552322
628.801032	16343.950090
629.147412	16275.022394
629.493739	16287.277439
629.840014	16099.900271
630.186236	16192.717996
630.532405	15960.320803
630.878521	16166.960220
631.224585	16060.652368
631.570597	15883.357508
631.916556	15911.882877
632.262462	15890.405041
632.608316	15806.558049
632.954117	15748.413381
633.299866	15738.434417
633.645562	15660.513302
633.991206	15412.571712
634.336797	15289.796930
634.682336	15265.233908
635.027823	15138.562315
635.373257	14997.513351
635.718639	14914.493109
636.063968	14859.668040
