Dividing Wavelength (nm)	Counts (n)	Blue Motor Position (mm): 1.400000	Red Motor Position (mm): 0.000000	
326.493990	2064.176060
326.888308	2064.176060
327.282561	2064.176060
327.676750	2041.059849
328.070874	2040.013809
328.464933	2047.973791
328.858929	2055.684236
329.252859	2068.287121
329.646726	2079.710375
330.040528	2097.467840
330.434265	2113.745725
330.827938	2135.026956
331.221547	2154.752991
331.615091	2173.556495
332.008571	2197.733869
332.401986	2214.838504
332.795338	2235.267780
333.188625	2255.530698
333.581847	2274.898811
333.975006	2291.867335
334.368100	2310.774182
334.761129	2328.249342
335.154095	2341.517659
335.546996	2356.497448
335.939833	2369.138141
336.332606	2383.460059
336.725315	2397.285423
337.117960	2408.290262
337.510540	2418.115471
337.903056	2423.123857
338.295508	2431.295568
338.687896	2436.024170
339.080220	2442.093719
339.472480	2448.180913
339.864676	2449.811726
340.256807	2454.162242
340.648875	2457.875052
341.040879	2455.193158
341.432818	2460.841771
341.824694	2459.483180
342.216506	2458.389249
342.608253	2459.475618
342.999937	2459.183231
343.391557	2460.733386
343.783113	2456.745833
344.174605	2453.837087
344.566033	2453.650565
344.957397	2449.804164
345.348697	2448.836263
345.739934	2448.652261
346.131106	2446.177054
346.522215	2446.388783
346.913260	2443.021292
347.304241	2442.088678
347.695159	2439.590787
348.086012	2438.489294
348.476802	2436.944181
348.867528	2433.380085
349.258191	2429.347162
349.648789	2432.268511
350.039324	2426.055288
350.429796	2431.242636
350.820203	2431.540064
351.210548	2429.619384
351.600828	2426.692994
351.991045	2428.838005
352.381198	2428.512851
352.771288	2425.251224
353.161314	2428.338931
353.551276	2427.965886
353.941175	2428.081832
354.331010	2429.616864
354.720782	2425.926739
355.110490	2427.222316
355.500135	2428.162491
355.889717	2429.150557
356.279235	2429.778181
356.668689	2430.199117
357.058080	2427.943201
357.447408	2430.894796
357.836672	2429.400094
358.225873	2430.751123
358.615010	2430.990578
359.004084	2431.943356
359.393095	2433.528799
359.782043	2434.181628
360.170927	2432.465116
360.559748	2434.428645
360.948505	2435.172215
361.337199	2434.166505
361.725830	2436.671958
362.114398	2436.679520
362.502903	2435.777154
362.891344	2437.531475
363.279722	2435.983841
363.668037	2437.113059
364.056289	2433.952256
364.444478	2439.689089
364.832603	2437.060127
365.220665	2439.943667
365.608665	2438.756476
365.996601	2437.299582
366.384474	2436.200611
366.772284	2437.649942
367.160031	2440.019285
367.547715	2442.098761
367.935336	2442.020623
368.322893	2441.602207
368.710388	2437.450817
369.097820	2439.784871
369.485189	2436.997113
369.872495	2445.022630
370.259738	2442.887701
370.646918	2441.461055
371.034035	2440.530962
371.421090	2443.001127
371.808081	2444.571447
372.195010	2441.662701
372.581875	2441.501384
372.968678	2445.367949
373.355418	2444.311827
373.742096	2444.120263
374.128710	2444.324430
374.515262	2445.178906
374.901751	2445.849379
375.288177	2446.726540
375.674540	2445.637651
376.060841	2445.342743
376.447079	2445.196550
376.833254	2447.777620
377.219367	2448.508588
377.605417	2447.921293
377.991404	2445.541869
378.377329	2446.235027
378.763191	2447.986828
379.148991	2447.119750
379.534727	2449.839452
379.920402	2448.576643
380.306013	2448.211160
380.691563	2449.484051
381.077049	2448.606890
381.462474	2449.158897
381.847835	2449.045471
382.233134	2452.201233
382.618371	2445.504060
383.003545	2451.261058
383.388657	2453.131326
383.773706	2451.485389
384.158693	2450.197374
384.543618	2452.135698
384.928480	2452.019751
385.313280	2449.932714
385.698017	2450.545214
386.082692	2453.436316
386.467305	2451.374484
386.851856	2453.958075
387.236344	2453.464042
387.620770	2450.520008
388.005133	2450.303238
388.389435	2451.785338
388.773674	2447.331478
389.157851	2454.434464
389.541965	2453.892540
389.926018	2455.611573
390.310008	2451.674432
390.693936	2454.104268
391.077802	2452.526387
391.461606	2454.736933
391.845348	2454.348764
392.229027	2452.906994
392.612645	2455.646862
392.996200	2456.803806
393.379694	2457.844805
393.763125	2456.612242
394.146494	2455.946810
394.529801	2459.760443
394.913047	2455.626697
395.296230	2456.680298
395.679351	2457.292798
396.062410	2458.038889
396.445408	2456.871862
396.828343	2457.537294
397.211217	2458.744651
397.594028	2457.559979
397.976778	2455.949331
398.359466	2458.905968
398.742092	2456.859259
399.124656	2456.619804
399.507158	2458.676595
399.889598	2456.017386
400.271977	2456.425720
400.654294	2457.665844
401.036549	2458.311111
401.418742	2459.397480
401.800874	2457.585185
402.182944	2461.164404
402.564952	2459.195834
402.946898	2458.842953
403.328783	2462.449899
403.710606	2458.442181
404.092367	2459.848663
404.474067	2459.808334
404.855705	2461.232460
405.237282	2457.630556
405.618797	2461.892851
406.000250	2461.774384
406.381642	2462.270938
406.762972	2456.922273
407.144240	2458.379167
407.525447	2457.315483
407.906593	2455.664506
408.287677	2459.715073
408.668700	2463.311936
409.049661	2463.261524
409.430560	2463.400156
409.811399	2463.574076
410.192176	2463.274127
410.572891	2462.805300
410.953545	2462.875876
411.334138	2461.996195
411.714669	2463.984930
412.095139	2464.380661
412.475547	2460.725824
412.855894	2465.950980
413.236180	2462.127265
413.616405	2466.515589
413.996568	2464.516772
414.376670	2461.189610
414.756711	2466.744962
415.136691	2463.874025
415.516609	2462.192800
415.896466	2464.141206
416.276262	2465.913171
416.655997	2465.028449
417.035670	2462.016359
417.415283	2465.744293
417.794834	2465.346042
418.174324	2464.836885
418.553753	2468.247226
418.933121	2466.197997
419.312428	2466.921402
419.691674	2467.748151
420.070859	2468.148923
420.449983	2463.518623
420.829045	2466.586165
421.208047	2465.593058
421.586988	2467.246557
421.965867	2467.218830
422.344686	2466.795373
422.723444	2468.713532
423.102141	2465.555249
423.480777	2466.296299
423.859352	2466.530713
424.237866	2468.322843
424.616319	2468.705971
424.994712	2468.171608
425.373044	2470.198152
425.751314	2467.062554
426.129524	2465.220013
426.507673	2466.558439
426.885762	2464.395784
427.263789	2471.521455
427.641756	2468.010291
428.019662	2468.501804
428.397508	2470.553553
428.775292	2467.594396
429.153016	2469.139510
429.530679	2468.153964
429.908282	2467.980044
430.285824	2472.562453
430.663305	2469.396609
431.040726	2469.580611
431.418086	2470.230920
431.795385	2469.358800
432.172624	2471.027422
432.549802	2470.019191
432.926920	2474.057155
433.303977	2471.246712
433.680974	2473.084213
434.057910	2469.615899
434.434786	2470.959366
434.811601	2468.723615
435.188355	2470.760241
435.565050	2470.120014
435.941683	2472.922896
436.318257	2471.972638
436.694770	2471.264356
437.071222	2470.248564
437.447614	2470.450210
437.823946	2472.040694
438.200218	2471.357618
438.576429	2473.376600
438.952580	2470.425004
439.328670	2473.026239
439.704700	2475.617393
440.080670	2472.265025
440.456580	2474.536065
440.832429	2473.260653
441.208218	2472.186887
441.583947	2471.503811
441.959616	2473.477423
442.335224	2476.522280
442.710773	2473.779892
443.086261	2473.109418
443.461689	2472.242340
443.837057	2471.574387
444.212365	2474.253760
444.587612	2471.095477
444.962800	2470.175467
445.337927	2470.344346
445.712995	2470.346866
446.088002	2473.926085
446.462949	2473.709316
446.837837	2474.039511
447.212664	2475.088071
447.587431	2475.196456
447.962139	2475.375417
448.336786	2476.759214
448.711374	2474.357104
449.085901	2476.610500
449.460369	2475.995479
449.834776	2473.439614
450.209124	2474.480612
450.583412	2474.697382
450.957640	2474.629326
451.331808	2477.318782
451.705917	2476.648308
452.079965	2473.041363
452.453954	2474.349542
452.827883	2475.022536
453.201752	2476.630664
453.575562	2477.044039
453.949311	2472.496918
454.323001	2476.391210
454.696632	2476.333236
455.070202	2476.217290
455.443713	2475.002372
455.817164	2480.076293
456.190556	2476.103864
456.563888	2476.928092
456.937160	2478.571509
457.310373	2475.418267
457.683526	2474.130252
458.056619	2474.853658
458.429653	2477.946406
458.802628	2474.896508
459.175542	2476.880202
459.548398	2478.730305
459.921194	2478.790799
460.293930	2478.206025
460.666607	2478.180819
461.039224	2479.483957
461.411782	2475.352732
461.784280	2476.998669
462.156719	2476.330716
462.529099	2478.687455
462.901419	2476.285345
463.273680	2475.413226
463.645882	2474.165540
464.018024	2474.412557
464.390106	2473.858030
464.762130	2479.178968
465.134094	2476.297948
465.505999	2477.253247
465.877845	2477.207877
466.249631	2476.550006
466.621358	2477.407002
466.993026	2477.989255
467.364634	2480.318268
467.736184	2475.934985
468.107674	2479.494040
468.479105	2479.103350
468.850477	2477.253247
469.221790	2477.724595
469.593043	2479.486478
469.964238	2479.902373
470.335373	2479.917497
470.706449	2478.974801
471.077467	2475.355252
471.448425	2478.967239
471.819324	2477.752321
472.190164	2478.001858
472.560945	2477.543113
472.931667	2481.031592
473.302330	2476.885243
473.672934	2478.863896
474.043479	2478.775675
474.413965	2481.316417
474.784393	2476.529841
475.154761	2482.128043
475.525070	2478.813484
475.895321	2480.333392
476.265513	2479.998155
476.635645	2482.249030
477.005719	2476.948257
477.375734	2479.673001
477.745691	2480.928248
478.115588	2480.048567
478.485427	2480.222487
478.855207	2481.586119
479.224928	2480.494709
479.594591	2479.736015
479.964194	2479.937661
480.333739	2478.634523
480.703226	2480.214925
481.072653	2480.179637
481.442022	2482.004534
481.811333	2474.873822
482.180584	2477.376755
482.549777	2478.513535
482.918912	2474.253760
483.287988	2482.314565
483.657005	2480.265336
484.025964	2483.118629
484.394864	2480.870275
484.763706	2478.546303
485.132489	2479.887250
485.501213	2482.695173
485.869879	2479.546972
486.238487	2479.133597
486.607036	2481.084524
486.975527	2480.814822
487.343959	2480.814822
487.712333	2484.394041
488.080648	2480.469503
488.448905	2480.933289
488.817104	2481.114771
489.185244	2484.386480
489.553326	2480.754328
489.921350	2482.700214
490.289315	2484.462097
490.657222	2481.208032
491.025070	2480.812302
491.392861	2481.228197
491.760593	2478.495891
492.128267	2480.436736
492.495883	2484.792292
492.863440	2482.899339
493.230939	2481.800368
493.598380	2481.765080
493.965763	2481.616366
494.333088	2482.206181
494.700354	2478.511015
495.067563	2480.925727
495.434713	2482.075111
495.801805	2479.524287
496.168839	2481.641571
496.535815	2481.843218
496.902733	2484.096613
497.269593	2483.751294
497.636395	2482.518732
498.003139	2484.041161
498.369825	2480.212404
498.736453	2482.606952
499.103023	2481.444966
499.469535	2483.552169
499.835989	2484.406644
500.202385	2481.107209
500.568723	2481.185347
500.935003	2479.670480
501.301226	2477.906076
501.667390	2481.228197
502.033497	2485.039309
502.399546	2484.933445
502.765537	2482.105358
503.131470	2482.818681
503.497345	2483.277426
503.863163	2481.729792
504.228923	2482.995121
504.594625	2482.722899
504.960269	2482.879175
505.325856	2484.968733
505.691385	2483.010245
506.056856	2481.921355
506.422270	2482.163331
506.787625	2483.753815
507.152924	2482.647282
507.518164	2483.910091
507.883347	2482.657364
508.248472	2483.060656
508.613540	2484.580564
508.978550	2482.412868
509.343503	2481.210553
509.708398	2482.594349
510.073236	2480.514873
510.438016	2483.595018
510.802738	2484.900677
511.167403	2483.910091
511.532010	2482.846407
511.896561	2484.273054
512.261053	2481.497898
512.625488	2486.135760
512.989866	2482.087713
513.354186	2482.846407
513.718449	2484.804895
514.082655	2483.882364
514.446803	2482.680049
514.810894	2484.157107
515.174927	2483.267343
515.538904	2484.963692
515.902822	2484.701552
516.266684	2483.630307
516.630488	2485.031747
516.994235	2486.465956
517.357925	2483.897488
517.721558	2485.717344
518.085133	2482.765749
518.448651	2480.721561
518.812112	2478.379945
519.175516	2480.391365
519.538863	2478.652167
519.902152	2486.339927
520.265385	2484.268013
520.628560	2483.325317
520.991678	2485.810606
521.354739	2481.233238
521.717743	2487.017962
522.080690	2483.549648
522.443580	2485.818167
522.806413	2483.668115
523.169189	2484.391521
523.531908	2485.566110
523.894569	2483.433702
524.257174	2485.006542
524.619722	2484.333548
524.982213	2485.142653
525.344647	2484.452015
525.707025	2484.275574
526.069345	2484.381438
526.431608	2484.104175
526.793815	2483.617704
527.155964	2483.937817
527.518057	2483.995790
527.880093	2484.567961
528.242072	2482.793475
528.603995	2483.015286
528.965860	2485.213229
529.327669	2484.089052
529.689421	2483.950420
530.051117	2485.931593
530.412755	2483.779021
530.774337	2484.348671
531.135862	2484.305821
531.497331	2485.490492
531.858743	2484.066366
532.220098	2485.692138
532.581396	2484.837663
532.942638	2482.123002
533.303824	2487.547283
533.664953	2484.676346
534.026025	2485.450163
534.387040	2485.389669
534.747999	2486.753301
535.108902	2485.394710
535.469748	2485.694659
535.830537	2485.659371
536.191270	2486.135760
536.551947	2482.427991
536.912567	2483.665595
537.273131	2482.758187
537.633638	2481.132415
537.994089	2482.186016
538.354483	2485.296408
538.714821	2482.541417
539.075103	2487.761532
539.435328	2486.264309
539.795497	2486.670122
540.155609	2486.155925
540.515665	2483.335399
540.875665	2486.450832
541.235609	2483.529483
541.595496	2485.898826
541.955328	2485.828250
542.315102	2485.440081
542.674821	2485.263640
543.034483	2486.886892
543.394090	2483.763897
543.753640	2483.307673
544.113134	2488.706748
544.472571	2487.254896
544.831953	2485.256079
545.191278	2484.194916
545.550548	2486.397900
545.909761	2487.136429
546.268918	2486.617190
546.628019	2485.407313
546.987064	2488.777325
547.346053	2484.109216
547.704986	2485.853455
548.063863	2484.126860
548.422684	2484.704072
548.781449	2484.509988
549.140158	2487.375884
549.498811	2484.207519
549.857408	2486.037458
550.215949	2484.855307
550.574434	2486.997797
550.932864	2486.221460
551.291237	2486.113075
551.649555	2483.479072
552.007817	2487.935452
552.366022	2485.729947
552.724173	2482.967395
553.082267	2483.887405
553.440305	2486.034937
553.798288	2484.522591
554.156215	2487.217087
554.514086	2482.992601
554.871902	2481.974287
555.229661	2482.624596
555.587365	2478.208546
555.945014	2484.212560
556.302606	2486.881851
556.660143	2486.339927
557.017625	2486.360091
557.375050	2482.599391
557.732421	2484.693990
558.089735	2485.309011
558.446994	2485.240955
558.804197	2487.484269
559.161345	2485.150214
559.518437	2488.096769
559.875474	2482.894298
560.232455	2485.974443
560.589381	2485.578713
560.946251	2485.545945
561.303065	2486.133239
561.659825	2484.898157
562.016528	2488.164824
562.373177	2484.136942
562.729770	2483.511839
563.086307	2486.473517
563.442789	2486.619711
563.799216	2487.496872
564.155587	2484.585605
564.511904	2486.080307
564.868164	2486.599546
565.224370	2487.544762
565.580520	2485.624083
565.936615	2484.378918
566.292654	2487.748929
566.648638	2487.993425
567.004567	2486.511326
567.360441	2487.827067
567.716260	2485.608959
568.072023	2487.771614
568.427732	2482.246510
568.783385	2486.095431
569.138982	2487.852273
569.494525	2486.508805
569.850013	2483.652992
570.205445	2485.550986
570.560823	2489.180617
570.916145	2487.257417
571.271412	2485.891264
571.626625	2489.354537
571.981782	2486.067704
572.336884	2486.649958
572.691931	2481.502940
573.046923	2484.542755
573.401860	2479.055459
573.756743	2484.005872
574.111570	2486.239104
574.466342	2485.888743
574.821059	2487.673312
575.175722	2485.372025
575.530330	2485.621562
575.884882	2487.370843
576.239380	2487.511995
576.593823	2486.022334
576.948211	2484.280615
577.302544	2486.123157
577.656823	2485.291367
578.011047	2484.338589
578.365216	2486.418065
578.719330	2485.606439
579.073389	2485.629124
579.427394	2484.787251
579.781344	2486.196254
580.135239	2485.614001
580.489080	2487.595174
580.842866	2485.734988
581.196597	2486.965030
581.550273	2486.092910
581.903895	2492.127171
582.257463	2487.474186
582.610975	2485.039309
582.964434	2486.816316
583.317837	2487.088538
583.671186	2486.927221
584.024481	2487.756491
584.377721	2487.343116
584.730906	2485.394710
585.084037	2487.373363
585.437113	2485.510657
585.790135	2487.418734
586.143103	2487.050729
586.496016	2484.141984
586.848874	2485.520739
587.201679	2486.738178
587.554428	2486.140801
587.907124	2483.393372
588.259765	2487.133908
588.612352	2486.022334
588.964884	2486.397900
589.317362	2486.463435
589.669786	2487.839670
590.022155	2484.235245
590.374470	2480.645943
590.726731	2483.431181
591.078937	2482.901860
591.431090	2486.052581
591.783188	2485.135091
592.135232	2485.361943
592.487222	2483.952940
592.839157	2484.441932
593.191038	2487.464104
593.542866	2487.640544
593.894639	2486.902015
594.246358	2486.269351
594.598022	2484.459576
594.949633	2487.385966
595.301190	2486.269351
595.652692	2486.382777
596.004141	2483.930255
596.355535	2485.654330
596.706876	2485.520739
597.058162	2484.759525
597.409395	2484.434371
597.760573	2485.626603
598.111698	2487.753970
598.462768	2486.566779
598.813785	2487.569968
599.164748	2488.018631
599.515657	2487.365802
599.866511	2485.707262
600.217312	2485.135091
600.568060	2486.450832
600.918753	2488.802530
601.269392	2486.289515
601.619978	2482.082672
601.970510	2488.757160
602.320988	2483.791623
602.671412	2488.716831
603.021783	2486.160966
603.372100	2490.519043
603.722363	2488.275730
604.072572	2485.818167
604.422728	2486.322283
604.772830	2486.319762
605.122878	2488.258086
605.472872	2486.836480
605.822813	2483.766418
606.172701	2484.583085
606.522534	2484.509988
606.872314	2487.307828
607.222041	2486.007211
607.571714	2482.801037
607.921333	2484.089052
608.270899	2484.257930
608.620411	2480.172075
608.969870	2489.775473
609.319276	2485.624083
609.668627	2488.474855
610.017926	2487.564927
610.367171	2485.445122
610.716362	2485.752632
611.065500	2487.403610
611.414585	2484.343630
611.763616	2486.745740
612.112594	2488.260606
612.461518	2485.964361
612.810389	2486.881851
613.159207	2486.266830
613.507971	2485.649289
613.856682	2486.614670
614.205340	2486.279433
614.553945	2487.060812
614.902496	2487.010400
615.250994	2484.073928
615.599439	2485.155256
615.947830	2488.515185
616.296169	2486.339927
616.644454	2485.737509
616.992686	2485.550986
617.340864	2485.979484
617.688990	2487.287664
618.037063	2486.183651
618.385082	2483.710965
618.733048	2487.426295
619.080961	2485.477889
619.428821	2488.197592
619.776628	2486.387818
620.124382	2485.886223
620.472083	2486.024855
620.819731	2486.289515
621.167326	2485.750112
621.514868	2485.460245
621.862357	2486.586943
622.209793	2485.571151
622.557176	2483.930255
622.904506	2485.861017
623.251783	2486.050060
623.599007	2485.044350
623.946179	2487.025524
624.293297	2487.171717
624.640363	2484.941007
624.987376	2484.096613
625.334336	2483.647951
625.681243	2484.842704
626.028097	2479.703248
626.374899	2487.126347
626.721647	2484.799854
627.068343	2484.658702
627.414987	2487.406131
627.761577	2484.734319
628.108115	2487.587612
628.454600	2485.487972
628.801032	2487.300267
629.147412	2488.237921
629.493739	2487.769094
629.840014	2485.921511
630.186236	2487.196923
630.532405	2486.463435
630.878521	2486.186172
631.224585	2486.176089
631.570597	2487.244814
631.916556	2484.696511
632.262462	2486.188692
632.608316	2486.463435
632.954117	2484.683908
633.299866	2488.573158
633.645562	2486.158445
633.991206	2487.209526
634.336797	2485.724906
634.682336	2486.145842
635.027823	2484.666264
635.373257	2485.929073
635.718639	2485.566110
636.063968	2488.089207
636.409245	2486.977633
636.754470	2487.481748
637.099642	2485.906388
637.444762	2486.551655
637.789829	2487.534680
638.134845	2485.208188
638.479808	2485.402272
638.824719	2483.128712
639.169577	2487.264978
639.514383	2487.509474
639.859137	2484.666264
640.203839	2487.648106
640.548489	2485.800523
640.893086	2486.907057
641.237632	2485.619042
641.582125	2486.544093
641.926566	2486.060143
642.270955	2486.223980
642.615292	2481.938999
642.959576	2483.804226
643.303809	2479.904894
643.647990	2488.479897
643.992118	2486.423106
644.336195	2488.449650
