Dividing Wavelength (nm)	Counts (n)	Blue Motor Position (mm): 14.200000	Red Motor Position (mm): 0.000000	
326.493990	2134.117028
326.888308	2134.117028
327.282561	2134.117028
327.676750	2104.139807
328.070874	2101.193252
328.464933	2102.035125
328.858929	2112.482916
329.252859	2120.437857
329.646726	2132.173663
330.040528	2145.131949
330.434265	2159.451347
330.827938	2183.341375
331.221547	2198.275793
331.615091	2217.843032
332.008571	2239.381362
332.401986	2258.129413
332.795338	2274.525766
333.188625	2294.524023
333.581847	2312.830973
333.975006	2332.204127
334.368100	2351.526870
334.761129	2366.206710
335.154095	2385.423588
335.546996	2406.362021
335.939833	2422.110586
336.332606	2437.808739
336.725315	2449.441201
337.117960	2457.554938
337.510540	2465.885445
337.903056	2481.485296
338.295508	2486.294556
338.687896	2494.804024
339.080220	2502.927843
339.472480	2509.793895
339.864676	2515.308917
340.256807	2517.093486
340.648875	2519.737571
341.040879	2524.907274
341.432818	2525.028262
341.824694	2527.450536
342.216506	2525.683612
342.608253	2526.316277
342.999937	2527.379960
343.391557	2526.883407
343.783113	2526.777542
344.174605	2525.050947
344.566033	2522.656399
344.957397	2520.816378
345.348697	2519.112468
345.739934	2518.953672
346.131106	2517.393434
346.522215	2514.761952
346.913260	2511.442352
347.304241	2513.849503
347.695159	2508.732732
348.086012	2508.556292
348.476802	2502.622854
348.867528	2505.035046
349.258191	2503.651249
349.648789	2502.423728
350.039324	2500.523213
350.429796	2499.338542
350.820203	2498.869715
351.210548	2498.705877
351.600828	2496.016422
351.991045	2496.349138
352.381198	2497.269148
352.771288	2493.127840
353.161314	2494.768736
353.551276	2494.985506
353.941175	2492.124651
354.331010	2494.279744
354.720782	2494.282265
355.110490	2495.340907
355.500135	2493.556338
355.889717	2494.902327
356.279235	2493.899137
356.668689	2494.400732
357.058080	2494.977944
357.447408	2493.947028
357.836672	2489.412510
358.225873	2493.851246
358.615010	2491.449136
359.004084	2496.563387
359.393095	2495.159425
359.782043	2497.223778
360.170927	2497.725373
360.559748	2498.547081
360.948505	2500.140085
361.337199	2500.306443
361.725830	2501.901969
362.114398	2499.252842
362.502903	2499.484735
362.891344	2501.546567
363.279722	2501.029849
363.668037	2500.664365
364.056289	2504.931702
364.444478	2502.554798
364.832603	2503.840292
365.220665	2502.068327
365.608665	2504.374655
365.996601	2502.794253
366.384474	2502.557319
366.772284	2508.228617
367.160031	2504.236023
367.547715	2506.378513
367.935336	2505.188801
368.322893	2505.385406
368.710388	2504.977072
369.097820	2506.844820
369.485189	2506.096209
369.872495	2508.548730
370.259738	2508.757938
370.646918	2506.880108
371.034035	2507.036384
371.421090	2509.766169
371.808081	2508.284069
372.195010	2508.911693
372.581875	2510.013185
372.968678	2506.076044
373.355418	2504.697288
373.742096	2508.931858
374.128710	2508.649553
374.515262	2508.984790
374.901751	2508.901611
375.288177	2514.353619
375.674540	2508.457989
376.060841	2511.336488
376.447079	2511.457476
376.833254	2511.482682
377.219367	2508.160561
377.605417	2510.824811
377.991404	2508.715088
378.377329	2510.572753
378.763191	2508.818432
379.148991	2512.876561
379.534727	2512.581653
379.920402	2514.749349
380.306013	2510.396313
380.691563	2512.793382
381.077049	2513.973012
381.462474	2513.569719
381.847835	2514.063752
382.233134	2513.098371
382.618371	2512.276663
383.003545	2517.418640
383.388657	2516.841428
383.773706	2515.109792
384.158693	2517.947961
384.543618	2513.978053
384.928480	2517.090965
385.313280	2514.668691
385.698017	2515.913856
386.082692	2515.820594
386.467305	2516.493588
386.851856	2517.544669
387.236344	2517.804288
387.620770	2516.138187
388.005133	2515.865965
388.389435	2519.440143
388.773674	2517.698424
389.157851	2517.627848
389.541965	2517.718589
389.926018	2518.860410
390.310008	2518.182375
390.693936	2519.455266
391.077802	2518.487365
391.461606	2518.910822
391.845348	2518.820081
392.229027	2520.324865
392.612645	2518.933507
392.996200	2519.755215
393.379694	2523.284023
393.763125	2519.354443
394.146494	2522.300998
394.529801	2522.815195
394.913047	2522.069105
395.296230	2520.907119
395.679351	2522.172448
396.062410	2522.464835
396.445408	2522.825278
396.828343	2520.876872
397.211217	2517.005266
397.594028	2520.458456
397.976778	2518.910822
398.359466	2519.193126
398.742092	2518.363857
399.124656	2521.139012
399.507158	2521.524660
399.889598	2522.600946
400.271977	2523.989784
400.654294	2524.113293
401.036549	2523.296626
401.418742	2525.388704
401.800874	2523.450381
402.182944	2523.830988
402.564952	2527.145547
402.946898	2524.846780
403.328783	2525.413910
403.710606	2525.146729
404.092367	2523.674712
404.474067	2526.442306
404.855705	2525.973478
405.237282	2527.417769
405.618797	2527.654703
406.000250	2528.746113
406.381642	2525.093797
406.762972	2527.896678
407.144240	2529.033459
407.525447	2527.942049
407.906593	2525.131606
408.287677	2528.131092
408.668700	2528.060516
409.049661	2525.519774
409.430560	2527.992460
409.811399	2525.413910
410.192176	2529.098994
410.572891	2527.483304
410.953545	2526.462470
411.334138	2529.182173
411.714669	2528.269724
412.095139	2528.836854
412.475547	2527.833664
412.855894	2527.659744
413.236180	2531.632173
413.616405	2527.324508
413.996568	2530.303829
414.376670	2529.156967
414.756711	2530.659231
415.136691	2530.195445
415.516609	2529.973634
415.896466	2529.086391
416.276262	2531.806093
416.655997	2526.807789
417.035670	2526.845598
417.415283	2528.168901
417.794834	2527.667306
418.174324	2529.056144
418.553753	2530.145033
418.933121	2532.544622
419.312428	2530.996988
419.691674	2531.932122
420.070859	2531.077647
420.449983	2529.540095
420.829045	2531.024714
421.208047	2530.865918
421.586988	2531.760723
421.965867	2530.674354
422.344686	2531.775846
422.723444	2532.746268
423.102141	2531.463295
423.480777	2532.572349
423.859352	2533.068902
424.237866	2534.540919
424.616319	2530.828109
424.994712	2535.105528
425.373044	2536.297761
425.751314	2532.118645
426.129524	2534.341794
426.507673	2533.520086
426.885762	2531.697708
427.263789	2533.978831
427.641756	2533.825075
428.019662	2536.882535
428.397508	2533.285672
428.775292	2534.369520
429.153016	2535.599562
429.530679	2533.512524
429.908282	2532.285003
430.285824	2532.350538
430.663305	2530.681916
431.040726	2533.671320
431.418086	2532.985723
431.795385	2535.770961
432.172624	2535.125693
432.549802	2536.267514
432.926920	2534.152750
433.303977	2534.999664
433.680974	2536.433873
434.057910	2535.967566
434.434786	2535.939839
434.811601	2536.663245
435.188355	2534.866074
435.565050	2537.963863
435.941683	2536.474202
436.318257	2534.230888
436.694770	2533.494880
437.071222	2533.799870
437.447614	2530.797863
437.823946	2534.510672
438.200218	2537.613503
438.576429	2540.683565
438.952580	2534.619057
439.328670	2537.903369
439.704700	2536.219623
440.080670	2537.326157
440.456580	2535.229037
440.832429	2538.165509
441.208218	2535.231557
441.583947	2537.893287
441.959616	2535.498738
442.335224	2539.738349
442.710773	2537.386651
443.086261	2535.455889
443.461689	2537.517721
443.837057	2536.806918
444.212365	2535.108049
444.587612	2539.531662
444.962800	2540.219779
445.337927	2537.704243
445.712995	2537.217772
446.088002	2537.598379
446.462949	2539.322454
446.837837	2536.527134
447.212664	2539.952598
447.587431	2539.882022
447.962139	2542.609286
448.336786	2541.301107
448.711374	2537.931095
449.085901	2539.763555
449.460369	2541.868236
449.834776	2539.907227
450.209124	2540.292876
450.583412	2542.193391
450.957640	2539.635005
451.331808	2540.033256
451.705917	2538.878832
452.079965	2538.286497
452.453954	2542.082485
452.827883	2538.954449
453.201752	2540.499563
453.575562	2544.260264
453.949311	2539.380427
454.323001	2542.107691
454.696632	2540.434028
455.070202	2542.193391
455.443713	2537.857998
455.817164	2540.035777
456.190556	2537.553009
456.563888	2538.364634
456.937160	2536.350693
457.310373	2543.839328
457.683526	2541.837989
458.056619	2540.423946
458.429653	2543.584749
458.802628	2539.337577
459.175542	2542.460572
459.548398	2541.429656
459.921194	2541.958977
460.293930	2543.773793
460.666607	2543.456200
461.039224	2540.817156
461.411782	2543.393185
461.784280	2543.650284
462.156719	2544.681200
462.529099	2541.225489
462.901419	2543.362938
463.273680	2542.102650
463.645882	2543.483926
464.018024	2541.759852
464.390106	2544.323278
464.762130	2543.441076
465.134094	2544.073741
465.505999	2543.877136
465.877845	2543.494008
466.249631	2547.199257
466.621358	2544.146838
466.993026	2550.138249
467.364634	2548.525080
467.736184	2545.260933
468.107674	2543.917465
468.479105	2542.442928
468.850477	2541.643905
469.221790	2546.032229
469.593043	2545.023999
469.964238	2546.017106
470.335373	2544.192208
470.706449	2544.487116
471.077467	2545.142466
471.448425	2545.976777
471.819324	2545.001313
472.190164	2546.896787
472.560945	2545.870912
472.931667	2546.914431
473.302330	2546.332178
473.672934	2547.761345
474.043479	2544.681200
474.413965	2547.007693
474.784393	2539.690458
475.154761	2545.056766
475.525070	2541.527958
475.895321	2544.724050
476.265513	2541.044008
476.635645	2545.502908
477.005719	2548.078938
477.375734	2547.473999
477.745691	2545.323947
478.115588	2547.962991
478.485427	2547.834442
478.855207	2547.398382
479.224928	2546.798485
479.594591	2548.797302
479.964194	2547.552137
480.333739	2548.000800
480.703226	2550.284443
481.072653	2547.181612
481.442022	2548.525080
481.811333	2548.762014
482.180584	2547.869730
482.549777	2547.809236
482.918912	2549.245965
483.287988	2550.231511
483.657005	2547.879812
484.025964	2548.925852
484.394864	2549.921480
484.763706	2549.036757
485.132489	2551.138918
485.501213	2548.613300
485.869879	2548.356201
486.238487	2545.364277
486.607036	2548.487271
486.975527	2549.924000
487.343959	2551.756460
487.712333	2548.736808
488.080648	2548.930893
488.448905	2549.626572
488.817104	2551.872406
489.185244	2548.063814
489.553326	2551.630431
489.921350	2549.472817
490.289315	2548.799823
490.657222	2547.920142
491.025070	2551.726213
491.392861	2548.895605
491.760593	2549.523228
492.128267	2550.881819
492.495883	2548.245296
492.863440	2553.140256
493.230939	2550.758311
493.598380	2549.555996
493.965763	2544.981149
494.333088	2547.806716
494.700354	2545.787733
495.067563	2550.884340
495.434713	2544.255223
495.801805	2548.759494
496.168839	2549.649257
496.535815	2549.555996
496.902733	2552.300904
497.269593	2549.739998
497.636395	2548.739329
498.003139	2550.607077
498.369825	2552.522715
498.736453	2548.394010
499.103023	2551.847200
499.469535	2550.481048
499.835989	2546.785882
500.202385	2551.794268
500.568723	2550.667570
500.935003	2552.545400
501.301226	2550.891902
501.667390	2552.437015
502.033497	2551.814433
502.399546	2552.258054
502.765537	2548.749411
503.131470	2550.828887
503.497345	2552.873075
503.863163	2550.453321
504.228923	2550.541542
504.594625	2552.328631
504.960269	2552.444577
505.325856	2551.015410
505.691385	2554.166131
506.056856	2552.820143
506.422270	2553.757798
506.787625	2554.944989
507.152924	2553.596481
507.518164	2555.214691
507.883347	2554.614794
508.248472	2555.706204
508.613540	2554.135884
508.978550	2551.607746
509.343503	2553.359547
509.708398	2553.868703
510.073236	2553.525905
510.438016	2555.870041
510.802738	2554.733261
511.167403	2556.613611
511.532010	2555.083621
511.896561	2555.431461
512.261053	2557.473128
512.625488	2553.399876
512.989866	2552.013558
513.354186	2551.499361
513.718449	2550.428116
514.082655	2556.618653
514.446803	2557.145453
514.810894	2558.927501
515.174927	2560.225598
515.538904	2557.790721
515.902822	2558.675443
516.266684	2559.366081
516.630488	2557.846173
516.994235	2560.333983
517.357925	2561.553942
517.721558	2561.596792
518.085133	2558.030176
518.448651	2562.731052
518.812112	2560.031514
519.175516	2562.179045
519.538863	2562.216854
519.902152	2561.629559
520.265385	2563.272976
520.628560	2561.889179
520.991678	2561.601833
521.354739	2564.238357
521.717743	2564.044272
522.080690	2565.007132
522.443580	2565.508727
522.806413	2566.340518
523.169189	2565.571742
523.531908	2563.063768
523.894569	2564.480332
524.257174	2565.385219
524.619722	2564.863460
524.982213	2566.007802
525.344647	2566.915209
525.707025	2564.692060
526.069345	2567.096691
526.431608	2567.648697
526.793815	2568.994685
527.155964	2568.820765
527.518057	2568.044428
527.880093	2570.005437
528.242072	2571.028791
528.603995	2570.736404
528.965860	2570.703636
529.327669	2570.592731
529.689421	2569.791187
530.051117	2571.338822
530.412755	2569.571897
530.774337	2570.365879
531.135862	2569.103070
531.497331	2569.062741
531.858743	2565.760785
532.220098	2570.040725
532.581396	2568.251115
532.942638	2568.407391
533.303824	2573.335119
533.664953	2573.766137
534.026025	2571.134655
534.387040	2574.529872
534.747999	2571.989131
535.108902	2576.437949
535.469748	2572.105077
535.830537	2575.165057
536.191270	2575.197825
536.551947	2575.727146
536.912567	2578.305696
537.273131	2574.308061
537.633638	2577.630182
537.994089	2574.739080
538.354483	2578.623289
538.714821	2579.185378
539.075103	2578.295614
539.435328	2578.671180
539.795497	2579.686973
540.155609	2581.549679
540.515665	2581.050605
540.875665	2578.701427
541.235609	2579.112281
541.595496	2583.273753
541.955328	2581.867272
542.315102	2582.729309
542.674821	2584.284505
543.034483	2584.534042
543.394090	2585.658219
543.753640	2584.443301
544.113134	2585.627972
544.472571	2586.966399
544.831953	2585.915318
545.191278	2589.628128
545.550548	2591.306832
545.909761	2589.471852
546.268918	2589.287850
546.628019	2591.200968
546.987064	2592.879672
547.346053	2593.136771
547.704986	2591.523602
548.063863	2594.528129
548.422684	2596.002667
548.781449	2597.154571
549.140158	2599.871752
549.498811	2596.990733
549.857408	2600.695981
550.215949	2599.115579
550.574434	2599.165991
550.932864	2601.527772
551.291237	2602.813266
551.649555	2606.773092
552.007817	2611.085799
552.366022	2609.253340
552.724173	2611.594956
553.082267	2611.904987
553.440305	2617.125102
553.798288	2613.770214
554.156215	2619.814557
554.514086	2622.418313
554.871902	2622.655247
555.229661	2623.479476
555.587365	2625.937038
555.945014	2629.102883
556.302606	2632.871146
556.660143	2631.230250
557.017625	2638.938174
557.375050	2639.154944
557.732421	2639.974131
558.089735	2645.380769
558.446994	2647.838331
558.804197	2652.478713
559.161345	2652.037612
559.518437	2654.646410
559.875474	2659.788387
560.232455	2663.712925
560.589381	2666.818276
560.946251	2674.758093
561.303065	2673.538134
561.659825	2680.636078
562.016528	2684.474917
562.373177	2678.934689
562.729770	2689.584126
563.086307	2693.564117
563.442789	2696.210723
563.799216	2701.786239
564.155587	2706.005685
564.511904	2708.531303
564.868164	2713.743856
565.224370	2718.348950
565.580520	2721.862634
565.936615	2727.213819
566.292654	2733.497617
566.648638	2739.264697
567.004567	2749.866244
567.360441	2753.072418
567.716260	2755.025865
568.072023	2763.288316
568.427732	2767.278389
568.783385	2767.969027
569.138982	2782.328754
569.494525	2784.330092
569.850013	2788.441153
570.205445	2807.340439
570.560823	2806.526293
570.916145	2816.149855
571.271412	2827.154694
571.626625	2831.094356
571.981782	2838.093998
572.336884	2849.431553
572.691931	2854.462625
573.046923	2865.636342
573.401860	2872.366282
573.756743	2880.974053
574.111570	2890.854714
574.466342	2898.048441
574.821059	2911.767941
575.175722	2916.317582
575.530330	2925.101793
575.884882	2937.104780
576.239380	2945.828497
576.593823	2950.725978
576.948211	2965.761219
577.302544	2964.261476
577.656823	2981.212356
578.011047	2989.850373
578.365216	3008.469875
578.719330	3010.302334
579.073389	3029.388143
579.427394	3030.245139
579.781344	3044.846841
580.135239	3053.961247
580.489080	3070.579411
580.842866	3078.761203
581.196597	3094.318204
581.550273	3108.647684
581.903895	3121.797534
582.257463	3139.628095
582.610975	3153.183757
582.964434	3164.841426
583.317837	3174.936336
583.671186	3182.717357
584.024481	3201.183104
584.377721	3212.500494
584.730906	3225.221846
585.084037	3247.695310
585.437113	3249.353849
585.790135	3272.225564
586.143103	3279.968777
586.496016	3293.474028
586.848874	3313.978921
587.201679	3328.792352
587.554428	3335.698733
587.907124	3359.346785
588.259765	3369.048486
588.612352	3399.146695
588.964884	3396.978999
589.317362	3421.040426
589.669786	3440.169084
590.022155	3458.775983
590.374470	3481.231803
590.726731	3487.145076
591.078937	3490.903257
591.431090	3528.517826
591.783188	3522.496168
592.135232	3545.032646
592.487222	3555.563616
592.839157	3586.521342
593.191038	3592.091817
593.542866	3600.901233
593.894639	3605.040021
594.246358	3631.622025
594.598022	3654.501302
594.949633	3658.869462
595.301190	3673.619878
595.652692	3694.270964
596.004141	3738.970876
596.355535	3712.587997
596.706876	3725.977302
597.058162	3738.421390
597.409395	3774.410187
597.760573	3806.774395
598.111698	3803.933705
598.462768	3824.715861
598.813785	3834.745237
599.164748	3855.852548
599.515657	3862.479145
599.866511	3874.119169
600.217312	3922.541972
600.568060	3908.157040
600.918753	3953.217393
601.269392	3965.333807
601.619978	3969.205413
601.970510	4005.189169
602.320988	4023.196171
602.671412	4067.419693
603.021783	4063.699321
603.372100	4077.209613
603.722363	4102.624591
604.072572	4116.480202
604.422728	4141.335611
604.772830	4145.305520
605.122878	4168.053726
605.472872	4178.977907
605.822813	4212.183987
606.172701	4219.118094
606.522534	4267.354375
606.872314	4282.818114
607.222041	4301.737565
607.571714	4341.575283
607.921333	4349.683979
608.270899	4376.739852
608.620411	4423.821708
608.969870	4419.733332
609.319276	4440.601188
609.668627	4472.730983
610.017926	4508.263555
610.367171	4552.340884
610.716362	4560.331113
611.065500	4586.545113
611.414585	4618.001913
611.763616	4633.329541
612.112594	4653.209331
612.461518	4684.585473
612.810389	4726.401844
613.159207	4729.101382
613.507971	4731.725302
613.856682	4805.295902
614.205340	4801.804903
614.553945	4861.217421
614.902496	4848.032283
615.250994	4890.690527
615.599439	4905.773660
615.947830	4936.902785
616.296169	4949.278817
616.644454	4978.000791
616.992686	4999.403010
617.340864	5050.399322
617.688990	5033.579513
618.037063	5090.121094
618.385082	5093.218883
618.733048	5157.954860
619.080961	5146.781143
619.428821	5182.480074
619.776628	5208.308425
620.124382	5206.922108
620.472083	5224.412391
620.819731	5257.936064
621.167326	5234.265327
621.514868	5254.944140
621.862357	5225.433225
622.209793	5254.606382
622.557176	5247.712604
622.904506	5253.371300
623.251783	5240.362602
623.599007	5240.057612
623.946179	5265.510398
624.293297	5266.385038
624.640363	5243.041975
624.987376	5258.367083
625.334336	5245.043313
625.681243	5243.835957
626.028097	5256.824490
626.374899	5263.393113
626.721647	5285.687616
627.068343	5261.449749
627.414987	5266.919401
627.761577	5263.015027
628.108115	5298.756808
628.454600	5258.344398
628.801032	5310.996729
629.147412	5295.527949
629.493739	5313.781967
629.840014	5294.411333
630.186236	5349.014591
630.532405	5294.895284
630.878521	5342.103169
631.224585	5330.523639
631.570597	5305.254855
631.916556	5343.376060
632.262462	5352.661866
632.608316	5351.658676
632.954117	5352.487946
633.299866	5355.623544
633.645562	5379.536257
633.991206	5341.102500
634.336797	5320.252288
634.682336	5311.886493
635.027823	5304.360050
635.373257	5314.764992
635.718639	5290.063338
636.063968	5315.498480
636.409245	5261.512763
636.754470	5273.861069
637.099642	5261.986632
637.444762	5240.612139
637.789829	5264.023258
638.134845	5234.610646
638.479808	5239.389659
638.824719	5251.979941
639.169577	5216.006267
639.514383	5245.736472
639.859137	5210.695412
640.203839	5227.313575
640.548489	5233.602415
640.893086	5230.224842
641.237632	5223.658739
641.582125	5251.987503
641.926566	5240.584413
642.270955	5262.110140
642.615292	5274.839053
642.959576	5295.119615
643.303809	5297.204132
643.647990	5316.100898
643.992118	5317.673738
644.336195	5290.297752
