Dividing Wavelength (nm)	Counts (n)	Blue Motor Position (mm): 18.000000	Red Motor Position (mm): 0.000000	
326.493990	2158.609474
326.888308	2158.609474
327.282561	2158.609474
327.676750	2132.163581
328.070874	2131.044445
328.464933	2138.974180
328.858929	2147.145890
329.252859	2160.262973
329.646726	2173.352328
330.040528	2187.459998
330.434265	2207.402802
330.827938	2224.625904
331.221547	2244.162896
331.615091	2264.259456
332.008571	2285.583537
332.401986	2303.845116
332.795338	2325.176759
333.188625	2344.985973
333.581847	2361.815865
333.975006	2384.024668
334.368100	2401.189797
334.761129	2420.139494
335.154095	2437.672627
335.546996	2461.550053
335.939833	2484.376397
336.332606	2500.240908
336.725315	2508.752897
337.117960	2517.950482
337.510540	2525.280320
337.903056	2537.822710
338.295508	2541.187681
338.687896	2552.860472
339.080220	2557.674774
339.472480	2562.852039
339.864676	2567.046279
340.256807	2571.066599
340.648875	2573.680438
341.040879	2574.613051
341.432818	2575.948957
341.824694	2576.994996
342.216506	2572.755386
342.608253	2575.422156
342.999937	2575.212948
343.391557	2573.864440
343.783113	2576.831159
344.174605	2573.834193
344.566033	2567.159705
344.957397	2566.645507
345.348697	2564.850857
345.739934	2563.159550
346.131106	2565.095353
346.522215	2563.373799
346.913260	2560.545711
347.304241	2558.935063
347.695159	2557.125288
348.086012	2553.624207
348.476802	2553.556152
348.867528	2552.137067
349.258191	2550.924669
349.648789	2552.356357
350.039324	2547.267312
350.429796	2548.436860
350.820203	2546.259081
351.210548	2546.183464
351.600828	2546.798485
351.991045	2544.204811
352.381198	2543.703216
352.771288	2544.434184
353.161314	2542.616848
353.551276	2546.218752
353.941175	2542.117773
354.331010	2543.244471
354.720782	2543.103319
355.110490	2546.180943
355.500135	2546.248999
355.889717	2545.137425
356.279235	2543.360418
356.668689	2546.236396
357.058080	2544.265305
357.447408	2542.694986
357.836672	2542.321940
358.225873	2543.423432
358.615010	2542.778165
359.004084	2546.858979
359.393095	2548.220090
359.782043	2550.647406
360.170927	2549.780327
360.559748	2550.735626
360.948505	2547.416026
361.337199	2550.561706
361.725830	2548.857796
362.114398	2553.818292
362.502903	2551.300235
362.891344	2550.009700
363.279722	2552.668908
363.668037	2555.960782
364.056289	2553.576316
364.444478	2554.556821
364.832603	2554.748384
365.220665	2554.829043
365.608665	2554.428271
365.996601	2553.102448
366.384474	2557.263920
366.772284	2555.991029
367.160031	2558.100752
367.547715	2556.842984
367.935336	2557.258879
368.322893	2557.523540
368.710388	2560.439847
369.097820	2558.763663
369.485189	2558.521688
369.872495	2556.963972
370.259738	2560.333983
370.646918	2558.143602
371.034035	2559.441699
371.421090	2560.767522
371.808081	2557.664692
372.195010	2560.616288
372.581875	2560.863304
372.968678	2560.631411
373.355418	2559.991184
373.742096	2562.708366
374.128710	2561.327090
374.515262	2564.326577
374.901751	2563.462019
375.288177	2561.017059
375.674540	2561.690053
376.060841	2559.643345
376.447079	2561.473284
376.833254	2561.811041
377.219367	2559.532439
377.605417	2558.614949
377.991404	2559.156873
378.377329	2561.735424
378.763191	2558.650238
379.148991	2562.075702
379.534727	2562.491597
379.920402	2563.956052
380.306013	2564.404715
380.691563	2564.873542
381.077049	2565.160888
381.462474	2564.992009
381.847835	2564.994530
382.233134	2565.060065
382.618371	2567.016032
383.003545	2565.780950
383.388657	2566.040569
383.773706	2569.095508
384.158693	2566.587534
384.543618	2569.776064
384.928480	2565.415466
385.313280	2568.145251
385.698017	2567.807493
386.082692	2569.047617
386.467305	2569.478636
386.851856	2569.849161
387.236344	2569.133317
387.620770	2569.965107
388.005133	2568.755230
388.389435	2567.305899
388.773674	2570.297823
389.157851	2568.687175
389.541965	2571.205231
389.926018	2570.411249
390.310008	2570.983420
390.693936	2570.227247
391.077802	2569.186249
391.461606	2571.805128
391.845348	2570.149109
392.229027	2572.130283
392.612645	2571.174984
392.996200	2570.660787
393.379694	2573.675397
393.763125	2571.210272
394.146494	2574.555078
394.529801	2573.219172
394.913047	2572.906621
395.296230	2574.648339
395.679351	2572.717577
396.062410	2575.633885
396.445408	2574.643298
396.828343	2572.805797
397.211217	2571.467371
397.594028	2573.808987
397.976778	2569.372772
398.359466	2572.704974
398.742092	2572.654563
399.124656	2574.683627
399.507158	2574.008113
399.889598	2575.369224
400.271977	2575.190263
400.654294	2576.805953
401.036549	2575.918710
401.418742	2577.146231
401.800874	2575.301169
402.182944	2575.959039
402.564952	2575.664132
402.946898	2577.594894
403.328783	2575.684296
403.710606	2577.383165
404.092367	2576.395099
404.474067	2574.855027
404.855705	2578.535069
405.237282	2577.458782
405.618797	2579.999524
406.000250	2579.107240
406.381642	2578.283011
406.762972	2577.494071
407.144240	2578.782085
407.525447	2580.231417
407.906593	2576.006930
408.287677	2578.860223
408.668700	2578.769482
409.049661	2578.615727
409.430560	2576.805953
409.811399	2580.667477
410.192176	2578.961046
410.572891	2580.601942
410.953545	2578.923238
411.334138	2580.249061
411.714669	2581.930286
412.095139	2580.632189
412.475547	2579.114802
412.855894	2583.805595
413.236180	2581.597570
413.616405	2581.519432
413.996568	2583.200657
414.376670	2585.035637
414.756711	2579.465162
415.136691	2584.337437
415.516609	2578.845100
415.896466	2584.803744
416.276262	2583.309042
416.655997	2579.767631
417.035670	2577.461303
417.415283	2580.917014
417.794834	2578.608166
418.174324	2581.189236
418.553753	2583.750143
418.933121	2586.651327
419.312428	2582.915832
419.691674	2583.034299
420.070859	2584.234093
420.449983	2582.194947
420.829045	2584.246696
421.208047	2583.702252
421.586988	2583.185533
421.965867	2585.880030
422.344686	2584.443301
422.723444	2586.968919
423.102141	2583.482961
423.480777	2586.139649
423.859352	2584.806264
424.237866	2587.004207
424.616319	2586.162335
424.994712	2584.569330
425.373044	2582.106726
425.751314	2584.239134
426.129524	2585.496902
426.507673	2586.956316
426.885762	2584.171079
427.263789	2586.840370
427.641756	2587.208374
428.019662	2586.621080
428.397508	2584.163517
428.775292	2585.154104
429.153016	2587.364650
429.530679	2588.221646
429.908282	2588.352716
430.285824	2586.711820
430.663305	2586.555545
431.040726	2585.953127
431.418086	2586.336254
431.795385	2588.236769
432.172624	2586.479927
432.549802	2586.769794
432.926920	2585.418764
433.303977	2587.503282
433.680974	2586.905905
434.057910	2588.100658
434.434786	2589.776842
434.811601	2589.055957
435.188355	2590.177614
435.565050	2587.727613
435.941683	2588.763570
436.318257	2584.327355
436.694770	2586.091758
437.071222	2587.082345
437.447614	2588.206522
437.823946	2584.392890
438.200218	2589.154259
438.576429	2589.033272
438.952580	2589.809609
439.328670	2592.322625
439.704700	2590.757346
440.080670	2591.800865
440.456580	2590.429671
440.832429	2589.292891
441.208218	2590.376739
441.583947	2590.865731
441.959616	2590.356575
442.335224	2588.844228
442.710773	2592.660382
443.086261	2591.785742
443.461689	2590.769949
443.837057	2592.466297
444.212365	2591.964703
444.587612	2591.195927
444.962800	2590.132243
445.337927	2590.520412
445.712995	2590.152408
446.088002	2593.472008
446.462949	2593.371185
446.837837	2592.403283
447.212664	2592.415886
447.587431	2593.918150
447.962139	2592.589806
448.336786	2595.957297
448.711374	2593.076277
449.085901	2594.109714
449.460369	2593.923191
449.834776	2594.891092
450.209124	2592.317583
450.583412	2594.298757
450.957640	2593.744230
451.331808	2594.437389
451.705917	2594.006370
452.079965	2594.215578
452.453954	2594.618870
452.827883	2593.978644
453.201752	2597.041145
453.575562	2595.385126
453.949311	2595.523757
454.323001	2595.032245
454.696632	2590.903540
455.070202	2596.201792
455.443713	2597.794797
455.817164	2591.649631
456.190556	2591.526122
456.563888	2590.974116
456.937160	2590.477562
457.310373	2594.664241
457.683526	2595.183479
458.056619	2595.725403
458.429653	2597.336052
458.802628	2597.830085
459.175542	2596.816813
459.548398	2596.050558
459.921194	2596.894951
460.293930	2597.003336
460.666607	2596.567276
461.039224	2599.528954
461.411782	2597.920826
461.784280	2598.235898
462.156719	2599.407966
462.529099	2597.678851
462.901419	2599.576845
463.273680	2597.502410
463.645882	2598.089705
464.018024	2596.264807
464.390106	2598.782863
464.762130	2597.404108
465.134094	2600.522061
465.505999	2600.431321
465.877845	2599.975096
466.249631	2602.238574
466.621358	2603.645056
466.993026	2605.858123
467.364634	2603.022474
467.736184	2602.415015
468.107674	2600.239757
468.479105	2599.899479
468.850477	2600.471650
469.221790	2600.748913
469.593043	2602.591455
469.964238	2603.801332
470.335373	2601.104315
470.706449	2603.443410
471.077467	2603.544233
471.448425	2605.258225
471.819324	2604.010540
472.190164	2605.590942
472.560945	2603.766044
472.931667	2604.819645
473.302330	2603.153544
473.672934	2605.550612
474.043479	2604.678493
474.413965	2606.626899
474.784393	2601.076588
475.154761	2604.789398
475.525070	2600.501897
475.895321	2603.085488
476.265513	2601.429469
476.635645	2606.737804
477.005719	2606.989862
477.375734	2608.045983
477.745691	2607.683020
478.115588	2609.565891
478.485427	2610.236365
478.855207	2612.971191
479.224928	2612.043618
479.594591	2617.422530
479.964194	2615.484206
480.333739	2614.614607
480.703226	2616.096706
481.072653	2613.124946
481.442022	2615.045626
481.811333	2618.289608
482.180584	2618.566872
482.549777	2616.021089
482.918912	2616.401696
483.287988	2617.830863
483.657005	2619.781790
484.025964	2616.522684
484.394864	2618.110647
484.763706	2617.614093
485.132489	2618.448404
485.501213	2619.638117
485.869879	2621.079887
486.238487	2617.236007
486.607036	2618.584516
486.975527	2620.608539
487.343959	2621.039557
487.712333	2621.528549
488.080648	2619.113837
488.448905	2623.552573
488.817104	2621.455453
489.185244	2623.814713
489.553326	2625.682460
489.921350	2627.620784
490.289315	2630.224540
490.657222	2630.214457
491.025070	2630.375774
491.392861	2631.961217
491.760593	2630.534571
492.128267	2632.530868
492.495883	2632.059520
492.863440	2631.326032
493.230939	2630.474077
493.598380	2628.603809
493.965763	2624.210443
494.333088	2626.569703
494.700354	2629.486011
495.067563	2627.744292
495.434713	2628.359313
495.801805	2635.197638
496.168839	2631.968779
496.535815	2632.911475
496.902733	2634.701084
497.269593	2635.457257
497.636395	2634.635549
498.003139	2636.568832
498.369825	2636.722587
498.736453	2636.805766
499.103023	2638.925571
499.469535	2640.069913
499.835989	2640.165695
500.202385	2642.933289
500.568723	2641.536889
500.935003	2646.797333
501.301226	2643.792805
501.667390	2650.298414
502.033497	2651.422592
502.399546	2651.074752
502.765537	2649.106182
503.131470	2652.816471
503.497345	2653.491985
503.863163	2656.819147
504.228923	2657.257727
504.594625	2660.272337
504.960269	2661.499858
505.325856	2665.439520
505.691385	2666.104952
506.056856	2668.421362
506.422270	2667.919768
506.787625	2671.824141
507.152924	2674.455624
507.518164	2678.254133
507.883347	2677.243382
508.248472	2684.847962
508.613540	2687.262675
508.978550	2691.353571
509.343503	2692.084539
509.708398	2701.080478
510.073236	2701.375385
510.438016	2705.801518
510.802738	2706.986189
511.167403	2714.558002
511.532010	2718.515308
511.896561	2723.241390
512.261053	2731.725652
512.625488	2731.463512
512.989866	2737.465006
513.354186	2741.606313
513.718449	2745.845924
514.082655	2755.570310
514.446803	2762.083480
514.810894	2771.568411
515.174927	2775.709719
515.538904	2781.764145
515.902822	2790.807975
516.266684	2794.293933
516.630488	2806.319605
516.994235	2814.566933
517.357925	2825.675116
517.721558	2836.354800
518.085133	2845.902745
518.448651	2852.471369
518.812112	2862.788090
519.175516	2873.331663
519.538863	2884.749877
519.902152	2896.432751
520.265385	2907.664442
520.628560	2923.775969
520.991678	2933.470108
521.354739	2947.224897
521.717743	2960.231073
522.080690	2972.786067
522.443580	2991.617297
522.806413	3008.134638
523.169189	3021.501257
523.531908	3037.874925
523.894569	3051.170968
524.257174	3065.946590
524.619722	3090.736464
524.982213	3102.890686
525.344647	3123.977833
525.707025	3137.861170
526.069345	3163.223215
526.431608	3182.170392
526.793815	3204.543033
527.155964	3218.685990
527.518057	3240.040318
527.880093	3258.006990
528.242072	3286.204684
528.603995	3306.752427
528.965860	3325.538287
529.327669	3350.313038
529.689421	3375.997716
530.051117	3397.994791
530.412755	3424.975047
530.774337	3450.788275
531.135862	3473.907006
531.497331	3504.257273
531.858743	3521.417361
532.220098	3558.845408
532.581396	3581.023964
532.942638	3605.178652
533.303824	3638.546050
533.664953	3671.084177
534.026025	3696.904967
534.387040	3739.434662
534.747999	3771.672841
535.108902	3807.447389
535.469748	3824.922549
535.830537	3861.909494
536.191270	3899.788724
536.551947	3926.421140
536.912567	3966.440340
537.273131	4009.194366
537.633638	4029.686656
537.994089	4076.534099
538.354483	4100.920681
538.714821	4159.088034
539.075103	4211.427814
539.435328	4241.137854
539.795497	4278.933905
540.155609	4319.442097
540.515665	4374.062999
540.875665	4397.940424
541.235609	4454.111481
541.595496	4490.846369
541.955328	4566.229263
542.315102	4585.478909
542.674821	4616.852530
543.034483	4666.853214
543.394090	4711.013722
543.753640	4755.522069
544.113134	4845.040359
544.472571	4849.141337
544.831953	4951.696051
545.191278	4966.597701
545.550548	5001.290922
545.909761	5074.601902
546.268918	5137.134895
546.628019	5204.905647
546.987064	5230.421447
547.346053	5244.052727
547.704986	5342.919836
548.063863	5366.779617
548.422684	5430.804792
548.781449	5478.801617
549.140158	5559.656684
549.498811	5599.577581
549.857408	5619.832937
550.215949	5725.384617
550.574434	5780.411331
550.932864	5813.607329
551.291237	5926.138486
551.649555	5949.652948
552.007817	6028.788981
552.366022	6055.287807
552.724173	6126.834382
553.082267	6217.401232
553.440305	6305.886085
553.798288	6308.068904
554.156215	6390.524537
554.514086	6463.487677
554.871902	6502.112998
555.229661	6569.682104
555.587365	6615.286902
555.945014	6679.574217
556.302606	6735.820891
556.660143	6816.081101
557.017625	6887.388222
557.375050	6935.523680
557.732421	7030.947681
558.089735	7097.395130
558.446994	7152.527709
558.804197	7257.474449
559.161345	7315.767832
559.518437	7297.196221
559.875474	7400.943167
560.232455	7478.279508
560.589381	7567.886018
560.946251	7592.872497
561.303065	7736.500011
561.659825	7777.668594
562.016528	7802.234137
562.373177	7837.859971
562.729770	7956.569062
563.086307	7960.864125
563.442789	8077.919717
563.799216	8156.448291
564.155587	8186.110441
564.511904	8264.760002
564.868164	8325.604209
565.224370	8426.265969
565.580520	8458.191596
565.936615	8552.138539
566.292654	8569.908606
566.648638	8676.987755
567.004567	8737.181653
567.360441	8794.910426
567.716260	8836.933484
568.072023	8944.952808
568.427732	8989.688008
568.783385	8991.177669
569.138982	9112.886246
569.494525	9176.316564
569.850013	9202.936377
570.205445	9255.142566
570.560823	9319.117329
570.916145	9353.709727
571.271412	9414.989993
571.626625	9445.420918
571.981782	9495.434206
572.336884	9509.718315
572.691931	9626.647878
573.046923	9612.174726
573.401860	9644.974993
573.756743	9696.977016
574.111570	9770.703891
574.466342	9813.583945
574.821059	9892.495647
575.175722	9866.727789
575.530330	9922.089741
575.884882	9927.362788
576.239380	9982.132404
576.593823	10017.317137
576.948211	10055.229134
577.302544	10026.915494
577.656823	10095.041647
578.011047	10175.029635
578.365216	10181.880563
578.719330	10190.332058
579.073389	10211.520027
579.427394	10260.424261
579.781344	10287.737232
580.135239	10283.701788
580.489080	10337.498462
580.842866	10298.248038
581.196597	10409.506303
581.550273	10438.722310
581.903895	10448.013157
582.257463	10562.273429
582.610975	10494.953861
582.964434	10577.666593
583.317837	10549.047962
583.671186	10558.411906
584.024481	10631.599377
584.377721	10582.768240
584.730906	10676.430358
585.084037	10730.637886
585.437113	10700.398524
585.790135	10758.419684
586.143103	10714.070133
586.496016	10753.554971
586.848874	10801.682867
587.201679	10823.848820
587.554428	10752.982800
587.907124	10825.134314
588.259765	10807.946500
588.612352	10888.010106
588.964884	10797.851590
589.317362	10875.077026
589.669786	10895.639892
590.022155	10881.481812
590.374470	10999.971612
590.726731	10927.704151
591.078937	10854.367966
591.431090	10895.894470
591.783188	10871.694411
592.135232	10822.666670
592.487222	10908.487273
592.839157	10950.832965
593.191038	10909.873590
593.542866	10882.066585
593.894639	10778.150761
594.246358	10864.883813
594.598022	10885.423994
594.949633	10822.880919
595.301190	10828.688328
595.652692	10812.095370
596.004141	10915.471791
596.355535	10736.684750
596.706876	10733.397917
597.058162	10722.168747
597.409395	10829.368884
597.760573	10866.562517
598.111698	10791.890425
598.462768	10806.986161
598.813785	10834.430202
599.164748	10741.919988
599.515657	10833.704276
599.866511	10726.131094
600.217312	10862.688390
600.568060	10659.648357
600.918753	10828.045581
601.269392	10833.162352
601.619978	10760.330282
601.970510	10809.819289
602.320988	10863.424398
602.671412	10934.902919
603.021783	10881.002902
603.372100	10823.548872
603.722363	10846.481080
604.072572	10866.058401
604.422728	10893.636033
604.772830	10849.838489
605.122878	10858.703358
605.472872	10849.155413
605.822813	10910.838971
606.172701	10878.058868
606.522534	10937.151273
606.872314	10999.714513
607.222041	10941.859711
607.571714	11024.509428
607.921333	10909.820658
608.270899	10970.286778
608.620411	11030.863803
608.969870	10988.142545
609.319276	10973.669392
609.668627	11003.631490
610.017926	11082.089488
610.367171	11116.271031
610.716362	11118.479057
611.065500	11098.044740
611.414585	11119.464602
611.763616	11196.964781
612.112594	11169.568630
612.461518	11195.616272
612.810389	11248.366906
613.159207	11190.451610
613.507971	11189.488750
613.856682	11297.419854
614.205340	11256.263874
614.553945	11393.617672
614.902496	11276.698191
615.250994	11347.632267
615.599439	11337.963333
615.947830	11375.252748
616.296169	11346.283758
616.644454	11364.275636
616.992686	11386.474357
617.340864	11481.081691
617.688990	11365.276305
618.037063	11508.528253
618.385082	11479.302164
618.733048	11519.379337
619.080961	11513.927329
619.428821	11503.333344
619.776628	11509.680157
620.124382	11470.938890
620.472083	11489.260963
620.819731	11510.731238
621.167326	11433.959506
621.514868	11421.553226
621.862357	11338.749753
622.209793	11326.361118
622.557176	11257.796384
622.904506	11198.643485
623.251783	11125.700510
623.599007	11066.920656
623.946179	11024.990859
624.293297	10999.744760
624.640363	10869.872034
624.987376	10859.212514
625.334336	10793.425457
625.681243	10723.988604
626.028097	10685.995948
626.374899	10659.227421
626.721647	10634.843360
627.068343	10590.944992
627.414987	10530.723368
627.761577	10462.282143
628.108115	10514.765596
628.454600	10384.723991
628.801032	10401.258976
629.147412	10388.255319
629.493739	10364.957627
629.840014	10283.369072
630.186236	10329.349437
630.532405	10232.430733
630.878521	10265.455332
631.224585	10224.601821
631.570597	10147.676334
631.916556	10162.187296
632.262462	10144.722218
632.608316	10122.672211
632.954117	10108.607392
633.299866	10092.185833
633.645562	10069.188089
633.991206	9963.283529
634.336797	9873.218275
634.682336	9862.604125
635.027823	9810.428183
635.373257	9775.394684
635.718639	9711.019150
636.063968	9677.979427
636.409245	9560.578516
636.754470	9551.083503
637.099642	9495.003187
637.444762	9403.105473
637.789829	9410.553778
638.134845	9335.052417
638.479808	9315.868306
638.824719	9285.202967
639.169577	9200.733393
639.514383	9194.570582
639.859137	9130.313515
640.203839	9166.617384
640.548489	9088.955889
640.893086	9091.395807
641.237632	9032.242908
641.582125	9032.530254
641.926566	9021.890898
