Dividing Wavelength (nm)	Counts (n)	Blue Motor Position (mm): 26.000000	Red Motor Position (mm): 0.000000	
326.493990	2131.054527
326.888308	2131.054527
327.282561	2131.054527
327.676750	2100.283324
328.070874	2098.067737
328.464933	2102.297265
328.858929	2106.468820
329.252859	2116.956940
329.646726	2127.530761
330.040528	2142.429891
330.434265	2158.410348
330.827938	2175.595642
331.221547	2193.184228
331.615091	2211.125694
332.008571	2229.906513
332.401986	2252.775707
332.795338	2270.253388
333.188625	2289.588733
333.581847	2309.786116
333.975006	2328.219095
334.368100	2344.401199
334.761129	2363.880218
335.154095	2376.513349
335.546996	2400.652914
335.939833	2422.271902
336.332606	2437.160950
336.725315	2451.944134
337.117960	2461.310598
337.510540	2469.293265
337.903056	2479.768783
338.295508	2485.230873
338.687896	2496.291164
339.080220	2504.314161
339.472480	2513.441170
339.864676	2515.727333
340.256807	2519.104906
340.648875	2522.288395
341.040879	2525.189579
341.432818	2525.905423
341.824694	2528.652852
342.216506	2528.037831
342.608253	2531.453212
342.999937	2526.359127
343.391557	2526.835516
343.783113	2527.407687
344.174605	2527.027079
344.566033	2524.302336
344.957397	2524.017511
345.348697	2519.914011
345.739934	2521.615401
346.131106	2518.086593
346.522215	2516.193640
346.913260	2516.186078
347.304241	2513.249606
347.695159	2510.539986
348.086012	2509.340191
348.476802	2508.757938
348.867528	2506.325581
349.258191	2505.176198
349.648789	2502.176712
350.039324	2500.538337
350.429796	2502.743841
350.820203	2500.583707
351.210548	2500.404746
351.600828	2497.185969
351.991045	2498.176556
352.381198	2496.391988
352.771288	2494.461226
353.161314	2496.785198
353.551276	2496.880979
353.941175	2494.065495
354.331010	2495.446771
354.720782	2491.219764
355.110490	2494.413335
355.500135	2497.992554
355.889717	2493.568941
356.279235	2497.027173
356.668689	2495.562718
357.058080	2497.367451
357.447408	2493.884013
357.836672	2491.948210
358.225873	2493.205978
358.615010	2493.248828
359.004084	2498.695795
359.393095	2499.459530
359.782043	2499.043634
360.170927	2498.816783
360.559748	2501.488594
360.948505	2501.516320
361.337199	2501.201248
361.725830	2500.533295
362.114398	2501.556650
362.502903	2503.132010
362.891344	2504.109994
363.279722	2502.559839
363.668037	2505.024963
364.056289	2504.838441
364.444478	2506.431445
364.832603	2505.224089
365.220665	2505.287103
365.608665	2504.493122
365.996601	2506.086126
366.384474	2508.447907
366.772284	2508.747856
367.160031	2507.853051
367.547715	2508.450427
367.935336	2504.261229
368.322893	2506.333143
368.710388	2508.150479
369.097820	2509.902280
369.485189	2507.270798
369.872495	2510.988648
370.259738	2510.245078
370.646918	2507.222907
371.034035	2507.399347
371.421090	2509.993021
371.808081	2509.143586
372.195010	2513.289935
372.581875	2509.418329
372.968678	2512.193484
373.355418	2512.352281
373.742096	2512.032167
374.128710	2513.557116
374.515262	2513.363032
374.901751	2511.976715
375.288177	2514.315810
375.674540	2510.875223
376.060841	2512.478309
376.447079	2512.621982
376.833254	2511.333968
377.219367	2511.535614
377.605417	2514.462003
377.991404	2507.555623
378.377329	2512.606859
378.763191	2508.251302
379.148991	2516.365039
379.534727	2516.987622
379.920402	2516.155831
380.306013	2515.813033
380.691563	2515.331603
381.077049	2515.626510
381.462474	2516.584329
381.847835	2514.895543
382.233134	2519.586336
382.618371	2515.452590
383.003545	2517.786644
383.388657	2517.738753
383.773706	2519.218332
384.158693	2520.065246
384.543618	2518.003414
384.928480	2521.328055
385.313280	2520.324865
385.698017	2520.173631
386.082692	2516.281860
386.467305	2518.890657
386.851856	2520.700431
387.236344	2519.568692
387.620770	2521.703621
388.005133	2517.032992
388.389435	2521.529701
388.773674	2519.939217
389.157851	2519.329237
389.541965	2522.648837
389.926018	2521.181862
390.310008	2520.463497
390.693936	2521.945596
391.077802	2522.570699
391.461606	2523.009280
391.845348	2524.476256
392.229027	2520.929804
392.612645	2521.433919
392.996200	2522.147242
393.379694	2522.893333
393.763125	2525.807120
394.146494	2524.123375
394.529801	2524.267048
394.913047	2524.234280
395.296230	2524.289733
395.679351	2522.109434
396.062410	2526.797707
396.445408	2523.589013
396.828343	2526.137316
397.211217	2522.648837
397.594028	2523.452901
397.976778	2520.783610
398.359466	2524.919877
398.742092	2524.443488
399.124656	2525.751668
399.507158	2523.523478
399.889598	2526.984230
400.271977	2525.497089
400.654294	2527.828623
401.036549	2526.810310
401.418742	2527.488345
401.800874	2528.569672
402.182944	2529.653521
402.564952	2526.228057
402.946898	2528.156298
403.328783	2528.063037
403.710606	2529.671165
404.092367	2527.967255
404.474067	2530.550846
404.855705	2527.745444
405.237282	2528.874662
405.618797	2528.375588
406.000250	2533.104190
406.381642	2528.930115
406.762972	2529.114117
407.144240	2533.086546
407.525447	2530.076978
407.906593	2531.899355
408.287677	2533.794828
408.668700	2531.044879
409.049661	2532.625281
409.430560	2528.988088
409.811399	2532.332894
410.192176	2534.551002
410.572891	2531.838861
410.953545	2531.284334
411.334138	2533.457071
411.714669	2531.664941
412.095139	2534.424973
412.475547	2533.923378
412.855894	2535.541588
413.236180	2532.811803
413.616405	2535.055117
413.996568	2534.548481
414.376670	2535.942360
414.756711	2535.024870
415.136691	2535.168543
415.516609	2533.978831
415.896466	2536.373379
416.276262	2532.184180
416.655997	2533.212575
417.035670	2532.937832
417.415283	2534.389685
417.794834	2529.386339
418.174324	2534.220806
418.553753	2536.461599
418.933121	2534.719880
419.312428	2535.750796
419.691674	2534.424973
420.070859	2536.438914
420.449983	2535.508821
420.829045	2536.176774
421.208047	2537.984027
421.586988	2536.068389
421.965867	2539.166178
422.344686	2538.795653
422.723444	2539.269522
423.102141	2537.994110
423.480777	2538.362114
423.859352	2538.057124
424.237866	2539.221631
424.616319	2541.709440
424.994712	2537.636188
425.373044	2539.846734
425.751314	2539.196425
426.129524	2539.763555
426.507673	2543.627599
426.885762	2540.192053
427.263789	2543.977959
427.641756	2541.348997
428.019662	2540.479398
428.397508	2541.260777
428.775292	2541.724563
429.153016	2541.767413
429.530679	2541.772454
429.908282	2543.741025
430.285824	2541.023843
430.663305	2540.902855
431.040726	2543.100798
431.418086	2543.592311
431.795385	2543.246992
432.172624	2544.993752
432.549802	2543.819163
432.926920	2544.426622
433.303977	2546.496016
433.680974	2545.812939
434.057910	2546.622044
434.434786	2546.100285
434.811601	2546.196067
435.188355	2546.178423
435.565050	2544.633309
435.941683	2545.636499
436.318257	2544.063659
436.694770	2542.077444
437.071222	2545.659184
437.447614	2543.259595
437.823946	2546.440563
438.200218	2550.627241
438.576429	2548.946016
438.952580	2549.414844
439.328670	2550.723023
439.704700	2552.464742
440.080670	2552.421892
440.456580	2549.797971
440.832429	2551.398538
441.208218	2553.571275
441.583947	2554.665205
441.959616	2557.652089
442.335224	2553.462890
442.710773	2554.229146
443.086261	2559.524878
443.461689	2559.625701
443.837057	2560.644014
444.212365	2565.922102
444.587612	2567.840261
444.962800	2566.698440
445.337927	2569.826476
445.712995	2573.592217
446.088002	2579.041705
446.462949	2580.155800
446.837837	2586.071594
447.212664	2591.142995
447.587431	2597.267997
447.962139	2610.667383
448.336786	2631.515075
448.711374	2632.840899
449.085901	2624.850670
449.460369	2629.249077
449.834776	2635.391722
450.209124	2651.094917
450.583412	2669.232988
450.957640	2680.096675
451.331808	2686.251924
451.705917	2682.133301
452.079965	2690.088242
452.453954	2708.793443
452.827883	2715.621686
453.201752	2727.561659
453.575562	2732.605333
453.949311	2756.719693
454.323001	2765.705549
454.696632	2782.555606
455.070202	2811.464103
455.443713	2833.640139
455.817164	2860.519571
456.190556	2880.233003
456.563888	2906.257960
456.937160	2927.561876
457.310373	2927.203954
457.683526	2949.672377
458.056619	2964.561425
458.429653	2986.626555
458.802628	3002.518793
459.175542	3038.948691
459.548398	3106.328753
459.921194	3157.854387
460.293930	3192.260262
460.666607	3310.351811
461.039224	3394.526477
461.411782	3450.132925
461.784280	3491.273781
462.156719	3509.144672
462.529099	3522.281919
462.901419	3498.648989
463.273680	3510.359590
463.645882	3551.366856
464.018024	3577.316195
464.390106	3652.263029
464.762130	3779.090898
465.134094	3951.483237
465.505999	4274.608595
465.877845	4651.553312
466.249631	4874.904154
466.621358	4833.601981
466.993026	4747.425976
467.364634	4731.924428
467.736184	4701.667423
468.107674	4678.384854
468.479105	4775.827837
468.850477	4753.356894
469.221790	4751.514352
469.593043	4705.990212
469.964238	4734.964244
470.335373	4804.988391
470.706449	4895.479623
471.077467	4957.939520
471.448425	5544.321494
471.819324	6059.121604
472.190164	6142.605632
472.560945	5705.456935
472.931667	5453.071568
473.302330	5463.973063
473.672934	5370.946131
474.043479	5605.213591
474.413965	5649.099356
474.784393	5666.786244
475.154761	5817.299975
475.525070	5932.376914
475.895321	5913.447381
476.265513	6072.132822
476.635645	6233.840435
477.005719	6316.265821
477.375734	6444.850532
477.745691	6658.524879
478.115588	6818.274003
478.485427	7042.549896
478.855207	7437.458765
479.224928	8022.083897
479.594591	8493.923294
479.964194	8481.890060
480.333739	8539.805356
480.703226	8601.120910
481.072653	8738.661231
481.442022	8982.022933
481.811333	9187.825518
482.180584	9145.772213
482.549777	9037.039566
482.918912	8991.870827
483.287988	9092.431764
483.657005	9168.346500
484.025964	9016.131380
484.394864	9194.200058
484.763706	9254.582998
485.132489	9128.385273
485.501213	9177.077778
485.869879	9295.950707
486.238487	9253.264737
486.607036	9392.703052
486.975527	9284.666084
487.343959	9490.171241
487.712333	9598.200647
488.080648	9585.320499
488.448905	9690.620121
488.817104	9687.592908
489.185244	9969.476587
489.553326	10152.064659
489.921350	10663.668677
490.289315	11591.586304
490.657222	11943.857094
491.025070	11925.529979
491.392861	11870.878830
491.760593	11611.319901
492.128267	11364.169772
492.495883	11118.973090
492.863440	10854.902328
493.230939	10592.122101
493.598380	10563.296784
493.965763	10489.043108
494.333088	10417.630123
494.700354	10377.295851
495.067563	10465.967226
495.434713	10327.456483
495.801805	10475.265635
496.168839	10434.099572
496.535815	10394.695393
496.902733	10424.901987
497.269593	10380.128979
497.636395	10492.408078
498.003139	10493.285239
498.369825	10398.652699
498.736453	10565.552700
499.103023	10502.941569
499.469535	10558.926103
499.835989	10555.251102
500.202385	10540.541015
500.568723	10410.020501
500.935003	10639.655141
501.301226	10461.538573
501.667390	10716.489887
502.033497	10826.576084
502.399546	10692.592297
502.765537	10615.286203
503.131470	10693.913080
503.497345	10871.069308
503.863163	10501.777063
504.228923	10804.142950
504.594625	10876.259176
504.960269	10637.255552
505.325856	10861.478513
505.691385	10662.640282
506.056856	10823.705147
506.422270	10849.074754
506.787625	10742.101469
507.152924	10863.200067
507.518164	10844.288178
507.883347	10768.552404
508.248472	10692.375528
508.613540	10924.548389
508.978550	10818.880763
509.343503	10791.822370
509.708398	10921.964797
510.073236	11022.659325
510.438016	11034.755574
510.802738	10982.025104
511.167403	11036.114165
511.532010	10943.261152
511.896561	11165.548310
512.261053	11243.844991
512.625488	11109.949424
512.989866	11094.034502
513.354186	11090.057031
513.718449	10993.254275
514.082655	11182.905003
514.446803	11082.021432
514.810894	11200.080214
515.174927	11066.096427
515.538904	11098.511046
515.902822	11250.791701
516.266684	11140.360185
516.630488	11077.713766
516.994235	11135.129988
517.357925	11194.305572
517.721558	11283.536516
518.085133	11306.320011
518.448651	11307.373612
518.812112	11190.272649
519.175516	11212.085722
519.538863	11329.501757
519.902152	11246.783984
520.265385	11410.389591
520.628560	11318.144037
520.991678	11299.816922
521.354739	11363.771521
521.717743	11290.518514
522.080690	11279.218768
522.443580	11410.278685
522.806413	11366.463497
523.169189	11399.914073
523.531908	11458.472116
523.894569	11276.710794
524.257174	11285.361414
524.619722	11403.284084
524.982213	11344.726041
525.344647	11402.777448
525.707025	11354.077382
526.069345	11442.892430
526.431608	11364.378980
526.793815	11470.512912
527.155964	11261.806622
527.518057	11313.390229
527.880093	11268.319793
528.242072	11334.031233
528.603995	11235.133877
528.965860	11163.085707
529.327669	11220.738862
529.689421	11165.898670
530.051117	11132.012034
530.412755	11234.264278
530.774337	11128.977260
531.135862	11110.506472
531.497331	11127.843000
531.858743	10980.545526
532.220098	11148.201700
532.581396	11016.214210
532.942638	11010.590803
533.303824	10970.974895
533.664953	10974.254166
534.026025	10894.276260
534.387040	10995.679070
534.747999	10995.457259
535.108902	11052.308871
535.469748	10809.174021
535.830537	10915.451627
536.191270	10902.447970
536.551947	10918.199056
536.912567	10916.790053
537.273131	10849.236071
537.633638	10820.448562
537.994089	10817.484363
538.354483	10761.799778
538.714821	10900.789431
539.075103	10916.356514
539.435328	10877.280010
539.795497	10706.432785
540.155609	10861.047494
540.515665	10945.123858
540.875665	10684.508807
541.235609	10754.348953
541.595496	10747.823179
541.955328	10908.058775
542.315102	10788.016299
542.674821	10738.091232
543.034483	10744.188507
543.394090	10741.350338
543.753640	10675.079329
544.113134	10897.948741
544.472571	10747.820658
544.831953	10895.528987
545.191278	10697.885509
545.550548	10730.184182
545.909761	10863.953720
546.268918	10837.026396
546.628019	10917.067317
546.987064	10788.089395
547.346053	10706.914216
547.704986	10801.584564
548.063863	10797.065170
548.422684	10787.489498
548.781449	10709.770029
549.140158	10807.071860
549.498811	10682.719198
549.857408	10546.613085
550.215949	10761.192319
550.574434	10612.090112
550.932864	10720.878212
551.291237	10781.183015
551.649555	10721.271422
552.007817	10735.560572
552.366022	10697.744357
552.724173	10696.284943
553.082267	10681.090905
553.440305	10824.529376
553.798288	10614.222520
554.156215	10770.626838
554.514086	10752.289641
554.871902	10596.414644
555.229661	10632.847063
555.587365	10611.069278
555.945014	10503.140695
556.302606	10628.574685
556.660143	10523.524600
557.017625	10672.702425
557.375050	10576.093753
557.732421	10710.087622
558.089735	10623.576381
558.446994	10624.143511
558.804197	10662.224387
559.161345	10655.141566
559.518437	10508.960707
559.875474	10604.845974
560.232455	10622.757193
560.589381	10581.954094
560.946251	10575.997971
561.303065	10678.706439
561.659825	10610.386202
562.016528	10546.320698
562.373177	10421.204301
562.729770	10542.779287
563.086307	10462.219128
563.442789	10550.073837
563.799216	10430.719479
564.155587	10476.735131
564.511904	10427.697307
564.868164	10421.045504
565.224370	10439.299522
565.580520	10365.186999
565.936615	10365.212205
566.292654	10240.799049
566.648638	10360.990239
567.004567	10323.695783
567.360441	10311.365120
567.716260	10218.398682
568.072023	10314.982148
568.427732	10264.396690
568.783385	10178.727321
569.138982	10250.210883
569.494525	10258.909394
569.850013	10134.287030
570.205445	10218.161747
570.560823	10107.226116
570.916145	10032.853973
571.271412	10101.098593
571.626625	10044.378051
571.981782	10024.382314
572.336884	9995.980453
572.691931	10000.197378
573.046923	9947.431621
573.401860	9905.716073
573.756743	9846.696764
574.111570	9886.852075
574.466342	9870.662410
574.821059	9900.813551
575.175722	9791.407910
575.530330	9799.819075
575.884882	9790.074524
576.239380	9719.359739
576.593823	9698.476759
576.948211	9712.002175
577.302544	9593.419113
577.656823	9607.252039
578.011047	9609.500394
578.365216	9585.118853
578.719330	9509.738480
579.073389	9518.013534
579.427394	9467.488569
579.781344	9442.920506
580.135239	9399.387622
580.489080	9403.990195
580.842866	9304.838261
581.196597	9311.850506
581.550273	9354.443215
581.903895	9318.880395
582.257463	9384.080158
582.610975	9259.203216
582.964434	9293.387280
583.317837	9210.606493
583.671186	9193.043113
584.024481	9187.518008
584.377721	9110.080844
584.730906	9087.607380
585.084037	9116.183161
585.437113	9054.885250
585.790135	9072.115914
586.143103	8968.784863
586.496016	8948.519425
586.848874	9003.525975
587.201679	8994.567845
587.554428	8877.101398
587.907124	8924.442874
588.259765	8894.122854
588.612352	8899.007732
588.964884	8780.422150
589.317362	8793.161146
589.669786	8784.752501
590.022155	8838.387857
590.374470	8853.609621
590.726731	8795.270868
591.078937	8640.903176
591.431090	8753.106658
591.783188	8628.575034
592.135232	8619.989949
592.487222	8615.427705
592.839157	8669.562136
593.191038	8608.269267
593.542866	8549.620483
593.894639	8452.497613
594.246358	8498.853543
594.598022	8521.369857
594.949633	8415.614011
595.301190	8398.209427
595.652692	8421.870082
596.004141	8531.326135
596.355535	8310.616858
596.706876	8290.772356
597.058162	8221.287612
597.409395	8301.502452
597.760573	8357.121503
598.111698	8271.968852
598.462768	8255.602746
598.813785	8226.303560
599.164748	8191.146553
599.515657	8181.424688
599.866511	8096.322449
600.217312	8223.256183
600.568060	8081.904749
600.918753	8180.673556
601.269392	8151.525605
601.619978	8060.706697
601.970510	8124.951162
602.320988	8124.595761
602.671412	8178.583998
603.021783	8117.449925
603.372100	8092.748271
603.722363	8094.058971
604.072572	8066.428407
604.422728	8078.653205
604.772830	8008.102257
605.122878	8019.850666
605.472872	8007.416660
605.822813	8043.259264
606.172701	7984.003021
606.522534	8058.687715
606.872314	8059.607726
607.222041	8028.302161
607.571714	8079.331240
607.921333	8042.931589
608.270899	8046.641878
608.620411	8136.414746
608.969870	8039.551495
609.319276	8039.329685
609.668627	8050.145480
610.017926	8088.848939
610.367171	8134.713357
610.716362	8110.006662
611.065500	8100.370496
611.414585	8125.044423
611.763616	8114.649564
612.112594	8103.528779
612.461518	8110.546065
612.810389	8172.297679
613.159207	8119.121068
613.507971	8059.539670
613.856682	8180.174482
614.205340	8132.840568
614.553945	8218.648568
614.902496	8111.919779
615.250994	8168.337853
615.599439	8149.499061
615.947830	8158.926018
616.296169	8131.343345
616.644454	8145.483782
616.992686	8143.860530
617.340864	8203.348666
617.688990	8106.256043
618.037063	8200.081998
618.385082	8140.392216
618.733048	8224.004794
619.080961	8169.003285
619.428821	8185.674381
619.776628	8185.127416
620.124382	8138.756362
620.472083	8129.115155
620.819731	8156.798652
621.167326	8047.753453
621.514868	8061.074702
621.862357	7943.066331
622.209793	7959.588713
622.557176	7901.204590
622.904506	7866.808797
623.251783	7797.233312
623.599007	7761.216789
623.946179	7759.165039
624.293297	7716.794141
624.640363	7631.618806
624.987376	7617.170859
625.334336	7562.630615
625.681243	7514.139756
626.028097	7503.709609
626.374899	7477.435115
626.721647	7473.767676
627.068343	7406.072541
627.414987	7378.958695
627.761577	7327.554050
628.108115	7368.500822
628.454600	7264.859740
628.801032	7316.826474
629.147412	7273.059177
629.493739	7265.449555
629.840014	7206.253806
630.186236	7261.227588
630.532405	7138.213352
630.878521	7191.326949
631.224585	7152.121896
631.570597	7073.268167
631.916556	7107.353929
632.262462	7105.082889
632.608316	7063.085037
632.954117	7045.466204
633.299866	7024.656321
633.645562	7018.072574
633.991206	6941.709175
634.336797	6881.545525
634.682336	6840.336613
635.027823	6809.648589
635.373257	6799.231044
635.718639	6731.528348
636.063968	6747.591985
636.409245	6641.720192
636.754470	6633.344315
637.099642	6598.164623
637.444762	6542.152363
637.789829	6548.363064
638.134845	6489.479867
638.479808	6479.702549
638.824719	6487.768395
639.169577	6414.243166
639.514383	6432.141783
639.859137	6359.581935
640.203839	6373.268668
640.548489	6352.305029
640.893086	6325.609599
