Dividing Wavelength (nm)	Counts (n)	Blue Motor Position (mm): 38.400000	Red Motor Position (mm): 0.000000	
326.493990	2128.284413
326.888308	2128.284413
327.282561	2128.284413
327.676750	2098.546647
328.070874	2093.389546
328.464933	2099.723756
328.858929	2102.876998
329.252859	2113.627258
329.646726	2125.640328
330.040528	2136.887142
330.434265	2156.512354
330.827938	2172.631443
331.221547	2190.956038
331.615091	2210.301466
332.008571	2229.818293
332.401986	2247.207753
332.795338	2267.384971
333.188625	2288.530091
333.581847	2306.617751
333.975006	2325.103662
334.368100	2342.094871
334.761129	2358.418127
335.154095	2376.291538
335.546996	2398.772564
335.939833	2422.730647
336.332606	2439.384099
336.725315	2448.112857
337.117960	2460.781277
337.510540	2469.656228
337.903056	2482.483444
338.295508	2487.491830
338.687896	2496.981803
339.080220	2504.238543
339.472480	2513.713392
339.864676	2516.975019
340.256807	2518.197498
340.648875	2522.941224
341.040879	2522.979033
341.432818	2528.993129
341.824694	2528.332738
342.216506	2528.980527
342.608253	2530.873480
342.999937	2528.156298
343.391557	2529.063706
343.783113	2527.770650
344.174605	2527.306863
344.566033	2521.945596
344.957397	2525.010618
345.348697	2522.535411
345.739934	2519.997190
346.131106	2520.213960
346.522215	2515.329082
346.913260	2514.464524
347.304241	2511.933865
347.695159	2511.943947
348.086012	2510.144255
348.476802	2506.370952
348.867528	2508.084944
349.258191	2506.156703
349.648789	2505.145951
350.039324	2502.280055
350.429796	2498.756289
350.820203	2497.077584
351.210548	2499.388953
351.600828	2497.866525
351.991045	2499.840137
352.381198	2498.156391
352.771288	2498.726042
353.161314	2494.388129
353.551276	2496.371823
353.941175	2495.741679
354.331010	2498.433655
354.720782	2493.851246
355.110490	2497.400218
355.500135	2494.446102
355.889717	2495.731596
356.279235	2494.945176
356.668689	2496.207985
357.058080	2492.706904
357.447408	2491.678509
357.836672	2493.042141
358.225873	2493.899137
358.615010	2496.795280
359.004084	2499.031032
359.393095	2499.542709
359.782043	2499.149499
360.170927	2499.693943
360.559748	2499.651093
360.948505	2503.666372
361.337199	2499.220075
361.725830	2503.772237
362.114398	2502.363234
362.502903	2501.642349
362.891344	2499.154540
363.279722	2505.725684
363.668037	2504.687206
364.056289	2505.584532
364.444478	2506.738956
364.832603	2504.898935
365.220665	2505.773575
365.608665	2505.297186
365.996601	2507.046466
366.384474	2510.166940
366.772284	2510.461848
367.160031	2508.321878
367.547715	2508.841117
367.935336	2508.631909
368.322893	2509.067969
368.710388	2507.573267
369.097820	2511.984276
369.485189	2511.906138
369.872495	2511.593587
370.259738	2510.920593
370.646918	2510.507218
371.034035	2511.596108
371.421090	2513.922600
371.808081	2514.053670
372.195010	2512.284225
372.581875	2513.229441
372.968678	2513.388238
373.355418	2512.586694
373.742096	2512.967301
374.128710	2514.462003
374.515262	2516.236490
374.901751	2515.029133
375.288177	2515.674401
375.674540	2515.949144
376.060841	2515.399658
376.447079	2516.407889
376.833254	2516.624658
377.219367	2513.294976
377.605417	2515.742457
377.991404	2515.490399
378.377329	2514.464524
378.763191	2513.564678
379.148991	2518.094155
379.534727	2519.152797
379.920402	2519.712365
380.306013	2518.331089
380.691563	2518.477282
381.077049	2516.133146
381.462474	2523.762932
381.847835	2521.958199
382.233134	2522.966430
382.618371	2522.447191
383.003545	2526.333921
383.388657	2522.043899
383.773706	2522.701769
384.158693	2523.667150
384.543618	2524.375432
384.928480	2522.737058
385.313280	2524.211595
385.698017	2524.839219
386.082692	2524.559435
386.467305	2525.703777
386.851856	2527.100176
387.236344	2527.216123
387.620770	2527.662265
388.005133	2529.509848
388.389435	2530.576052
388.773674	2530.896165
389.157851	2528.925074
389.541965	2528.657893
389.926018	2530.203006
390.310008	2532.552184
390.693936	2531.523789
391.077802	2532.993285
391.461606	2534.520755
391.845348	2537.731970
392.229027	2538.828421
392.612645	2543.241951
392.996200	2548.104144
393.379694	2554.055226
393.763125	2561.596792
394.146494	2566.758933
394.529801	2577.322671
394.913047	2586.570668
395.296230	2597.038624
395.679351	2607.219234
396.062410	2620.606018
396.445408	2636.669655
396.828343	2653.902839
397.211217	2666.964469
397.594028	2678.919565
397.976778	2702.786908
398.359466	2725.129302
398.742092	2746.397930
399.124656	2760.452667
399.507158	2798.614202
399.889598	2820.714620
400.271977	2859.566793
400.654294	2882.655278
401.036549	2910.253074
401.418742	2931.589758
401.800874	2983.271667
402.182944	3021.400434
402.564952	3069.465316
402.946898	3103.558639
403.328783	3135.940491
403.710606	3143.686224
404.092367	3245.361256
404.474067	3268.479987
404.855705	3308.673107
405.237282	3317.570743
405.618797	3400.732138
406.000250	3456.487299
406.381642	3534.746172
406.762972	3557.607804
407.144240	3604.528344
407.525447	3644.784478
407.906593	3714.564129
408.287677	3776.832462
408.668700	3777.291207
409.049661	3848.991538
409.430560	3915.870005
409.811399	3905.477667
410.192176	4054.312693
410.572891	4051.182136
410.953545	4163.131040
411.334138	4115.900469
411.714669	4196.412737
412.095139	4155.775996
412.475547	4294.064928
412.855894	4317.881860
413.236180	4357.094475
413.616405	4351.241695
413.996568	4451.396819
414.376670	4434.186320
414.756711	4420.842386
415.136691	4476.388340
415.516609	4564.858069
415.896466	4618.468220
416.276262	4670.649203
416.655997	4675.627342
417.035670	4863.095251
417.415283	4965.546621
417.794834	4934.898926
418.174324	4909.478908
418.553753	4838.912836
418.933121	5030.464079
419.312428	5107.177838
419.691674	5064.675870
420.070859	5196.013051
420.449983	5123.405312
420.829045	5244.025000
421.208047	5166.333258
421.586988	5244.579527
421.965867	5263.120891
422.344686	5404.767232
422.723444	5266.611890
423.102141	5091.613276
423.480777	5389.626126
423.859352	5167.974153
424.237866	5427.480151
424.616319	5422.290283
424.994712	5536.507705
425.373044	5416.109828
425.751314	5559.444955
426.129524	5364.221232
426.507673	5559.908742
426.885762	5646.072143
427.263789	5579.594447
427.641756	5464.484740
428.019662	5586.616775
428.397508	5591.811684
428.775292	5535.630545
429.153016	5644.897554
429.530679	5569.837294
429.908282	5653.911137
430.285824	5522.730232
430.663305	5801.044774
431.040726	5535.199526
431.418086	5530.309607
431.795385	5637.454291
432.172624	5654.931971
432.549802	5648.244880
432.926920	5662.332385
433.303977	5666.624927
433.680974	5707.067584
434.057910	5725.727415
434.434786	5734.912397
434.811601	5699.488209
435.188355	5937.365136
435.565050	5807.182379
435.941683	5788.262928
436.318257	6003.827708
436.694770	5987.683413
437.071222	6023.679772
437.447614	5957.086130
437.823946	5869.410382
438.200218	6022.565677
438.576429	5888.349997
438.952580	5981.888607
439.328670	6027.100195
439.704700	5936.172903
440.080670	5926.642602
440.456580	6200.069745
440.832429	6080.223874
441.208218	5923.643115
441.583947	6084.110604
441.959616	6087.341983
442.335224	6009.582185
442.710773	6146.270551
443.086261	6175.728534
443.461689	5971.075332
443.837057	6118.135872
444.212365	6273.272340
444.587612	6167.453480
444.962800	6321.100287
445.337927	6298.326875
445.712995	5910.677267
446.088002	6491.496328
446.462949	6321.627088
446.837837	6250.113279
447.212664	6417.706439
447.587431	6565.263533
447.962139	7105.599607
448.336786	8028.319805
448.711374	7771.994776
449.085901	6845.569330
449.460369	6770.793895
449.834776	6698.607093
450.209124	7095.232475
450.583412	7243.782676
450.957640	7387.006897
451.331808	7150.972513
451.705917	6705.770573
452.079965	6629.414736
452.453954	6842.441294
452.827883	6718.844805
453.201752	6810.102292
453.575562	6612.330265
453.949311	6818.105124
454.323001	6703.655808
454.696632	6777.216325
455.070202	6917.768736
455.443713	7072.070893
455.817164	7167.560429
456.190556	7253.728872
456.563888	7333.351377
456.937160	7373.292438
457.310373	7029.992382
457.683526	7050.668675
458.056619	6942.530883
458.429653	6932.635098
458.802628	6869.114039
459.175542	6975.126984
459.548398	7333.830286
459.921194	7494.622929
460.293930	7490.113617
460.666607	8021.345368
461.039224	8328.391967
461.411782	8460.873490
461.784280	8473.753638
462.156719	8360.647790
462.529099	8243.050273
462.901419	7832.702871
463.273680	7726.127837
463.645882	7736.046308
464.018024	7606.251719
464.390106	7772.070393
464.762130	8159.039444
465.134094	8626.929098
465.505999	9648.571857
465.877845	10869.090655
466.249631	11519.555777
466.621358	11132.337189
466.993026	10500.050467
467.364634	10241.199820
467.736184	9880.132217
468.107674	9552.666425
468.479105	9584.415612
468.850477	9350.102781
469.221790	9121.612483
469.593043	8789.276937
469.964238	8649.183271
470.335373	8665.685488
470.706449	8724.634221
471.077467	8702.863998
471.448425	10013.117856
471.819324	11084.252143
472.190164	11100.335944
472.560945	9855.407878
472.931667	9067.619205
473.302330	8935.576262
473.672934	8583.323117
474.043479	8942.989279
474.413965	8884.179178
474.784393	8766.417824
475.154761	8922.421371
475.525070	9008.224330
475.895321	8837.256118
476.265513	9013.114250
476.635645	9180.200773
477.005719	9178.053242
477.375734	9295.887692
477.745691	9531.851501
478.115588	9662.750102
478.485427	9907.490559
478.855207	10449.863260
479.224928	11270.878179
479.594591	11883.912733
479.964194	11697.009434
480.333739	11637.559107
480.703226	11550.924357
481.072653	11643.875672
481.442022	11882.375181
481.811333	12069.132287
482.180584	11876.305632
482.549777	11579.931156
482.918912	11411.453274
483.287988	11427.534555
483.657005	11434.781214
484.025964	11118.456372
484.394864	11258.139183
484.763706	11227.408309
485.132489	10976.920936
485.501213	10948.554363
485.869879	11022.301403
486.238487	10869.166273
486.607036	10977.843467
486.975527	10761.701476
487.343959	10953.555188
487.712333	11003.581078
488.080648	10924.805488
488.448905	10967.526746
488.817104	10913.599003
489.185244	11178.037769
489.553326	11331.966881
489.921350	11868.204498
490.289315	12932.825614
490.657222	13267.046552
491.025070	13179.562368
491.392861	13051.575034
491.760593	12674.610152
492.128267	12321.205103
492.495883	11990.603713
492.863440	11660.723208
493.230939	11325.405819
493.598380	11253.743297
493.965763	11121.196239
494.333088	11022.629078
494.700354	10939.424834
495.067563	11001.272230
495.434713	10832.617907
495.801805	10956.753800
496.168839	10887.614375
496.535815	10821.650877
496.902733	10822.588532
497.269593	10766.906467
497.636395	10855.061124
498.003139	10848.338746
498.369825	10713.659279
498.736453	10870.877744
499.103023	10801.788731
499.469535	10831.740747
499.835989	10816.501338
500.202385	10780.588158
500.568723	10629.131732
500.935003	10857.072545
501.301226	10658.451083
501.667390	10913.689743
502.033497	11008.622232
502.399546	10869.050326
502.765537	10778.962386
503.131470	10850.050217
503.497345	11028.204594
503.863163	10639.287137
504.228923	10943.583786
504.594625	11014.041473
504.960269	10759.984963
505.325856	10983.456792
505.691385	10769.575758
506.056856	10926.958060
506.422270	10955.654829
506.787625	10841.094608
507.152924	10958.132556
507.518164	10934.663464
507.883347	10865.574451
508.248472	10784.941195
508.613540	11018.192863
508.978550	10896.832125
509.343503	10877.585000
509.708398	10995.048925
510.073236	11106.486152
510.438016	11113.788263
510.802738	11055.409181
511.167403	11112.318767
511.532010	11008.755823
511.896561	11242.146122
512.261053	11313.947277
512.625488	11187.300889
512.989866	11163.975470
513.354186	11152.219499
513.718449	11058.239789
514.082655	11248.034190
514.446803	11139.004115
514.810894	11266.328537
515.174927	11128.780655
515.538904	11153.240333
515.902822	11303.426388
516.266684	11193.814060
516.630488	11134.691407
516.994235	11188.253667
517.357925	11251.010991
517.721558	11342.737306
518.085133	11350.291475
518.448651	11362.029802
518.812112	11243.585372
519.175516	11264.801068
519.538863	11385.314892
519.902152	11301.256172
520.265385	11463.324227
520.628560	11371.262675
520.991678	11348.219561
521.354739	11417.898389
521.717743	11345.593120
522.080690	11326.552682
522.443580	11463.404885
522.806413	11418.838565
523.169189	11450.174377
523.531908	11507.376350
523.894569	11327.351705
524.257174	11330.303300
524.619722	11455.177722
524.982213	11397.839638
525.344647	11445.677668
525.707025	11394.542724
526.069345	11490.241468
526.431608	11413.537791
526.793815	11522.603155
527.155964	11310.340331
527.518057	11353.737104
527.880093	11309.279168
528.242072	11378.910106
528.603995	11283.062648
528.965860	11199.513084
529.327669	11257.743452
529.689421	11205.350740
530.051117	11172.724393
530.412755	11275.004363
530.774337	11169.092241
531.135862	11146.094497
531.497331	11174.723210
531.858743	11028.360870
532.220098	11188.939264
532.581396	11060.425129
532.942638	11044.676564
533.303824	11010.502583
533.664953	11017.658500
534.026025	10932.490727
534.387040	11037.008969
534.747999	11032.207270
535.108902	11094.664646
535.469748	10857.967349
535.830537	10959.168513
536.191270	10938.698908
536.551947	10959.884357
536.912567	10963.002310
537.273131	10889.661084
537.633638	10865.231652
537.994089	10848.512665
538.354483	10802.149173
538.714821	10954.641557
539.075103	10960.998452
539.435328	10919.928171
539.795497	10748.009702
540.155609	10906.465770
540.515665	10997.917342
540.875665	10727.300642
541.235609	10791.351022
541.595496	10787.335743
541.955328	10952.456217
542.315102	10832.562455
542.674821	10779.020360
543.034483	10777.553384
543.394090	10783.506987
543.753640	10715.267407
544.113134	10932.984760
544.472571	10787.802050
544.831953	10928.926631
545.191278	10733.092928
545.550548	10767.042578
545.909761	10906.001984
546.268918	10876.544001
546.628019	10959.760848
546.987064	10822.971659
547.346053	10748.256718
547.704986	10851.002995
548.063863	10834.198309
548.422684	10822.512914
548.781449	10748.682696
549.140158	10847.131389
549.498811	10723.434077
549.857408	10580.900493
550.215949	10801.090531
550.574434	10654.778603
550.932864	10757.872719
551.291237	10825.212452
551.649555	10763.677608
552.007817	10781.835844
552.366022	10741.246994
552.724173	10733.019831
553.082267	10718.813859
553.440305	10857.203615
553.798288	10660.187761
554.156215	10811.379526
554.514086	10785.175608
554.871902	10641.439709
555.229661	10673.393063
555.587365	10649.795422
555.945014	10543.069154
556.302606	10666.824440
556.660143	10567.347351
557.017625	10719.436442
557.375050	10612.858888
557.732421	10746.038611
558.089735	10665.816209
558.446994	10659.676083
558.804197	10696.358039
559.161345	10702.460356
559.518437	10546.668538
559.875474	10637.966354
560.232455	10669.561786
560.589381	10613.935174
560.946251	10620.322316
561.303065	10719.827131
561.659825	10656.139714
562.016528	10586.105484
562.373177	10463.650816
562.729770	10586.528941
563.086307	10491.372121
563.442789	10592.885836
563.799216	10472.117434
564.155587	10513.386840
564.511904	10468.596188
564.868164	10458.234096
565.224370	10476.420059
565.580520	10400.548173
565.936615	10406.325335
566.292654	10272.298698
566.648638	10410.456561
567.004567	10365.640703
567.360441	10342.567342
567.716260	10263.073387
568.072023	10352.261481
568.427732	10304.604933
568.783385	10216.094874
569.138982	10283.091809
569.494525	10295.533377
569.850013	10174.422176
570.205445	10260.572975
570.560823	10148.868567
570.916145	10071.867463
571.271412	10140.049068
571.626625	10083.494884
571.981782	10062.621987
572.336884	10036.337410
572.691931	10041.227330
573.046923	9985.431839
573.401860	9939.569942
573.756743	9872.807421
574.111570	9923.702910
574.466342	9905.083408
574.821059	9927.168703
575.175722	9828.077263
575.530330	9833.602367
575.884882	9825.959978
576.239380	9754.236962
576.593823	9735.990505
576.948211	9746.531558
577.302544	9629.876738
577.656823	9640.488366
578.011047	9647.916507
578.365216	9618.438359
578.719330	9540.340804
579.073389	9555.623062
579.427394	9494.362960
579.781344	9475.745979
580.135239	9422.612218
580.489080	9437.758364
580.842866	9336.816820
581.196597	9344.275208
581.550273	9383.835662
581.903895	9352.308286
582.257463	9424.800078
582.610975	9299.540008
582.964434	9325.348195
583.317837	9247.767358
583.671186	9232.845543
584.024481	9225.409841
584.377721	9138.664186
584.730906	9119.260785
585.084037	9145.021081
585.437113	9083.652595
585.790135	9103.315615
586.143103	9007.014453
586.496016	8977.569074
586.848874	9029.916415
587.201679	9020.527266
587.554428	8906.420749
587.907124	8959.788924
588.259765	8929.080736
588.612352	8925.645189
588.964884	8806.903331
589.317362	8824.784304
589.669786	8821.560486
590.022155	8865.511786
590.374470	8888.827122
590.726731	8818.288777
591.078937	8678.731994
591.431090	8787.215105
591.783188	8660.155342
592.135232	8653.511102
592.487222	8654.448756
592.839157	8703.670582
593.191038	8637.298751
593.542866	8579.297755
593.894639	8479.825708
594.246358	8534.323101
594.598022	8553.587871
594.949633	8451.476779
595.301190	8424.310001
595.652692	8449.326727
596.004141	8566.094973
596.355535	8336.004109
596.706876	8318.133219
597.058162	8255.378415
597.409395	8327.108993
597.760573	8392.598623
598.111698	8302.185528
598.462768	8287.616594
598.813785	8250.186027
599.164748	8221.146460
599.515657	8210.010551
599.866511	8120.366233
600.217312	8246.498423
600.568060	8104.859643
600.918753	8213.113381
601.269392	8179.264554
601.619978	8094.215247
601.970510	8152.962333
602.320988	8150.633320
602.671412	8207.323616
603.021783	8150.381263
603.372100	8124.585678
603.722363	8123.559804
604.072572	8094.248015
604.422728	8107.564222
604.772830	8034.263325
605.122878	8042.498050
605.472872	8038.944036
605.822813	8067.948315
606.172701	8007.903132
606.522534	8087.119823
606.872314	8083.916170
607.222041	8053.361736
607.571714	8109.910880
607.921333	8069.879077
608.270899	8079.076662
608.620411	8173.923451
608.969870	8071.179695
609.319276	8065.470588
609.668627	8085.219308
610.017926	8114.228628
610.367171	8159.435175
610.716362	8134.582287
611.065500	8126.239177
611.414585	8153.955441
611.763616	8148.223649
612.112594	8120.797251
612.461518	8143.053946
612.810389	8203.487298
613.159207	8141.937330
613.507971	8091.626615
613.856682	8212.072383
614.205340	8164.962800
614.553945	8237.605827
614.902496	8137.110425
615.250994	8202.884880
615.599439	8178.210952
615.947830	8190.120678
616.296169	8160.513982
616.644454	8177.295983
616.992686	8175.980242
617.340864	8235.450734
617.688990	8137.649829
618.037063	8229.731545
618.385082	8174.034357
618.733048	8265.846371
619.080961	8196.840537
619.428821	8218.744350
619.776628	8212.652116
620.124382	8171.970004
620.472083	8158.242942
620.819731	8182.732867
621.167326	8070.587359
621.514868	8082.229904
621.862357	7970.822924
622.209793	7987.690625
622.557176	7922.364833
622.904506	7895.558497
623.251783	7831.548447
623.599007	7785.247969
623.946179	7780.738657
624.293297	7743.512256
624.640363	7659.831623
624.987376	7639.762790
625.334336	7588.527023
625.681243	7543.438943
626.028097	7534.553909
626.374899	7507.240937
626.721647	7499.580904
627.068343	7429.753362
627.414987	7399.713126
627.761577	7358.433638
628.108115	7395.042497
628.454600	7293.748072
628.801032	7338.790782
629.147412	7296.155223
629.493739	7285.525950
629.840014	7226.373051
630.186236	7284.568131
630.532405	7161.810993
630.878521	7215.380815
631.224585	7173.206522
631.570597	7095.673576
631.916556	7130.896117
632.262462	7126.641384
632.608316	7090.186280
632.954117	7068.786582
633.299866	7057.446506
633.645562	7045.592233
633.991206	6964.396888
634.336797	6911.860503
634.682336	6867.090016
635.027823	6834.015006
635.373257	6821.054199
635.718639	6752.335711
636.063968	6766.922289
636.409245	6659.346587
636.754470	6658.335835
637.099642	6621.298478
637.444762	6564.822432
637.789829	6573.808288
638.134845	6515.056161
638.479808	6498.422874
638.824719	6502.672566
639.169577	6429.202790
639.514383	6451.794721
639.859137	6383.658486
640.203839	6387.235184
640.548489	6376.679008
