Dividing Wavelength (nm)	Counts (n)	Blue Motor Position (mm): 19.700000	Red Motor Position (mm): 0.000000	
326.493990	2134.870681
326.888308	2134.870681
327.282561	2134.870681
327.676750	2104.810280
328.070874	2102.302306
328.464933	2101.664600
328.858929	2109.226331
329.252859	2118.943155
329.646726	2133.449075
330.040528	2142.472741
330.434265	2159.758857
330.827938	2177.649912
331.221547	2196.193797
331.615091	2217.036447
332.008571	2234.506566
332.401986	2255.482807
332.795338	2273.436876
333.188625	2293.679630
333.581847	2311.419450
333.975006	2330.674137
334.368100	2346.425222
334.761129	2366.569673
335.154095	2382.945861
335.546996	2403.264232
335.939833	2423.164187
336.332606	2438.259922
336.725315	2451.455142
337.117960	2459.039558
337.510540	2469.550364
337.903056	2481.084524
338.295508	2487.436378
338.687896	2495.048520
339.080220	2500.692092
339.472480	2508.331960
339.864676	2513.612569
340.256807	2519.251100
340.648875	2521.779238
341.040879	2524.942562
341.432818	2524.282171
341.824694	2527.301822
342.216506	2525.855011
342.608253	2530.634025
342.999937	2529.242667
343.391557	2530.573531
343.783113	2527.997502
344.174605	2526.742254
344.566033	2522.847963
344.957397	2520.095493
345.348697	2524.017511
345.739934	2519.853518
346.131106	2515.263547
346.522215	2519.419978
346.913260	2511.170130
347.304241	2513.116015
347.695159	2510.920593
348.086012	2509.118380
348.476802	2505.481188
348.867528	2504.538492
349.258191	2505.244254
349.648789	2502.723677
350.039324	2500.503048
350.429796	2499.971207
350.820203	2499.399036
351.210548	2497.347286
351.600828	2496.959117
351.991045	2496.722183
352.381198	2498.446258
352.771288	2496.228150
353.161314	2494.264621
353.551276	2496.941473
353.941175	2493.261431
354.331010	2495.759323
354.720782	2494.466267
355.110490	2496.051710
355.500135	2493.568941
355.889717	2491.872593
356.279235	2497.674961
356.668689	2495.628253
357.058080	2495.020794
357.447408	2492.664054
357.836672	2493.795793
358.225873	2494.035248
358.615010	2492.958962
359.004084	2500.104797
359.393095	2497.415342
359.782043	2497.327122
360.170927	2497.042296
360.559748	2500.140085
360.948505	2499.338542
361.337199	2501.869201
361.725830	2499.366268
362.114398	2500.087153
362.502903	2500.737462
362.891344	2503.343739
363.279722	2502.892555
363.668037	2500.682009
364.056289	2503.101763
364.444478	2502.159068
364.832603	2506.285252
365.220665	2501.226454
365.608665	2503.132010
365.996601	2506.955725
366.384474	2503.525220
366.772284	2505.455982
367.160031	2505.471106
367.547715	2507.169974
367.935336	2508.304234
368.322893	2506.272649
368.710388	2508.198370
369.097820	2508.944461
369.485189	2507.374141
369.872495	2508.853720
370.259738	2507.694254
370.646918	2509.130983
371.034035	2507.371621
371.421090	2510.287928
371.808081	2507.694254
372.195010	2508.906652
372.581875	2509.511590
372.968678	2510.476971
373.355418	2510.940758
373.742096	2509.778772
374.128710	2513.015192
374.515262	2513.307579
374.901751	2510.136693
375.288177	2513.579802
375.674540	2510.572753
376.060841	2512.304390
376.447079	2514.255316
376.833254	2512.702641
377.219367	2508.321878
377.605417	2510.489574
377.991404	2508.384892
378.377329	2512.354801
378.763191	2507.348935
379.148991	2513.915038
379.534727	2514.996366
379.920402	2513.158865
380.306013	2514.628362
380.691563	2515.805471
381.077049	2514.930831
381.462474	2514.225069
381.847835	2515.689524
382.233134	2515.228259
382.618371	2516.964936
383.003545	2514.293125
383.388657	2516.448218
383.773706	2515.596263
384.158693	2516.324710
384.543618	2516.201202
384.928480	2516.937210
385.313280	2519.425019
385.698017	2517.693383
386.082692	2516.594412
386.467305	2520.473579
386.851856	2519.195647
387.236344	2516.302025
387.620770	2518.177334
388.005133	2516.060049
388.389435	2519.777900
388.773674	2517.267406
389.157851	2517.222035
389.541965	2519.304032
389.926018	2518.716737
390.310008	2517.794206
390.693936	2517.915194
391.077802	2519.908970
391.461606	2521.242355
391.845348	2519.422499
392.229027	2522.827798
392.612645	2521.121368
392.996200	2521.504495
393.379694	2519.508198
393.763125	2520.798734
394.146494	2520.052643
394.529801	2523.193282
394.913047	2526.923736
395.296230	2523.541122
395.679351	2523.712521
396.062410	2526.598581
396.445408	2525.708818
396.828343	2524.330062
397.211217	2518.885616
397.594028	2521.249917
397.976778	2521.590195
398.359466	2522.842922
398.742092	2518.971316
399.124656	2523.311749
399.507158	2523.074815
399.889598	2524.846780
400.271977	2524.871986
400.654294	2524.912315
401.036549	2524.927439
401.418742	2526.354085
401.800874	2525.192099
402.182944	2527.337110
402.564952	2525.683612
402.946898	2524.705628
403.328783	2525.431554
403.710606	2526.490197
404.092367	2526.238139
404.474067	2526.986750
404.855705	2525.270237
405.237282	2527.364837
405.618797	2528.894827
406.000250	2528.272244
406.381642	2525.671009
406.762972	2527.135464
407.144240	2529.106555
407.525447	2530.691998
407.906593	2526.752337
408.287677	2531.175949
408.668700	2527.596730
409.049661	2528.463808
409.430560	2529.293078
409.811399	2529.681247
410.192176	2530.903727
410.572891	2530.331556
410.953545	2530.593696
411.334138	2529.845084
411.714669	2528.930115
412.095139	2530.694519
412.475547	2530.019004
412.855894	2530.122348
413.236180	2529.126720
413.616405	2532.658048
413.996568	2532.088398
414.376670	2531.866587
414.756711	2529.469518
415.136691	2533.023532
415.516609	2532.194262
415.896466	2531.743079
416.276262	2534.919006
416.655997	2530.792821
417.035670	2527.916843
417.415283	2529.966072
417.794834	2526.654034
418.174324	2532.758871
418.553753	2530.230733
418.933121	2534.203162
419.312428	2533.305837
419.691674	2533.250384
420.070859	2532.388347
420.449983	2533.714170
420.829045	2534.679551
421.208047	2536.096115
421.586988	2531.480939
421.965867	2535.733152
422.344686	2533.411701
422.723444	2537.094264
423.102141	2536.932947
423.480777	2535.864222
423.859352	2534.046886
424.237866	2534.616537
424.616319	2536.728780
424.994712	2534.460261
425.373044	2535.206352
425.751314	2535.627288
426.129524	2533.744417
426.507673	2533.378933
426.885762	2535.057637
427.263789	2536.721218
427.641756	2534.735004
428.019662	2537.363965
428.397508	2532.630322
428.775292	2539.813966
429.153016	2535.586959
429.530679	2535.828934
429.908282	2536.103677
430.285824	2536.814480
430.663305	2535.627288
431.040726	2536.514531
431.418086	2534.601413
431.795385	2538.324305
432.172624	2535.415559
432.549802	2534.881197
432.926920	2536.494366
433.303977	2540.857485
433.680974	2537.817669
434.057910	2537.094264
434.434786	2533.699047
434.811601	2539.342618
435.188355	2537.575694
435.565050	2537.154757
435.941683	2538.165509
436.318257	2536.630477
436.694770	2532.673172
437.071222	2534.896321
437.447614	2534.246012
437.823946	2534.931609
438.200218	2540.015612
438.576429	2541.192722
438.952580	2542.591642
439.328670	2539.932433
439.704700	2539.819007
440.080670	2539.304810
440.456580	2537.202648
440.832429	2541.913607
441.208218	2539.909748
441.583947	2540.814635
441.959616	2538.737680
442.335224	2540.751621
442.710773	2539.451003
443.086261	2540.471837
443.461689	2540.355890
443.837057	2538.052083
444.212365	2540.623071
444.587612	2542.301776
444.962800	2542.763041
445.337927	2540.970911
445.712995	2540.812115
446.088002	2541.230530
446.462949	2542.226158
446.837837	2542.450490
447.212664	2541.041487
447.587431	2542.211035
447.962139	2544.701365
448.336786	2544.073741
448.711374	2541.021323
449.085901	2542.624409
449.460369	2541.855633
449.834776	2542.997455
450.209124	2544.875285
450.583412	2541.205325
450.957640	2544.177085
451.331808	2543.927548
451.705917	2542.190870
452.079965	2544.242620
452.453954	2543.226827
452.827883	2545.752445
453.201752	2544.535007
453.575562	2542.914276
453.949311	2543.657846
454.323001	2544.880326
454.696632	2544.603062
455.070202	2548.283105
455.443713	2545.649102
455.817164	2541.391847
456.190556	2543.425953
456.563888	2543.546941
456.937160	2540.106353
457.310373	2544.386293
457.683526	2543.312527
458.056619	2545.707075
458.429653	2544.696324
458.802628	2543.378062
459.175542	2544.744215
459.548398	2543.388144
459.921194	2546.662374
460.293930	2546.780841
460.666607	2548.293187
461.039224	2545.336550
461.411782	2547.158927
461.784280	2549.573640
462.156719	2547.741181
462.529099	2548.028526
462.901419	2547.516849
463.273680	2549.863506
463.645882	2545.689431
464.018024	2546.659853
464.390106	2548.099102
464.762130	2546.927034
465.134094	2550.173537
465.505999	2549.097251
465.877845	2551.804351
466.249631	2552.018600
466.621358	2549.833259
466.993026	2552.195040
467.364634	2557.145453
467.736184	2550.826367
468.107674	2551.123795
468.479105	2547.300080
468.850477	2548.469627
469.221790	2552.512633
469.593043	2548.409133
469.964238	2549.780327
470.335373	2552.331151
470.706449	2551.396017
471.077467	2550.153373
471.448425	2547.905018
471.819324	2555.053374
472.190164	2554.715617
472.560945	2551.408620
472.931667	2551.779145
473.302330	2551.121274
473.672934	2547.758825
474.043479	2552.721841
474.413965	2551.731254
474.784393	2549.750080
475.154761	2550.796120
475.525070	2550.642365
475.895321	2550.506253
476.265513	2546.969884
476.635645	2552.547921
477.005719	2555.575134
477.375734	2555.176883
477.745691	2555.093703
478.115588	2557.720145
478.485427	2556.999260
478.855207	2557.021945
479.224928	2557.200906
479.594591	2559.469425
479.964194	2555.549928
480.333739	2558.617470
480.703226	2559.151832
481.072653	2559.456822
481.442022	2557.891544
481.811333	2562.786504
482.180584	2560.467573
482.549777	2559.897923
482.918912	2561.974878
483.287988	2563.507389
483.657005	2561.677450
484.025964	2562.902451
484.394864	2562.897410
484.763706	2562.211813
485.132489	2563.187276
485.501213	2565.599468
485.869879	2565.281875
486.238487	2563.298181
486.607036	2567.799932
486.975527	2567.220199
487.343959	2568.084757
487.712333	2570.096177
488.080648	2572.526013
488.448905	2571.149778
488.817104	2577.370562
489.185244	2577.632702
489.553326	2580.591860
489.921350	2582.608321
490.289315	2588.715679
490.657222	2597.187338
491.025070	2597.419231
491.392861	2603.236723
491.760593	2601.280755
492.128267	2602.611620
492.495883	2606.836107
492.863440	2606.281580
493.230939	2608.245109
493.598380	2611.020264
493.965763	2612.598145
494.333088	2615.597632
494.700354	2621.866307
495.067563	2626.610032
495.434713	2627.557769
495.801805	2641.083185
496.168839	2646.663742
496.535815	2653.491985
496.902733	2657.655978
497.269593	2666.871208
497.636395	2670.697443
498.003139	2683.723785
498.369825	2688.596060
498.736453	2700.299099
499.103023	2703.222968
499.469535	2714.598332
499.835989	2722.918756
500.202385	2733.863101
500.568723	2741.550861
500.935003	2754.395721
501.301226	2765.473656
501.667390	2781.920421
502.033497	2798.828451
502.399546	2805.787764
502.765537	2817.458035
503.131470	2831.381702
503.497345	2853.633355
503.863163	2854.749970
504.228923	2880.510267
504.594625	2899.709501
504.960269	2904.629667
505.325856	2930.395004
505.691385	2942.949998
506.056856	2966.693833
506.422270	2989.043788
506.787625	3001.255983
507.152924	3028.301774
507.518164	3047.679969
507.883347	3065.944070
508.248472	3082.030392
508.613540	3118.581277
508.978550	3136.414359
509.343503	3155.911022
509.708398	3193.989377
510.073236	3225.894840
510.438016	3251.357708
510.802738	3274.902417
511.167403	3310.296358
511.532010	3335.121520
511.896561	3374.934033
512.261053	3417.637647
512.625488	3434.255811
512.989866	3459.418730
513.354186	3497.292919
513.718449	3526.496323
514.082655	3578.601689
514.446803	3606.693519
514.810894	3660.674195
515.174927	3684.896939
515.538904	3718.478585
515.902822	3783.572484
516.266684	3803.797593
516.630488	3841.321422
516.994235	3885.096282
517.357925	3947.770427
517.721558	3995.948734
518.085133	4046.312382
518.448651	4089.240327
518.812112	4118.655460
519.175516	4169.883665
519.538863	4240.618615
519.902152	4262.961009
520.265385	4353.076675
520.628560	4378.277403
520.991678	4435.781845
521.354739	4486.853775
521.717743	4526.005896
522.080690	4570.017690
522.443580	4665.716434
522.806413	4707.376529
523.169189	4761.331999
523.531908	4831.212474
523.894569	4847.331563
524.257174	4899.159666
524.619722	4995.541486
524.982213	5019.295403
525.344647	5107.049289
525.707025	5138.927025
526.069345	5229.597218
526.431608	5276.671513
526.793815	5360.959605
527.155964	5361.254512
527.518057	5430.207415
527.880093	5478.436134
528.242072	5556.332043
528.603995	5595.519452
528.965860	5621.980469
529.327669	5702.230597
529.689421	5737.233849
530.051117	5785.636487
530.412755	5896.675463
530.774337	5893.910390
531.135862	5965.981246
531.497331	6024.103229
531.858743	6034.460279
532.220098	6162.571122
532.581396	6165.232851
532.942638	6214.099276
533.303824	6255.242653
533.664953	6330.257543
534.026025	6357.575556
534.387040	6456.798066
534.747999	6511.986098
535.108902	6600.057576
535.469748	6542.008690
535.830537	6648.523229
536.191270	6701.336878
536.551947	6774.960409
536.912567	6831.053328
537.273131	6843.308373
537.633638	6894.420632
537.994089	6948.353416
538.354483	6983.180227
538.714821	7109.153621
539.075103	7178.161976
539.435328	7218.334931
539.795497	7167.570512
540.155609	7326.797877
540.515665	7424.719769
540.875665	7332.824576
541.235609	7431.442148
541.595496	7478.836556
541.955328	7634.348590
542.315102	7614.667926
542.674821	7644.440980
543.034483	7696.669855
543.394090	7750.400993
543.753640	7765.088395
544.113134	7963.367058
544.472571	7917.081704
544.831953	8068.563336
545.191278	7991.189186
545.550548	8056.842653
545.909761	8199.797173
546.268918	8233.363696
546.628019	8339.227927
546.987064	8301.507493
547.346053	8278.577805
547.704986	8410.499760
548.063863	8449.777910
548.422684	8478.756983
548.781449	8480.763362
549.140158	8590.519364
549.498811	8559.445692
549.857408	8489.396338
550.215949	8707.141417
550.574434	8635.312536
550.932864	8760.917926
551.291237	8839.728804
551.649555	8854.199436
552.007817	8901.099811
552.366022	8896.119151
552.724173	8941.381151
553.082267	8963.226991
553.440305	9118.807081
553.798288	8994.293102
554.156215	9159.340479
554.514086	9179.618520
554.871902	9088.550076
555.229661	9154.034664
555.587365	9171.532509
555.945014	9119.477555
556.302606	9257.932845
556.660143	9202.666675
557.017625	9368.593734
557.375050	9314.192122
557.732421	9459.541190
558.089735	9415.388244
558.446994	9447.230693
558.804197	9510.897945
559.161345	9545.510507
559.518437	9435.941028
559.875474	9547.917658
560.232455	9601.129558
560.589381	9585.496940
560.946251	9618.420715
561.303065	9722.928876
561.659825	9705.017656
562.016528	9669.958952
562.373177	9582.930992
562.729770	9715.929234
563.086307	9664.010390
563.442789	9760.233414
563.799216	9684.404378
564.155587	9748.679090
564.511904	9729.936080
564.868164	9735.322552
565.224370	9772.286813
565.580520	9730.820802
565.936615	9745.188091
566.292654	9657.734154
566.648638	9787.846334
567.004567	9767.049054
567.360441	9769.189024
567.716260	9699.535401
568.072023	9806.198655
568.427732	9779.339387
568.783385	9710.348676
569.138982	9795.239187
569.494525	9816.911107
569.850013	9716.498884
570.205445	9813.004213
570.560823	9723.248989
570.916145	9658.830605
571.271412	9728.832067
571.626625	9695.109268
571.981782	9687.411426
572.336884	9677.503038
572.691931	9685.500829
573.046923	9648.869285
573.401860	9613.382082
573.756743	9567.505062
574.111570	9621.483216
574.466342	9607.945198
574.821059	9643.336618
575.175722	9548.368842
575.530330	9570.514630
575.884882	9565.730575
576.239380	9509.529272
576.593823	9489.755346
576.948211	9517.335498
577.302544	9403.102952
577.656823	9426.715717
578.011047	9436.072098
578.365216	9420.739429
578.719330	9347.017595
579.073389	9364.225574
579.427394	9312.226072
579.781344	9301.127972
580.135239	9252.997555
580.489080	9270.097149
580.842866	9175.961163
581.196597	9186.053553
581.550273	9228.893278
581.903895	9199.352117
582.257463	9269.086398
582.610975	9156.063729
582.964434	9186.769397
583.317837	9118.121484
583.671186	9095.569882
584.024481	9094.012166
584.377721	9014.651802
584.730906	8999.649328
585.084037	9031.330459
585.437113	8974.625040
585.790135	8996.281837
586.143103	8902.160974
586.496016	8873.728866
586.848874	8936.644987
587.201679	8925.289788
587.554428	8819.937234
587.907124	8864.430458
588.259765	8835.423659
588.612352	8840.162343
588.964884	8718.577274
589.317362	8735.369358
589.669786	8737.569822
590.022155	8786.514384
590.374470	8796.954614
590.726731	8741.940502
591.078937	8591.086494
591.431090	8707.882467
591.783188	8581.006707
592.135232	8578.607117
592.487222	8577.218279
592.839157	8630.168039
593.191038	8565.343842
593.542866	8511.363166
593.894639	8414.452025
594.246358	8466.222154
594.598022	8485.249989
594.949633	8382.113023
595.301190	8362.515537
595.652692	8389.125268
596.004141	8495.712904
596.355535	8279.591077
596.706876	8256.948734
597.058162	8192.008591
597.409395	8266.398377
597.760573	8336.931681
598.111698	8244.315603
598.462768	8233.671207
598.813785	8199.071247
599.164748	8165.177049
599.515657	8155.019124
599.866511	8075.462155
600.217312	8190.728138
600.568060	8055.708393
600.918753	8155.765215
601.269392	8129.730176
601.619978	8043.660036
601.970510	8106.596321
602.320988	8105.686393
602.671412	8159.702356
603.021783	8095.341945
603.372100	8066.854385
603.722363	8073.652381
604.072572	8048.441570
604.422728	8064.180053
604.772830	7987.743557
605.122878	7995.053230
605.472872	7990.748085
605.822813	8024.392746
606.172701	7964.448385
606.522534	8042.006537
606.872314	8041.177267
607.222041	8014.698607
607.571714	8065.654590
607.921333	8025.635390
608.270899	8032.614868
608.620411	8128.001060
608.969870	8030.270731
609.319276	8018.071139
609.668627	8034.205352
610.017926	8072.634067
610.367171	8117.432281
610.716362	8095.803211
611.065500	8089.625277
611.414585	8110.725026
611.763616	8109.736960
612.112594	8088.841377
612.461518	8102.371834
612.810389	8158.414341
613.159207	8099.074919
613.507971	8048.600367
613.856682	8168.630240
614.205340	8119.247097
614.553945	8198.572173
614.902496	8097.852440
615.250994	8152.584247
615.599439	8135.378789
615.947830	8149.816653
616.296169	8119.269782
616.644454	8134.196638
616.992686	8135.524982
617.340864	8193.518416
617.688990	8090.983867
618.037063	8185.785286
618.385082	8130.614898
618.733048	8225.436482
619.080961	8163.803335
619.428821	8180.527363
619.776628	8179.531735
620.124382	8132.026422
620.472083	8114.629400
620.819731	8144.573853
621.167326	8033.212244
621.514868	8046.334368
621.862357	7935.212214
622.209793	7949.776107
622.557176	7886.774287
622.904506	7859.249587
623.251783	7793.772560
623.599007	7748.853359
623.946179	7752.964420
624.293297	7708.824077
624.640363	7627.301057
624.987376	7613.999973
625.334336	7559.179945
625.681243	7505.804208
626.028097	7497.708115
626.374899	7477.730023
626.721647	7465.684186
627.068343	7395.781026
627.414987	7371.785133
627.761577	7326.492887
628.108115	7370.882767
628.454600	7256.899758
628.801032	7313.582492
629.147412	7271.262005
629.493739	7262.107270
629.840014	7195.405243
630.186236	7251.344406
630.532405	7135.120604
630.878521	7186.810075
631.224585	7141.227962
631.570597	7073.618528
631.916556	7096.835562
632.262462	7100.974349
632.608316	7060.478760
632.954117	7034.473968
633.299866	7019.766402
633.645562	7016.255238
633.991206	6936.289935
634.336797	6881.656430
634.682336	6839.701427
635.027823	6800.259440
635.373257	6799.725077
635.718639	6728.770837
636.063968	6739.984884
636.409245	6637.692310
636.754470	6632.290714
637.099642	6595.971721
637.444762	6537.002824
637.789829	6545.081273
638.134845	6486.533312
638.479808	6475.694832
638.824719	6476.655171
639.169577	6408.854173
639.514383	6434.160765
639.859137	6357.646132
640.203839	6365.250712
640.548489	6354.069433
640.893086	6327.389127
641.237632	6301.540610
641.582125	6319.477036
641.926566	6292.774044
642.270955	6304.121681
642.615292	6302.571526
642.959576	6313.346992
643.303809	6308.394059
643.647990	6309.142670
643.992118	6302.334592
644.336195	6247.081025
