Dividing Wavelength (nm)	Counts (n)	Slit_number_3_of_a_total_of_40	
326.493990	2051.321117
326.888308	2051.321117
327.282561	2051.321117
327.676750	2028.207427
328.070874	2020.696108
328.464933	2028.635925
328.858929	2043.028419
329.252859	2053.791283
329.646726	2059.689433
330.040528	2083.029975
330.434265	2100.472367
330.827938	2125.476490
331.221547	2139.339663
331.615091	2155.849442
332.008571	2179.643688
332.401986	2204.975487
332.795338	2215.914790
333.188625	2230.156050
333.581847	2257.605133
333.975006	2273.812442
334.368100	2291.330452
334.761129	2309.377783
335.154095	2322.988898
335.546996	2344.514625
335.939833	2361.679754
336.332606	2373.602083
336.725315	2389.229660
337.117960	2396.640156
337.510540	2406.646846
337.903056	2420.383990
338.295508	2433.768254
338.687896	2439.641198
339.080220	2445.110850
339.472480	2438.355704
339.864676	2447.631427
340.256807	2457.990998
340.648875	2463.284210
341.040879	2450.303238
341.432818	2458.243056
341.824694	2461.192131
342.216506	2463.712708
342.608253	2455.369598
342.999937	2455.369598
343.391557	2455.546038
343.783113	2445.388113
344.174605	2451.966819
344.566033	2447.404575
344.957397	2455.394804
345.348697	2442.439038
345.739934	2450.227621
346.131106	2447.505398
346.522215	2443.447269
346.913260	2436.717329
347.304241	2437.927206
347.695159	2434.095929
348.086012	2436.288831
348.476802	2432.331525
348.867528	2425.929260
349.258191	2428.853129
349.648789	2428.777512
350.039324	2427.819692
350.429796	2423.761563
350.820203	2424.795000
351.210548	2426.307346
351.600828	2424.366502
351.991045	2426.761050
352.381198	2434.020312
352.771288	2423.610329
353.161314	2420.333579
353.551276	2423.358271
353.941175	2419.552200
354.331010	2427.416400
354.720782	2424.265679
355.110490	2427.920515
355.500135	2420.257962
355.889717	2424.744588
356.279235	2425.072263
356.668689	2426.584610
357.058080	2425.248704
357.447408	2428.122162
357.836672	2429.357244
358.225873	2424.719383
358.615010	2429.710125
359.004084	2428.878335
359.393095	2429.483273
359.782043	2428.525454
360.170927	2428.374219
360.559748	2427.970927
360.948505	2435.230188
361.337199	2439.363935
361.725830	2433.087698
362.114398	2422.097983
362.502903	2440.397371
362.891344	2432.785229
363.279722	2435.179777
363.668037	2432.255908
364.056289	2434.776485
364.444478	2436.818152
364.832603	2431.524940
365.220665	2436.061979
365.608665	2440.573812
365.996601	2440.346960
366.384474	2437.196238
366.772284	2430.718356
367.160031	2441.203956
367.547715	2441.002310
367.935336	2442.817125
368.322893	2438.179263
368.710388	2434.171546
369.097820	2433.818665
369.485189	2425.853642
369.872495	2443.346446
370.259738	2434.952925
370.646918	2440.951898
371.034035	2444.581529
371.421090	2435.986362
371.808081	2434.095929
372.195010	2441.355190
372.581875	2440.599017
372.968678	2441.203956
373.355418	2447.606221
373.742096	2442.514656
374.128710	2438.683379
374.515262	2445.312496
374.901751	2448.009513
375.288177	2442.010540
375.674540	2435.734304
376.060841	2446.547579
376.447079	2438.154058
376.833254	2448.790892
377.219367	2438.179263
377.605417	2442.363421
377.991404	2441.456013
378.377329	2446.623196
378.763191	2442.010540
379.148991	2445.942640
379.534727	2434.045517
379.920402	2444.783175
380.306013	2440.523400
380.691563	2444.657146
381.077049	2447.001283
381.462474	2450.706531
381.847835	2445.564554
382.233134	2442.892742
382.618371	2444.455500
383.003545	2449.017744
383.388657	2443.900973
383.773706	2438.002823
384.158693	2451.109823
384.543618	2450.202415
384.928480	2446.497167
385.313280	2441.632454
385.698017	2445.514142
386.082692	2445.993052
386.467305	2453.605194
386.851856	2446.698813
387.236344	2443.094388
387.620770	2453.579988
388.005133	2440.800663
388.389435	2448.185954
388.773674	2442.161775
389.157851	2453.403548
389.541965	2449.446242
389.926018	2454.537808
390.310008	2444.556323
390.693936	2455.117540
391.077802	2452.067642
391.461606	2453.504371
391.845348	2449.647888
392.229027	2458.268262
392.612645	2449.370625
392.996200	2454.840277
393.379694	2451.689556
393.763125	2459.881431
394.146494	2444.304265
394.529801	2447.681838
394.913047	2454.361367
395.296230	2453.857252
395.679351	2457.486883
396.062410	2451.538321
396.445408	2444.757969
396.828343	2453.731223
397.211217	2452.092848
397.594028	2453.378342
397.976778	2450.756942
398.359466	2456.125771
398.742092	2454.663837
399.124656	2458.999229
399.507158	2461.847481
399.889598	2459.957048
400.271977	2456.478652
400.654294	2459.780608
401.036549	2458.016204
401.418742	2457.663323
401.800874	2454.058898
402.182944	2458.343879
402.564952	2456.352623
402.946898	2455.117540
403.328783	2451.840790
403.710606	2462.880917
404.092367	2447.102106
404.474067	2456.150977
404.855705	2452.949844
405.237282	2452.244083
405.618797	2451.714762
406.000250	2457.915381
406.381642	2458.268262
406.762972	2453.630400
407.144240	2456.226594
407.525447	2461.620629
407.906593	2453.050667
408.287677	2451.160235
408.668700	2458.822788
409.049661	2463.259004
409.430560	2455.117540
409.811399	2461.872687
410.192176	2445.841817
410.572891	2465.754375
410.953545	2461.091308
411.334138	2456.302212
411.714669	2463.359827
412.095139	2456.226594
412.475547	2464.821762
412.855894	2466.258490
413.236180	2455.193158
413.616405	2464.116000
413.996568	2459.175669
414.376670	2470.946763
414.756711	2460.612398
415.136691	2472.786785
415.516609	2451.941613
415.896466	2456.781121
416.276262	2461.318160
416.655997	2457.234825
417.035670	2460.914867
417.415283	2468.022894
417.794834	2465.703963
418.174324	2464.594910
418.553753	2466.510548
418.933121	2464.922585
419.312428	2471.198821
419.691674	2465.149437
420.070859	2458.847994
420.449983	2462.729683
420.829045	2466.283696
421.208047	2466.359313
421.586988	2459.251287
421.965867	2469.812504
422.344686	2468.174129
422.723444	2466.712194
423.102141	2461.872687
423.480777	2455.142746
423.859352	2452.874227
424.237866	2459.931842
424.616319	2463.536267
424.994712	2468.249746
425.373044	2463.006946
425.751314	2466.031638
426.129524	2462.049127
426.507673	2457.612912
426.885762	2463.763119
427.263789	2460.057871
427.641756	2467.342338
428.019662	2468.098512
428.397508	2472.408698
428.775292	2466.787812
429.153016	2458.595937
429.530679	2460.940073
429.908282	2466.586165
430.285824	2462.906123
430.663305	2458.822788
431.040726	2463.611885
431.418086	2466.460137
431.795385	2465.502317
432.172624	2467.165898
432.549802	2467.216310
432.926920	2466.460137
433.303977	2460.486369
433.680974	2466.031638
434.057910	2468.375775
434.434786	2470.971969
434.811601	2463.964765
435.188355	2460.990485
435.565050	2468.224540
435.941683	2467.342338
436.318257	2467.241515
436.694770	2461.696246
437.071222	2466.989458
437.447614	2465.451906
437.823946	2464.998202
438.200218	2466.233285
438.576429	2468.224540
438.952580	2464.267235
439.328670	2461.797069
439.704700	2463.788325
440.080670	2465.451906
440.456580	2466.359313
440.832429	2473.442135
441.208218	2469.862915
441.583947	2471.652525
441.959616	2467.266721
442.335224	2463.763119
442.710773	2468.249746
443.086261	2471.728142
443.461689	2465.401494
443.837057	2472.509521
444.212365	2468.300158
444.587612	2460.435958
444.962800	2467.468367
445.337927	2462.200362
445.712995	2466.762606
446.088002	2462.326390
446.462949	2457.915381
446.837837	2470.820735
447.212664	2465.703963
447.587431	2465.225054
447.962139	2474.652012
448.336786	2468.577421
448.711374	2466.308902
449.085901	2459.604167
449.460369	2474.576394
449.834776	2465.729169
450.209124	2472.509521
450.583412	2469.862915
450.957640	2471.249233
451.331808	2470.493060
451.705917	2469.535240
452.079965	2466.460137
452.453954	2469.510035
452.827883	2472.660756
453.201752	2471.072792
453.575562	2465.376288
453.949311	2470.543471
454.323001	2466.586165
454.696632	2468.350569
455.070202	2479.920017
455.443713	2478.936992
455.817164	2476.214769
456.190556	2468.753862
456.563888	2470.316619
456.937160	2474.273925
457.310373	2466.913840
457.683526	2474.399954
458.056619	2476.996148
458.429653	2475.458596
458.802628	2471.854171
459.175542	2478.458083
459.548398	2477.122177
459.921194	2467.871660
460.293930	2465.073819
460.666607	2465.048613
461.039224	2466.636577
461.411782	2474.122690
461.784280	2465.225054
462.156719	2482.667446
462.529099	2478.836169
462.901419	2469.257977
463.273680	2473.542958
463.645882	2474.702423
464.018024	2471.274438
464.390106	2475.231744
464.762130	2475.458596
465.134094	2469.484829
465.505999	2476.139152
465.877845	2466.384519
466.249631	2480.197281
466.621358	2470.896352
466.993026	2477.601087
467.364634	2476.315592
467.736184	2476.113946
468.107674	2475.408185
468.479105	2479.264667
468.850477	2463.637090
469.221790	2467.972483
469.593043	2473.064048
469.964238	2475.181333
470.335373	2473.643781
470.706449	2472.660756
471.077467	2467.896865
471.448425	2476.265181
471.819324	2475.156127
472.190164	2472.081023
472.560945	2474.828452
472.931667	2467.947277
473.302330	2480.928248
473.672934	2471.778554
474.043479	2482.768269
474.413965	2474.173102
474.784393	2477.374235
475.154761	2477.096971
475.525070	2477.777527
475.895321	2480.474544
476.265513	2483.801706
476.635645	2479.667960
477.005719	2480.323310
477.375734	2482.138125
477.745691	2470.518265
478.115588	2480.398927
478.485427	2478.609317
478.855207	2476.416415
479.224928	2475.685448
479.594591	2478.483288
479.964194	2479.063021
480.333739	2480.903042
480.703226	2479.718371
481.072653	2476.718885
481.442022	2480.272898
481.811333	2478.609317
482.180584	2475.055304
482.549777	2467.443162
482.918912	2477.021354
483.287988	2476.895325
483.657005	2472.610344
484.025964	2480.373721
484.394864	2478.634523
484.763706	2474.727629
485.132489	2486.801192
485.501213	2481.155100
485.869879	2480.676190
486.238487	2482.440594
486.607036	2478.836169
486.975527	2473.240488
487.343959	2478.105202
487.712333	2474.374748
488.080648	2471.854171
488.448905	2484.305821
488.817104	2473.467340
489.185244	2477.197794
489.553326	2482.944710
489.921350	2486.498723
490.289315	2478.281642
490.657222	2480.172075
491.025070	2477.046560
491.392861	2474.677217
491.760593	2475.382979
492.128267	2488.489979
492.495883	2478.609317
492.863440	2479.441108
493.230939	2482.894298
493.598380	2484.331027
493.965763	2484.532673
494.333088	2470.140179
494.700354	2486.448312
495.067563	2484.709113
495.434713	2476.466827
495.801805	2481.734833
496.168839	2476.844913
496.535815	2490.582058
496.902733	2484.381438
497.269593	2477.777527
497.636395	2476.466827
498.003139	2480.071252
498.369825	2475.937506
498.736453	2485.893785
499.103023	2480.323310
499.469535	2480.524956
499.835989	2491.489465
500.202385	2480.046046
500.568723	2480.499750
500.935003	2477.248206
501.301226	2467.997688
501.667390	2487.280102
502.033497	2478.584112
502.399546	2489.321769
502.765537	2476.920531
503.131470	2479.617548
503.497345	2482.541417
503.863163	2483.902529
504.228923	2482.869092
504.594625	2478.332054
504.960269	2477.651498
505.325856	2483.952940
505.691385	2478.634523
506.056856	2479.063021
506.422270	2471.753348
506.787625	2481.356746
507.152924	2479.390696
507.518164	2484.331027
507.883347	2474.248719
508.248472	2484.910760
508.613540	2481.684421
508.978550	2472.358287
509.343503	2476.164358
509.708398	2486.927221
510.073236	2477.500263
510.438016	2478.432877
510.802738	2482.944710
511.167403	2489.649444
511.532010	2490.708087
511.896561	2482.289360
512.261053	2485.717344
512.625488	2480.373721
512.989866	2481.507981
513.354186	2483.751294
513.718449	2490.934938
514.082655	2482.516212
514.446803	2483.927735
514.810894	2487.960658
515.174927	2491.413848
515.538904	2486.523929
515.902822	2482.969915
516.266684	2488.691625
516.630488	2477.802733
516.994235	2481.281129
517.357925	2483.650471
517.721558	2491.035762
518.085133	2476.214769
518.448651	2481.860862
518.812112	2478.533700
519.175516	2492.699342
519.538863	2486.927221
519.902152	2489.674650
520.265385	2489.069712
520.628560	2495.572800
520.991678	2485.414875
521.354739	2496.328973
521.717743	2488.086687
522.080690	2500.160250
522.443580	2500.689571
522.806413	2502.731238
523.169189	2488.943683
523.531908	2499.681340
523.894569	2497.841319
524.257174	2497.185969
524.619722	2500.462719
524.982213	2499.025990
525.344647	2500.109838
525.707025	2503.815087
526.069345	2503.210148
526.431608	2507.747187
526.793815	2498.042965
527.155964	2510.948319
527.518057	2503.310971
527.880093	2509.133504
528.242072	2510.192146
528.603995	2508.856240
528.965860	2516.468383
529.327669	2517.400996
529.689421	2517.022910
530.051117	2514.199863
530.412755	2520.501306
530.774337	2514.703979
531.135862	2525.945752
531.497331	2515.233300
531.858743	2523.147912
532.220098	2523.273940
532.581396	2522.769825
532.942638	2525.139167
533.303824	2531.566638
533.664953	2533.104190
534.026025	2523.904085
534.387040	2520.400483
534.747999	2526.500279
535.108902	2533.356248
535.469748	2527.382481
535.830537	2535.246681
536.191270	2537.616023
536.551947	2530.155115
536.912567	2528.365506
537.273131	2531.012112
537.633638	2526.071781
537.994089	2541.548123
538.354483	2546.312013
538.714821	2536.708615
539.075103	2532.423635
539.435328	2534.666948
539.795497	2547.471479
540.155609	2534.742565
540.515665	2544.194729
540.875665	2539.556867
541.235609	2548.933413
541.595496	2539.632485
541.955328	2548.278063
542.315102	2544.295552
542.674821	2550.773435
543.034483	2547.673125
543.394090	2552.310987
543.753640	2558.410783
544.113134	2551.706048
544.472571	2558.587223
544.831953	2565.417987
545.191278	2562.569735
545.550548	2550.420554
545.909761	2551.504402
546.268918	2552.966337
546.628019	2562.821792
546.987064	2557.074877
547.346053	2556.570762
547.704986	2560.074363
548.063863	2550.874258
548.422684	2557.931873
548.781449	2558.335165
549.140158	2560.780125
549.498811	2561.334652
549.857408	2563.779612
550.215949	2566.501835
550.574434	2560.049158
550.932864	2559.292985
551.291237	2566.148954
551.649555	2563.754406
552.007817	2569.425704
552.366022	2561.183417
552.724173	2552.941131
553.082267	2565.065106
553.440305	2567.157185
553.798288	2566.199365
554.156215	2567.837740
554.514086	2557.226112
554.871902	2560.780125
555.229661	2558.763663
555.587365	2560.175187
555.945014	2561.309446
556.302606	2559.494631
556.660143	2564.409756
557.017625	2559.015721
557.375050	2547.169010
557.732421	2567.812535
558.089735	2560.376833
558.446994	2558.612429
558.804197	2557.982285
559.161345	2556.369115
559.518437	2557.755433
559.875474	2563.124262
560.232455	2560.023952
560.589381	2565.014694
560.946251	2558.461194
561.303065	2562.191648
561.659825	2559.998746
562.016528	2549.866027
562.373177	2556.066646
562.729770	2555.134033
563.086307	2551.529608
563.442789	2554.781152
563.799216	2552.361398
564.155587	2550.294525
564.511904	2552.487427
564.868164	2550.496171
565.224370	2550.899463
565.580520	2549.135060
565.936615	2554.151008
566.292654	2542.808412
566.648638	2551.479196
567.004567	2544.295552
567.360441	2543.766231
567.716260	2545.732281
568.072023	2541.018802
568.427732	2541.296065
568.783385	2547.421067
569.138982	2546.387631
569.494525	2544.093906
569.850013	2542.228679
570.205445	2535.221475
570.560823	2540.413863
570.916145	2536.154088
571.271412	2538.599048
571.626625	2535.196269
571.981782	2531.087729
572.336884	2531.390198
572.691931	2534.087215
573.046923	2528.088242
573.401860	2527.357275
573.756743	2528.667975
574.111570	2521.459125
574.466342	2529.373737
574.821059	2534.011598
575.175722	2525.517254
575.530330	2522.643796
575.884882	2523.652027
576.239380	2529.146885
576.593823	2526.197810
576.948211	2526.096987
577.302544	2519.997190
577.656823	2529.146885
578.011047	2523.626821
578.365216	2520.526512
578.719330	2526.147398
579.073389	2517.501819
579.427394	2522.921060
579.781344	2518.182375
580.135239	2511.603669
580.489080	2509.435973
580.842866	2509.713237
581.196597	2519.064577
581.550273	2513.393279
581.903895	2516.014679
582.257463	2510.696262
582.610975	2517.753877
582.964434	2506.890190
583.317837	2517.476613
583.671186	2518.333610
584.024481	2511.906138
584.377721	2511.830521
584.730906	2510.066117
585.084037	2507.142248
585.437113	2511.427229
585.790135	2511.754904
586.143103	2509.511590
586.496016	2502.655621
586.848874	2511.477640
587.201679	2505.125787
587.554428	2510.746673
587.907124	2511.301200
588.259765	2509.965294
588.612352	2508.226096
588.964884	2501.319715
589.317362	2512.737929
589.669786	2509.435973
590.022155	2503.134531
590.374470	2507.091837
590.726731	2496.833088
591.078937	2499.681340
591.431090	2514.603156
591.783188	2500.185456
592.135232	2508.528565
592.487222	2505.100581
592.839157	2509.259533
593.191038	2504.949346
593.542866	2505.932371
593.894639	2496.631442
594.246358	2501.823831
594.598022	2501.294510
594.949633	2510.948319
595.301190	2496.807883
595.652692	2499.933398
596.004141	2502.176712
596.355535	2505.957577
596.706876	2497.236381
597.058162	2503.336177
597.409395	2502.428769
597.760573	2503.689058
598.111698	2510.545027
598.462768	2500.966835
598.813785	2503.109325
599.164748	2496.278562
599.515657	2507.091837
599.866511	2504.621671
600.217312	2503.865498
600.568060	2505.201404
600.918753	2507.217865
601.269392	2509.562002
601.619978	2501.193687
601.970510	2501.571773
602.320988	2497.135558
602.671412	2497.538850
603.021783	2508.200890
603.372100	2506.007988
603.722363	2505.806342
604.072572	2503.764675
604.422728	2498.975579
604.772830	2495.018273
605.122878	2505.705519
605.472872	2517.451408
605.822813	2502.479181
606.172701	2511.502846
606.522534	2504.672083
606.872314	2508.377331
607.222041	2500.538337
607.571714	2509.990500
607.921333	2505.125787
608.270899	2499.278048
608.620411	2498.975579
608.969870	2502.932885
609.319276	2506.991013
609.668627	2507.217865
610.017926	2503.764675
610.367171	2503.058913
610.716362	2508.251302
611.065500	2515.132477
611.414585	2505.604696
611.763616	2515.082065
612.112594	2509.461179
612.461518	2520.476100
612.810389	2503.008502
613.159207	2511.628875
613.507971	2508.326919
613.856682	2518.459638
614.205340	2510.923113
614.553945	2513.317662
614.902496	2517.123733
615.250994	2519.946779
615.599439	2516.216325
615.947830	2514.830008
616.296169	2515.762621
616.644454	2527.206040
616.992686	2513.670542
617.340864	2518.938548
617.688990	2517.022910
618.037063	2522.341327
618.385082	2522.164887
618.733048	2523.525998
619.080961	2530.583613
619.428821	2528.970444
619.776628	2531.037317
620.124382	2533.331042
620.472083	2536.481763
620.819731	2543.665408
621.167326	2532.625281
621.514868	2528.466329
621.862357	2527.684950
622.209793	2539.330015
622.557176	2539.254398
622.904506	2524.559435
623.251783	2529.524971
623.599007	2533.003367
623.946179	2531.617050
624.293297	2540.842362
624.640363	2534.238450
624.987376	2541.447300
625.334336	2529.449354
625.681243	2540.439069
626.028097	2530.558408
626.374899	2533.633512
626.721647	2544.648433
627.068343	2549.210677
627.414987	2535.902031
627.761577	2545.858310
628.108115	2552.437015
628.454600	2543.841848
628.801032	2558.083108
629.147412	2561.107800
629.493739	2560.754919
629.840014	2559.746688
630.186236	2560.099569
630.532405	2571.139696
630.878521	2565.972513
631.224585	2578.953485
631.570597	2570.938050
631.916556	2577.163875
632.262462	2579.785275
632.608316	2585.103692
632.954117	2588.279619
633.299866	2585.053281
633.645562	2592.967892
633.991206	2593.824888
634.336797	2594.757502
634.682336	2589.035792
635.027823	2591.959662
635.373257	2598.613985
635.718639	2593.119127
636.063968	2597.076433
636.409245	2588.204002
636.754470	2598.966865
637.099642	2601.058944
637.444762	2602.394850
637.789829	2604.713781
638.134845	2611.065635
638.479808	2606.503390
638.824719	2608.141765
639.169577	2608.897938
639.514383	2619.333127
639.859137	2615.678290
640.203839	2618.677777
640.548489	2621.526029
640.893086	2623.592902
641.237632	2632.238481
641.582125	2628.155146
641.926566	2638.665952
642.270955	2648.773465
642.615292	2635.414408
642.959576	2645.471510
643.303809	2646.656181
643.647990	2657.721513
643.992118	2660.847029
644.336195	2669.089315
644.680219	2672.668535
645.024192	2678.591890
