Dividing Wavelength (nm)	Counts (n)	Blue Motor Position (mm): 49.600000	Red Motor Position (mm): 0.000000	
326.493990	2282.435336
326.888308	2282.435336
327.282561	2282.435336
327.676750	2243.988976
328.070874	2240.326578
328.464933	2242.496795
328.858929	2248.697414
329.252859	2253.299987
329.646726	2261.194434
330.040528	2270.707092
330.434265	2285.298711
330.827938	2303.214972
331.221547	2321.075780
331.615091	2338.130004
332.008571	2357.367047
332.401986	2375.737011
332.795338	2394.772408
333.188625	2419.514391
333.581847	2436.913934
333.975006	2452.387756
334.368100	2473.106898
334.761129	2493.238746
335.154095	2507.966477
335.546996	2537.210210
335.939833	2574.671024
336.332606	2590.222984
336.725315	2602.155395
337.117960	2615.892539
337.510540	2628.351751
337.903056	2636.117649
338.295508	2647.543424
338.687896	2655.452994
339.080220	2661.172183
339.472480	2668.824655
339.864676	2672.408915
340.256807	2680.129442
340.648875	2683.073476
341.040879	2685.624300
341.432818	2690.322655
341.824694	2691.925742
342.216506	2690.335258
342.608253	2692.167718
342.999937	2691.950948
343.391557	2692.495393
343.783113	2691.285516
344.174605	2691.346010
344.566033	2690.879703
344.957397	2690.393232
345.348697	2688.049095
345.739934	2688.467511
346.131106	2685.127746
346.522215	2682.801254
346.913260	2683.433919
347.304241	2680.008455
347.695159	2679.781603
348.086012	2678.377641
348.476802	2676.164575
348.867528	2672.227434
349.258191	2667.670231
349.648789	2668.184428
350.039324	2664.693429
350.429796	2669.185097
350.820203	2666.198214
351.210548	2668.065961
351.600828	2664.748882
351.991045	2664.343069
352.381198	2664.658141
352.771288	2663.675116
353.161314	2661.434323
353.551276	2661.900630
353.941175	2660.826864
354.331010	2662.699653
354.720782	2661.146977
355.110490	2661.638490
355.500135	2661.903151
355.889717	2664.020435
356.279235	2661.784683
356.668689	2660.947852
357.058080	2662.145126
357.447408	2662.906340
357.836672	2661.583037
358.225873	2665.263080
358.615010	2661.590599
359.004084	2664.378357
359.393095	2664.048162
359.782043	2666.846002
360.170927	2665.994047
360.559748	2665.983965
360.948505	2670.626867
361.337199	2669.008657
361.725830	2666.765343
362.114398	2668.071002
362.502903	2669.008657
362.891344	2668.262566
363.279722	2670.790705
363.668037	2672.219872
364.056289	2671.922444
364.444478	2675.819256
364.832603	2672.557629
365.220665	2676.381344
365.608665	2675.214317
365.996601	2675.786488
366.384474	2675.688186
366.772284	2677.127435
367.160031	2677.523166
367.547715	2679.688341
367.935336	2678.410409
368.322893	2677.878567
368.710388	2677.530727
369.097820	2678.354956
369.485189	2677.881088
369.872495	2687.176975
370.259738	2688.376770
370.646918	2692.797862
371.034035	2697.894468
371.421090	2703.928730
371.808081	2708.700182
372.195010	2714.076572
372.581875	2726.311453
372.968678	2732.680951
373.355418	2745.099833
373.742096	2760.034251
374.128710	2772.367434
374.515262	2785.673560
374.901751	2806.307002
375.288177	2819.212356
375.674540	2841.519462
376.060841	2859.586958
376.447079	2883.965978
376.833254	2910.553023
377.219367	2931.667896
377.605417	2967.873463
377.991404	2987.849035
378.377329	3024.775487
378.763191	3044.403219
379.148991	3088.195723
379.534727	3128.575365
379.920402	3163.273627
380.306013	3184.544776
380.691563	3247.738160
381.077049	3270.302364
381.462474	3309.925833
381.847835	3369.597972
382.233134	3411.633633
382.618371	3434.636418
383.003545	3504.395905
383.388657	3524.260572
383.773706	3586.823811
384.158693	3614.930765
384.543618	3645.691885
384.928480	3705.036348
385.313280	3757.091303
385.698017	3778.906896
386.082692	3871.139847
386.467305	3872.271586
386.851856	3911.484201
387.236344	3988.964215
387.620770	4013.350797
388.005133	4065.884661
388.389435	4109.946867
388.773674	4121.070173
389.157851	4199.054302
389.541965	4265.204323
389.926018	4232.787183
390.310008	4331.903829
390.693936	4387.651429
391.077802	4417.777364
391.461606	4417.222838
391.845348	4481.598372
392.229027	4543.158422
392.612645	4540.327814
392.996200	4644.621726
393.379694	4697.999983
393.763125	4804.617867
394.146494	4840.079863
394.529801	4888.888315
394.913047	4977.383250
395.296230	4925.711423
395.679351	5028.175396
396.062410	5087.156896
396.445408	5054.533068
396.828343	5118.555722
397.211217	5176.811296
397.594028	5054.555754
397.976778	5171.250903
398.359466	5220.019026
398.742092	5241.055761
399.124656	5166.902908
399.507158	5283.915651
399.889598	5341.236091
400.271977	5466.919618
400.654294	5463.519359
401.036549	5515.400394
401.418742	5435.127581
401.800874	5634.631244
402.182944	5698.411923
402.564952	5806.035516
402.946898	5862.599783
403.328783	5690.298186
403.710606	5726.309668
404.092367	6043.904881
404.474067	6067.641154
404.855705	5959.198373
405.237282	5898.954064
405.618797	6165.439539
406.000250	6124.112159
406.381642	6341.101065
406.762972	6365.515373
407.144240	6418.853301
407.525447	6402.908132
407.906593	6406.136991
408.287677	6582.025369
408.668700	6503.665674
409.049661	6605.743998
409.430560	6636.182485
409.811399	6500.121742
410.192176	6758.659838
410.572891	6787.966586
410.953545	6974.436346
411.334138	6699.227155
411.714669	6870.147476
412.095139	6669.501991
412.475547	6913.362767
412.855894	6986.487224
413.236180	7173.498909
413.616405	6817.916081
413.996568	7038.464041
414.376670	7104.646829
414.756711	6995.989799
415.136691	7094.998061
415.516609	7302.691079
415.896466	7276.192254
416.276262	7488.281158
416.655997	7482.534242
417.035670	7643.740260
417.415283	7994.264290
417.794834	8072.137514
418.174324	7926.760719
418.553753	7846.613935
418.933121	8135.212431
419.312428	8238.669511
419.691674	8007.436825
420.070859	8491.148139
420.449983	8168.847009
420.829045	8548.680308
421.208047	8308.275242
421.586988	8624.237121
421.965867	8655.220053
422.344686	8734.920695
422.723444	8822.609046
423.102141	8142.431363
423.480777	8918.282584
423.859352	8448.583157
424.237866	9062.532681
424.616319	8927.124768
424.994712	9363.081232
425.373044	8892.945745
425.751314	9389.025530
426.129524	9269.688816
426.507673	9340.270011
426.885762	9492.921190
427.263789	9416.567874
427.641756	9365.448054
428.019662	9435.386502
428.397508	9720.156241
428.775292	9363.799596
429.153016	9763.081666
429.530679	9593.411551
429.908282	9595.329710
430.285824	9329.517230
430.663305	10017.097847
431.040726	9465.908168
431.418086	9442.794477
431.795385	9787.138052
432.172624	9885.927024
432.549802	9788.967991
432.926920	9855.919555
433.303977	9718.217917
433.680974	9930.808416
434.057910	10034.280620
434.434786	10115.453279
434.811601	9914.081868
435.188355	10478.368465
435.565050	10247.647456
435.941683	10151.923506
436.318257	10629.489654
436.694770	10816.516462
437.071222	10856.018943
437.447614	10670.045737
437.823946	10619.619075
438.200218	10683.858498
438.576429	10546.703826
438.952580	10801.697990
439.328670	10802.769235
439.704700	10619.672007
440.080670	10603.651220
440.456580	11106.695360
440.832429	10909.251007
441.208218	10517.283652
441.583947	10783.416246
441.959616	10991.809984
442.335224	10807.996912
442.710773	10892.453883
443.086261	11136.609567
443.461689	10402.705787
443.837057	11099.058012
444.212365	11316.780405
444.587612	10952.756165
444.962800	11153.356280
445.337927	10882.210258
445.712995	10597.937072
446.088002	11622.687703
446.462949	11327.936478
446.837837	11293.505398
447.212664	11191.535458
447.587431	11815.305150
447.962139	12592.300713
448.336786	14887.409510
448.711374	15348.932185
449.085901	13149.880055
449.460369	12801.861478
449.834776	12251.138106
450.209124	13216.735837
450.583412	13646.161486
450.957640	14552.654209
451.331808	13560.081264
451.705917	12669.455573
452.079965	11883.746375
452.453954	12813.398159
452.827883	12479.275523
453.201752	12758.348759
453.575562	12326.294148
453.949311	12728.240467
454.323001	12725.908934
454.696632	12961.640849
455.070202	13236.114032
455.443713	13406.517635
455.817164	13929.333180
456.190556	13891.088466
456.563888	14252.907201
456.937160	14386.530546
457.310373	13744.905087
457.683526	13873.676321
458.056619	13370.128066
458.429653	13615.294501
458.802628	12944.752984
459.175542	13373.563612
459.548398	14323.075022
459.921194	14704.705491
460.293930	14766.910809
460.666607	15590.158959
461.039224	16665.285839
461.411782	17402.030309
461.784280	17128.966129
462.156719	17277.176052
462.529099	16929.475068
462.901419	15905.067237
463.273680	15650.778834
463.645882	15576.673872
464.018024	15290.200223
464.390106	15528.409865
464.762130	16234.874645
465.134094	17039.689815
465.505999	19139.476585
465.877845	22406.890368
466.249631	25186.703587
466.621358	24774.904332
466.993026	23364.119784
467.364634	22754.767793
467.736184	21286.022578
468.107674	20502.407980
468.479105	20629.311467
468.850477	20075.906200
469.221790	19695.505772
469.593043	18993.285644
469.964238	18414.160411
470.335373	18052.911327
470.706449	18586.847657
471.077467	18187.477367
471.448425	20077.141283
471.819324	24251.854374
472.190164	25993.028583
472.560945	22269.463473
472.931667	20018.716831
473.302330	19427.817982
473.672934	19106.953581
474.043479	19278.698131
474.413965	19091.444472
474.784393	18671.302107
475.154761	19474.632658
475.525070	19352.941724
475.895321	19105.721019
476.265513	19725.263703
476.635645	20315.260185
477.005719	20057.069929
477.375734	20228.234746
477.745691	20725.015252
478.115588	21280.021085
478.485427	21861.901308
478.855207	22961.674390
479.224928	24764.917806
479.594591	27003.555598
479.964194	26846.377462
480.333739	27099.977747
480.703226	26692.304677
481.072653	26414.547182
481.442022	27082.807577
481.811333	28003.672630
482.180584	27860.801289
482.549777	26918.952433
482.918912	26607.769568
483.287988	26742.660763
483.657005	26352.921597
484.025964	26142.282025
484.394864	26001.530489
484.763706	25633.614478
485.132489	25136.339939
485.501213	25318.217208
485.869879	25224.976027
486.238487	25086.296405
486.607036	25188.024369
486.975527	24975.373377
487.343959	25244.603759
487.712333	25146.888554
488.080648	24807.230731
488.448905	25324.581665
488.817104	25115.038544
489.185244	25812.734236
489.553326	25758.375474
489.921350	26825.565058
490.289315	29228.078158
490.657222	30893.977858
491.025070	31407.449624
491.392861	31135.343263
491.760593	30269.699010
492.128267	29338.645786
492.495883	28261.136960
492.863440	27416.960460
493.230939	26548.344447
493.598380	26370.381633
493.965763	25996.990930
494.333088	25479.271992
494.700354	25476.353163
495.067563	25301.415043
495.434713	25048.848194
495.801805	25267.241061
496.168839	24999.863302
496.535815	24896.444031
496.902733	25124.475584
497.269593	24836.666028
497.636395	24982.680529
498.003139	24897.737087
498.369825	24641.071780
498.736453	24864.142838
499.103023	24728.417332
499.469535	24699.692837
499.835989	24943.117554
500.202385	24970.700227
500.568723	24523.678430
500.935003	24673.141080
501.301226	24398.264605
501.667390	25231.519445
502.033497	25415.266982
502.399546	25161.860781
502.765537	24677.421020
503.131470	25064.805966
503.497345	25223.015018
503.863163	24476.652027
504.228923	24988.122455
504.594625	25261.201758
504.960269	24837.931358
505.325856	25308.770086
505.691385	24698.077148
506.056856	25291.410873
506.422270	25310.839480
506.787625	24801.100688
507.152924	25248.621559
507.518164	25285.074143
507.883347	25099.547078
508.248472	24780.164776
508.613540	25540.922783
508.978550	25348.088566
509.343503	25380.503185
509.708398	25556.257973
510.073236	25730.218109
510.438016	25943.363135
510.802738	25597.482008
511.167403	25864.380857
511.532010	25628.414528
511.896561	26342.544382
512.261053	26321.747102
512.625488	26147.698745
512.989866	26033.083071
513.354186	25860.821803
513.718449	26001.880849
514.082655	26382.029219
514.446803	26085.327069
514.810894	26572.297489
515.174927	26080.021254
515.538904	26119.967357
515.902822	26608.399712
516.266684	26370.963887
516.630488	26270.314730
516.994235	26196.696239
517.357925	26562.053864
517.721558	26697.204678
518.085133	26836.431265
518.448651	26711.849230
518.812112	26511.743149
519.175516	26733.085091
519.538863	26873.808901
519.902152	26675.250453
520.265385	26911.501608
520.628560	26731.252632
520.991678	26692.571858
521.354739	26737.536430
521.717743	26873.713119
522.080690	26627.276313
522.443580	26956.720758
522.806413	26911.302482
523.169189	27036.063478
523.531908	27075.485301
523.894569	26716.328296
524.257174	26819.369480
524.619722	26930.660513
524.982213	26665.286613
525.344647	26660.802507
525.707025	26846.947112
526.069345	26779.544365
526.431608	26767.995081
526.793815	26920.555520
527.155964	26447.276874
527.518057	26611.613448
527.880093	26514.828335
528.242072	26742.459117
528.603995	26464.356303
528.965860	26253.416782
529.327669	26292.712576
529.689421	26284.311493
530.051117	26137.301365
530.412755	26300.239019
530.774337	26071.554636
531.135862	25977.665667
531.497331	26148.268395
531.858743	25758.751040
532.220098	26190.069643
532.581396	25907.031539
532.942638	25775.717043
533.303824	25916.740802
533.664953	25886.370370
534.026025	25554.168414
534.387040	25804.086137
534.747999	25838.033267
535.108902	26005.386972
535.469748	25509.569326
535.830537	25661.524827
536.191270	25807.125953
536.551947	25611.209070
536.912567	25240.636371
537.273131	25709.985438
537.633638	25359.065678
537.994089	25587.886172
538.354483	25057.150974
538.714821	25579.076755
539.075103	25632.928881
539.435328	25381.090479
539.795497	25004.964950
540.155609	25320.248793
540.515665	25636.987010
540.875665	24850.304870
541.235609	25214.911363
541.595496	25126.812159
541.955328	25499.053479
542.315102	25423.022797
542.674821	24922.675675
543.034483	24816.082997
543.394090	24975.532173
543.753640	24795.366376
544.113134	25414.616673
544.472571	25005.090978
544.831953	25304.054087
545.191278	24982.851928
545.550548	24844.913356
545.909761	25046.791403
546.268918	25292.461953
546.628019	25277.167093
546.987064	24947.405055
547.346053	24667.026160
547.704986	24769.205308
548.063863	24923.210037
548.422684	24971.852131
548.781449	24452.850219
549.140158	24865.947571
549.498811	24439.438229
549.857408	24211.620925
550.215949	24582.554066
550.574434	24294.278204
550.932864	24478.189578
551.291237	24695.833834
551.649555	24517.757595
552.007817	24589.843574
552.366022	24426.379120
552.724173	24427.798205
553.082267	24417.050465
553.440305	24906.662450
553.798288	24121.515341
554.156215	24604.967036
554.514086	24760.408494
554.871902	24155.344004
555.229661	24411.974023
555.587365	24256.217492
555.945014	24185.522871
556.302606	24368.037846
556.660143	24384.376226
557.017625	24610.872748
557.375050	24124.635815
557.732421	24508.103785
558.089735	24325.346835
558.446994	24376.524629
558.804197	24424.377782
559.161345	24291.399705
559.518437	24115.019814
559.875474	24266.261991
560.232455	24447.060453
560.589381	24250.304219
560.946251	24276.394711
561.303065	24558.134717
561.659825	24650.861701
562.016528	24257.450054
562.373177	23980.012673
562.729770	24353.892369
563.086307	24190.241391
563.442789	24378.339444
563.799216	24218.703746
564.155587	24215.013621
564.511904	24191.703326
564.868164	24155.664117
565.224370	24107.246355
565.580520	24073.311828
565.936615	24165.759028
566.292654	23881.984916
566.648638	24101.133956
567.004567	23953.743220
567.360441	23874.138360
567.716260	23603.428398
568.072023	23901.537031
568.427732	23695.595814
568.783385	23438.723820
569.138982	23709.582496
569.494525	23730.568819
569.850013	23494.720957
570.205445	23605.643986
570.560823	23426.887191
570.916145	23198.265823
571.271412	23388.166088
571.626625	23143.332369
571.981782	23236.629003
572.336884	23048.757802
572.691931	23186.424152
573.046923	22928.249020
573.401860	22797.776397
573.756743	22855.858051
574.111570	22736.170976
574.466342	22654.733656
574.821059	22720.440055
575.175722	22441.570986
575.530330	22378.753168
575.884882	22382.662583
576.239380	22305.719452
576.593823	22196.926311
576.948211	22171.229029
577.302544	22022.333509
577.656823	21884.470554
578.011047	21997.478100
578.365216	21865.871217
578.719330	21741.206003
579.073389	21614.615068
579.427394	21777.981220
579.781344	21515.876508
580.135239	21415.499574
580.489080	21361.496213
580.842866	21138.110083
581.196597	21365.924867
581.550273	21305.521761
581.903895	21187.082372
582.257463	21496.387408
582.610975	21046.078779
582.964434	21376.982638
583.317837	21032.094618
583.671186	21103.938622
584.024481	21095.093918
584.377721	20866.764936
584.730906	20976.505814
585.084037	20941.066503
585.437113	20880.565095
585.790135	21073.593396
586.143103	20526.313132
586.496016	20568.376520
586.848874	20793.310284
587.201679	20695.960562
587.554428	20406.671428
587.907124	20741.736759
588.259765	20493.091928
588.612352	20555.014941
588.964884	20125.808582
589.317362	20293.298398
589.669786	20359.140909
590.022155	20338.693989
590.374470	20606.684248
590.726731	20342.169864
591.078937	20162.833337
591.431090	20226.155270
591.783188	20007.011271
592.135232	19964.037955
592.487222	20058.662934
592.839157	20063.878007
593.191038	19940.009296
593.542866	19843.393062
593.894639	19536.177584
594.246358	19757.431306
594.598022	19634.805239
594.949633	19392.469412
595.301190	19386.780470
595.652692	19546.466579
596.004141	19755.361913
596.355535	19090.640408
596.706876	19116.952710
597.058162	19006.095216
597.409395	19263.614999
597.760573	19293.667837
598.111698	19064.597807
598.462768	19016.636269
598.813785	18999.246809
599.164748	18779.782697
599.515657	18845.438684
599.866511	18650.320825
600.217312	18991.221292
600.568060	18488.812338
600.918753	18808.935689
601.269392	18712.241318
601.619978	18519.709570
601.970510	18688.477318
602.320988	18637.564185
602.671412	18833.034925
603.021783	18781.358057
603.372100	18474.056881
603.722363	18642.514598
604.072572	18588.415456
604.422728	18742.498323
604.772830	18481.873190
605.122878	18449.788766
605.472872	18419.466226
605.822813	18409.825019
606.172701	18402.230521
606.522534	18566.632630
606.872314	18597.270242
607.222041	18440.843238
607.571714	18660.292227
607.921333	18479.955031
608.270899	18561.296568
608.620411	18700.553402
608.969870	18508.099793
609.319276	18490.997678
609.668627	18526.497483
610.017926	18659.420107
610.367171	18777.650289
610.716362	18835.789916
611.065500	18636.477816
611.414585	18789.010529
611.763616	18779.681874
612.112594	18703.411737
612.461518	18681.371812
612.810389	18875.153766
613.159207	18725.401250
613.507971	18649.032810
613.856682	18884.948728
614.205340	18798.765162
614.553945	18955.484552
614.902496	18700.384524
615.250994	18906.494619
615.599439	18860.501652
615.947830	18837.829063
616.296169	18928.607641
616.644454	18877.936483
616.992686	18865.167240
617.340864	19086.796528
617.688990	18827.121652
618.037063	18996.259925
618.385082	18866.747642
618.733048	19127.614750
619.080961	19025.443165
619.428821	19055.425427
619.776628	18921.262679
620.124382	18853.713738
620.472083	18917.996012
620.819731	18916.234128
621.167326	18607.045040
621.514868	18650.509868
621.862357	18441.372560
622.209793	18417.704342
622.557176	18253.284589
622.904506	18092.943129
623.251783	18038.843987
623.599007	17780.631046
623.946179	17709.374336
624.293297	17650.957445
624.640363	17365.716358
624.987376	17393.793064
625.334336	17199.474227
625.681243	17048.922688
626.028097	17069.974547
626.374899	16979.594220
626.721647	16851.256525
627.068343	16698.360850
627.414987	16616.159795
627.761577	16573.158753
628.108115	16604.136643
628.454600	16330.089438
628.801032	16438.698577
629.147412	16381.126079
629.493739	16387.404837
629.840014	16205.449430
630.186236	16292.079138
630.532405	16054.058538
630.878521	16245.544247
631.224585	16164.686660
631.570597	15977.541385
631.916556	16014.848444
632.262462	15980.319061
632.608316	15902.234108
632.954117	15852.984556
633.299866	15836.862946
633.645562	15750.137455
633.991206	15525.937179
634.336797	15393.513629
634.682336	15369.979003
635.027823	15214.310692
635.373257	15083.790178
635.718639	15012.162944
636.063968	14938.491522
