Dividing Wavelength (nm)	Counts (n)	Blue Motor Position (mm): 17.200000	Red Motor Position (mm): 0.000000	
326.493990	2177.934737
326.888308	2177.934737
327.282561	2177.934737
327.676750	2137.030815
328.070874	2132.932357
328.464933	2135.770527
328.858929	2136.932513
329.252859	2143.080200
329.646726	2149.830305
330.040528	2163.582572
330.434265	2175.814932
330.827938	2194.696574
331.221547	2209.946064
331.615091	2228.200082
332.008571	2249.383011
332.401986	2266.059148
332.795338	2283.438526
333.188625	2304.097174
333.581847	2323.283806
333.975006	2339.385251
334.368100	2359.252438
334.761129	2377.705582
335.154095	2393.819630
335.546996	2420.605801
335.939833	2443.749738
336.332606	2460.935032
336.725315	2471.511373
337.117960	2486.828919
337.510540	2494.854436
337.903056	2508.155520
338.295508	2517.718589
338.687896	2529.184693
339.080220	2533.308357
339.472480	2540.948226
339.864676	2545.122301
340.256807	2549.833259
340.648875	2553.294012
341.040879	2557.659651
341.432818	2559.073694
341.824694	2562.738613
342.216506	2564.770198
342.608253	2565.412945
342.999937	2564.868501
343.391557	2563.948490
343.783113	2566.017884
344.174605	2563.817420
344.566033	2564.636608
344.957397	2562.325239
345.348697	2561.319528
345.739934	2560.167625
346.131106	2555.842315
346.522215	2556.167469
346.913260	2553.518343
347.304241	2549.956768
347.695159	2552.106820
348.086012	2548.449463
348.476802	2545.760007
348.867528	2543.191539
349.258191	2538.427649
349.648789	2537.651311
350.039324	2536.108718
350.429796	2539.231713
350.820203	2535.097967
351.210548	2533.751979
351.600828	2535.859181
351.991045	2534.072092
352.381198	2530.084539
352.771288	2532.189221
353.161314	2530.979344
353.551276	2530.903727
353.941175	2528.836854
354.331010	2531.468336
354.720782	2531.990095
355.110490	2527.427851
355.500135	2529.136802
355.889717	2531.942204
356.279235	2528.589837
356.668689	2530.828109
357.058080	2531.085208
357.447408	2528.604961
357.836672	2532.247194
358.225873	2529.890455
358.615010	2532.035466
359.004084	2530.606299
359.393095	2533.005888
359.782043	2533.515044
360.170927	2531.904396
360.559748	2532.678213
360.948505	2534.346835
361.337199	2536.547298
361.725830	2534.079654
362.114398	2534.301464
362.502903	2534.278779
362.891344	2536.401105
363.279722	2535.854140
363.668037	2536.121321
364.056289	2538.485622
364.444478	2540.103832
364.832603	2540.618030
365.220665	2536.575025
365.608665	2540.827238
365.996601	2538.473019
366.384474	2540.975952
366.772284	2539.950077
367.160031	2541.601055
367.547715	2543.935109
367.935336	2540.428987
368.322893	2538.949408
368.710388	2537.366486
369.097820	2542.405119
369.485189	2538.099974
369.872495	2544.189688
370.259738	2543.867054
370.646918	2546.826211
371.034035	2546.034750
371.421090	2545.326468
371.808081	2543.534338
372.195010	2548.416695
372.581875	2547.383259
372.968678	2547.153886
373.355418	2546.004503
373.742096	2544.441745
374.128710	2545.729760
374.515262	2547.791592
374.901751	2546.291849
375.288177	2546.448125
375.674540	2547.423588
376.060841	2549.659340
376.447079	2547.577343
376.833254	2548.817467
377.219367	2544.774462
377.605417	2550.128167
377.991404	2549.833259
378.377329	2548.028526
378.763191	2550.470965
379.148991	2550.939793
379.534727	2548.343598
379.920402	2551.380894
380.306013	2552.411810
380.691563	2550.760832
381.077049	2548.262940
381.462474	2550.838970
381.847835	2549.394679
382.233134	2549.777807
382.618371	2551.738816
383.003545	2549.077086
383.388657	2549.291335
383.773706	2552.207643
384.158693	2551.847200
384.543618	2555.607901
384.928480	2553.984650
385.313280	2552.651264
385.698017	2552.830225
386.082692	2554.156049
386.467305	2553.997253
386.851856	2554.632438
387.236344	2553.883827
387.620770	2549.550955
388.005133	2549.782848
388.389435	2551.537169
388.773674	2552.547921
389.157851	2555.504557
389.541965	2555.691080
389.926018	2555.169321
390.310008	2558.239383
390.693936	2556.497665
391.077802	2557.858776
391.461606	2558.950186
391.845348	2553.840977
392.229027	2554.745864
392.612645	2556.714434
392.996200	2558.098231
393.379694	2557.606719
393.763125	2556.190154
394.146494	2558.214178
394.529801	2558.194013
394.913047	2562.262224
395.296230	2560.394477
395.679351	2558.763663
396.062410	2560.185269
396.445408	2559.721483
396.828343	2557.102603
397.211217	2558.171328
397.594028	2560.245763
397.976778	2557.221070
398.359466	2560.039075
398.742092	2562.269786
399.124656	2561.042265
399.507158	2561.009497
399.889598	2562.489076
400.271977	2560.729713
400.654294	2561.508572
401.036549	2560.999415
401.418742	2563.020918
401.800874	2561.392625
402.182944	2561.581668
402.564952	2562.786504
402.946898	2563.651062
403.328783	2564.608881
403.710606	2562.637790
404.092367	2563.315825
404.474067	2565.120558
404.855705	2562.904971
405.237282	2565.062585
405.618797	2564.371947
406.000250	2563.915723
406.381642	2565.667524
406.762972	2563.686350
407.144240	2559.633262
407.525447	2561.435475
407.906593	2562.053016
408.287677	2564.064437
408.668700	2567.152143
409.049661	2565.932184
409.430560	2564.618964
409.811399	2565.052503
410.192176	2565.342369
410.572891	2569.907134
410.953545	2566.958059
411.334138	2567.590724
411.714669	2566.711042
412.095139	2568.102401
412.475547	2569.650035
412.855894	2566.650549
413.236180	2567.787329
413.616405	2567.915878
413.996568	2569.760941
414.376670	2568.117524
414.756711	2568.603996
415.136691	2567.000909
415.516609	2568.964438
415.896466	2568.818245
416.276262	2566.194324
416.655997	2567.641135
417.035670	2565.750703
417.415283	2571.616085
417.794834	2569.970148
418.174324	2569.070302
418.553753	2569.808832
418.933121	2571.830334
419.312428	2571.951322
419.691674	2568.488049
420.070859	2572.152968
420.449983	2569.602144
420.829045	2569.181208
421.208047	2569.934860
421.586988	2570.688513
421.965867	2571.270766
422.344686	2569.385375
422.723444	2574.076168
423.102141	2567.724314
423.480777	2572.276476
423.859352	2570.141548
424.237866	2573.597259
424.616319	2571.971487
424.994712	2573.889646
425.373044	2572.876374
425.751314	2569.191290
426.129524	2568.059551
426.507673	2567.910837
426.885762	2569.065261
427.263789	2573.640108
427.641756	2573.561971
428.019662	2573.569532
428.397508	2569.960066
428.775292	2573.554409
429.153016	2573.582135
429.530679	2572.218503
429.908282	2571.807649
430.285824	2571.449727
430.663305	2576.972311
431.040726	2572.168092
431.418086	2573.516600
431.795385	2574.706312
432.172624	2575.074317
432.549802	2574.108936
432.926920	2574.101374
433.303977	2575.986766
433.680974	2576.115315
434.057910	2576.591704
434.434786	2573.970304
434.811601	2572.470561
435.188355	2575.631364
435.565050	2575.293607
435.941683	2574.875191
436.318257	2577.166396
436.694770	2577.330233
437.071222	2575.916189
437.447614	2574.993658
437.823946	2578.711509
438.200218	2576.470716
438.576429	2575.686817
438.952580	2577.244533
439.328670	2576.727815
439.704700	2575.560788
440.080670	2576.193453
440.456580	2578.245202
440.832429	2578.078844
441.208218	2575.520459
441.583947	2580.909452
441.959616	2574.507187
442.335224	2576.700089
442.710773	2579.316448
443.086261	2576.770665
443.461689	2578.199832
443.837057	2579.757549
444.212365	2580.526325
444.587612	2578.557754
444.962800	2573.030129
445.337927	2577.867116
445.712995	2573.977866
446.088002	2579.402147
446.462949	2579.235789
446.837837	2577.781416
447.212664	2579.755028
447.587431	2581.645461
447.962139	2578.827456
448.336786	2582.081521
448.711374	2581.085893
449.085901	2581.597570
449.460369	2579.087075
449.834776	2579.601273
450.209124	2579.223186
450.583412	2584.478589
450.957640	2586.278281
451.331808	2583.772828
451.705917	2584.254258
452.079965	2583.437591
452.453954	2584.579412
452.827883	2581.267374
453.201752	2581.305183
453.575562	2582.666294
453.949311	2584.748291
454.323001	2583.293918
454.696632	2585.081007
455.070202	2585.716192
455.443713	2584.166038
455.817164	2584.579412
456.190556	2582.504977
456.563888	2584.481110
456.937160	2583.742581
457.310373	2583.840883
457.683526	2584.710482
458.056619	2585.474217
458.429653	2586.686615
458.802628	2585.459094
459.175542	2585.801892
459.548398	2587.289032
459.921194	2585.363312
460.293930	2587.591502
460.666607	2586.742067
461.039224	2587.420103
461.411782	2591.158118
461.784280	2588.312387
462.156719	2589.023189
462.529099	2589.043354
462.901419	2586.646285
463.273680	2585.713672
463.645882	2584.977663
464.018024	2583.407344
464.390106	2585.547314
464.762130	2590.233066
465.134094	2591.934456
465.505999	2590.326328
465.877845	2593.802203
466.249631	2596.806731
466.621358	2596.242122
466.993026	2594.593664
467.364634	2600.635487
467.736184	2593.963520
468.107674	2593.129209
468.479105	2593.396390
468.850477	2592.844384
469.221790	2595.165835
469.593043	2594.003849
469.964238	2592.869590
470.335373	2592.247007
470.706449	2595.027204
471.077467	2593.938314
471.448425	2593.721545
471.819324	2599.332349
472.190164	2598.520723
472.560945	2595.705239
472.931667	2596.766402
473.302330	2595.808582
473.672934	2594.898654
474.043479	2596.844540
474.413965	2595.082656
474.784393	2597.426793
475.154761	2599.581886
475.525070	2598.893769
475.895321	2596.854622
476.265513	2597.492328
476.635645	2599.067688
477.005719	2595.871597
477.375734	2595.861515
477.745691	2601.479881
478.115588	2602.415015
478.485427	2598.518203
478.855207	2600.822010
479.224928	2599.889397
479.594591	2605.301075
479.964194	2604.537340
480.333739	2606.730242
480.703226	2606.702516
481.072653	2606.518514
481.442022	2608.106477
481.811333	2606.468102
482.180584	2604.917947
482.549777	2603.140941
482.918912	2600.022987
483.287988	2608.141765
483.657005	2605.298555
484.025964	2605.709409
484.394864	2607.912393
484.763706	2608.391302
485.132489	2605.681682
485.501213	2608.174533
485.869879	2609.908690
486.238487	2609.633947
486.607036	2607.879625
486.975527	2606.364759
487.343959	2606.866353
487.712333	2607.846858
488.080648	2606.034563
488.448905	2610.949688
488.817104	2610.949688
489.185244	2612.305758
489.553326	2607.239399
489.921350	2612.514966
490.289315	2615.640482
490.657222	2618.536625
491.025070	2622.814044
491.392861	2621.105092
491.760593	2621.284053
492.128267	2618.909670
492.495883	2616.875564
492.863440	2617.631737
493.230939	2615.902622
493.598380	2618.002262
493.965763	2615.506891
494.333088	2615.516973
494.700354	2617.288939
495.067563	2617.593929
495.434713	2616.273147
495.801805	2617.934207
496.168839	2620.994187
496.535815	2618.133332
496.902733	2621.190792
497.269593	2620.225411
497.636395	2618.581995
498.003139	2621.185751
498.369825	2619.265071
498.736453	2620.931173
499.103023	2619.529732
499.469535	2622.720782
499.835989	2625.221195
500.202385	2620.963940
500.568723	2619.706172
500.935003	2623.197171
501.301226	2624.724641
501.667390	2630.668161
502.033497	2632.009108
502.399546	2632.089767
502.765537	2631.666310
503.131470	2634.612864
503.497345	2635.651342
503.863163	2635.626136
504.228923	2638.492032
504.594625	2643.903711
504.960269	2638.267701
505.325856	2644.838845
505.691385	2646.318423
506.056856	2647.850934
506.422270	2649.844711
506.787625	2652.181285
507.152924	2655.621873
507.518164	2659.029693
507.883347	2657.978612
508.248472	2661.913233
508.613540	2667.708039
508.978550	2668.159222
509.343503	2670.868843
509.708398	2674.944616
510.073236	2681.319155
510.438016	2685.306707
510.802738	2686.662778
511.167403	2693.143181
511.532010	2695.714169
511.896561	2705.373020
512.261053	2707.278576
512.625488	2712.559185
512.989866	2717.186964
513.354186	2724.753736
513.718449	2728.337997
514.082655	2741.082033
514.446803	2745.367014
514.810894	2755.494692
515.174927	2757.962337
515.538904	2769.539347
515.902822	2781.935544
516.266684	2787.662295
516.630488	2792.479117
516.994235	2808.666262
517.357925	2817.276553
517.721558	2832.747854
518.085133	2845.370904
518.448651	2857.280630
518.812112	2865.974099
519.175516	2881.631923
519.538863	2896.704973
519.902152	2913.174423
520.265385	2934.359872
520.628560	2949.390072
520.991678	2967.795325
521.354739	2987.072697
521.717743	3009.553723
522.080690	3027.046527
522.443580	3053.431926
522.806413	3073.687282
523.169189	3099.797938
523.531908	3123.211577
523.894569	3141.561377
524.257174	3176.075637
524.619722	3204.023794
524.982213	3225.867114
525.344647	3254.566402
525.707025	3291.429840
526.069345	3324.661126
526.431608	3359.049357
526.793815	3402.592323
527.155964	3413.703027
527.518057	3457.079635
527.880093	3494.250583
528.242072	3533.780791
528.603995	3559.830953
528.965860	3601.516254
529.327669	3652.999038
529.689421	3690.248124
530.051117	3728.787745
530.412755	3792.714617
530.774337	3818.225376
531.135862	3867.656410
531.497331	3925.738064
531.858743	3953.071200
532.220098	4042.556722
532.581396	4058.736305
532.942638	4131.248262
533.303824	4180.921272
533.664953	4246.620109
534.026025	4292.721461
534.387040	4352.507025
534.747999	4437.077422
535.108902	4502.531763
535.469748	4532.682905
535.830537	4620.968632
536.191270	4687.342984
536.551947	4767.865334
536.912567	4774.980923
537.273131	4879.373137
537.633638	4914.144496
537.994089	5038.766860
538.354483	5051.957039
538.714821	5185.550136
539.075103	5281.611843
539.435328	5336.467159
539.795497	5356.674624
540.155609	5490.565150
540.515665	5611.865394
540.875665	5596.101706
541.235609	5708.164035
541.595496	5807.938552
541.955328	5943.918636
542.315102	6027.899218
542.674821	6059.625719
543.034483	6126.350432
543.394090	6216.665223
543.753640	6284.861953
544.113134	6465.181505
544.472571	6526.194590
544.831953	6699.819490
545.191278	6699.877464
545.550548	6802.911087
545.909761	6890.554067
546.268918	7059.999850
546.628019	7138.833414
546.987064	7237.909731
547.346053	7288.638862
547.704986	7387.788276
548.063863	7539.864764
548.422684	7594.614216
548.781449	7648.058008
549.140158	7836.874426
549.498811	7894.131851
549.857408	7896.269300
550.215949	8117.487734
550.574434	8135.517421
550.932864	8306.830952
551.291237	8428.718490
551.649555	8538.229996
552.007817	8674.157147
552.366022	8757.540352
552.724173	8846.100823
553.082267	8963.458884
553.440305	9214.077327
553.798288	9128.433164
554.156215	9396.864524
554.514086	9540.434065
554.871902	9467.735586
555.229661	9658.707096
555.587365	9760.508157
555.945014	9808.331063
556.302606	10041.305468
556.660143	10102.457184
557.017625	10333.563841
557.375050	10302.396907
557.732421	10523.091061
558.089735	10615.099681
558.446994	10730.136291
558.804197	10876.919567
559.161345	11010.742037
559.518437	10979.703653
559.875474	11228.270346
560.232455	11373.531194
560.589381	11476.642955
560.946251	11542.755167
561.303065	11827.333343
561.659825	11991.173364
562.016528	11945.550921
562.373177	11972.097638
562.729770	12209.354502
563.086307	12332.930827
563.442789	12518.871266
563.799216	12569.497053
564.155587	12665.072289
564.511904	12820.569200
564.868164	12875.842932
565.224370	13045.654199
565.580520	13070.597828
565.936615	13291.216364
566.292654	13221.406466
566.648638	13556.570100
567.004567	13545.507288
567.360441	13643.766938
567.716260	13615.559162
568.072023	13940.012864
568.427732	13920.871603
568.783385	13913.350202
569.138982	14149.049350
569.494525	14309.088340
569.850013	14310.850224
570.205445	14451.674856
570.560823	14436.483339
570.916145	14456.852121
571.271412	14617.884219
571.626625	14639.472961
571.981782	14772.934988
572.336884	14755.553090
572.691931	14955.656650
573.046923	14869.664648
573.401860	14955.805364
573.756743	15073.062603
574.111570	15098.354072
574.466342	15159.016797
574.821059	15335.094218
575.175722	15234.863477
575.530330	15376.081319
575.884882	15466.189424
576.239380	15540.528799
576.593823	15541.262287
576.948211	15603.903665
577.302544	15591.257930
577.656823	15615.674759
578.011047	15788.399813
578.365216	15792.226049
578.719330	15798.159487
579.073389	15813.255222
579.427394	16020.839855
579.781344	15923.490133
580.135239	15972.472505
580.489080	16015.193763
580.842866	15907.572690
581.196597	16166.917370
581.550273	16186.431677
581.903895	16240.210706
582.257463	16536.237342
582.610975	16269.121723
582.964434	16562.191723
583.317837	16425.513439
583.671186	16568.614153
584.024481	16619.610465
584.377721	16510.557704
584.730906	16629.380221
585.084037	16739.383239
585.437113	16727.516363
585.790135	16947.043490
586.143103	16603.430882
586.496016	16661.295766
586.848874	16968.223898
587.201679	16970.724310
587.554428	16751.509735
587.907124	17098.552848
588.259765	16966.512426
588.612352	17109.618181
588.964884	16825.372721
589.317362	17020.997217
589.669786	17110.651617
590.022155	17224.886684
590.374470	17429.648271
590.726731	17339.832553
591.078937	17170.603539
591.431090	17313.668965
591.783188	17147.515055
592.135232	17173.996236
592.487222	17332.772417
592.839157	17409.771001
593.191038	17370.870937
593.542866	17301.497099
593.894639	17131.456459
594.246358	17369.819857
594.598022	17325.102302
594.949633	17163.051891
595.301190	17161.542065
595.652692	17357.005244
596.004141	17629.850134
596.355535	17065.682004
596.706876	17120.504552
597.058162	17076.752378
597.409395	17297.065925
597.760573	17446.740303
598.111698	17284.765509
598.462768	17254.503463
598.813785	17248.534737
599.164748	17134.839073
599.515657	17199.612859
599.866511	17035.389711
600.217312	17401.233807
600.568060	17007.103797
600.918753	17332.099423
601.269392	17273.911905
601.619978	17090.774348
601.970510	17336.843149
602.320988	17298.404351
602.671412	17520.295779
603.021783	17440.191844
603.372100	17244.353099
603.722363	17394.816418
604.072572	17347.636259
604.422728	17501.010845
604.772830	17318.901683
605.122878	17280.722504
605.472872	17304.216801
605.822813	17321.218093
606.172701	17286.166950
606.522534	17517.618926
606.872314	17563.790854
607.222041	17410.070950
607.571714	17632.942882
607.921333	17485.448803
608.270899	17575.244356
608.620411	17797.423129
608.969870	17565.792192
609.319276	17592.621213
609.668627	17643.670457
610.017926	17787.628167
610.367171	17920.349145
610.716362	17971.058112
611.065500	17804.836146
611.414585	17949.300492
611.763616	17938.673739
612.112594	17905.339109
612.461518	17888.796563
612.810389	18106.677753
613.159207	17951.853836
613.507971	17876.090335
613.856682	18187.535340
614.205340	18121.344990
614.553945	18275.566489
614.902496	18019.243981
615.250994	18298.392834
615.599439	18232.832628
615.947830	18224.481957
616.296169	18256.193335
616.644454	18235.998472
616.992686	18213.840081
617.340864	18431.191949
617.688990	18206.343885
618.037063	18390.923213
618.385082	18234.105519
618.733048	18521.146299
619.080961	18386.847440
619.428821	18441.473383
619.776628	18347.604578
620.124382	18266.293287
620.472083	18313.924629
620.819731	18343.533846
621.167326	18049.001912
621.514868	18093.908510
621.862357	17858.189198
622.209793	17894.210762
622.557176	17722.869505
622.904506	17565.000731
623.251783	17474.070918
623.599007	17264.351357
623.946179	17210.736165
624.293297	17169.761667
624.640363	16932.116633
624.987376	16941.800690
625.334336	16735.746047
625.681243	16589.401351
626.028097	16594.316476
626.374899	16536.877569
626.721647	16409.749751
627.068343	16235.373719
627.414987	16177.143351
627.761577	16163.023079
628.108115	16211.017384
628.454600	15922.980977
628.801032	16022.992428
629.147412	15949.479802
629.493739	15974.688092
629.840014	15790.191943
630.186236	15890.009310
630.532405	15651.900490
630.878521	15853.778537
631.224585	15743.372227
631.570597	15572.036011
631.916556	15609.902638
632.262462	15585.410192
632.608316	15508.036042
632.954117	15447.741321
633.299866	15443.844509
633.645562	15370.404980
633.991206	15125.241066
634.336797	14991.191744
634.682336	14970.812879
635.027823	14870.413259
635.373257	14758.771866
635.718639	14639.911541
636.063968	14597.354120
636.409245	14357.364950
636.754470	14380.312282
637.099642	14227.819899
637.444762	14009.109440
637.789829	14054.747005
638.134845	13903.318306
638.479808	13926.855453
638.824719	13887.189134
639.169577	13724.064957
639.514383	13780.982105
639.859137	13589.204009
640.203839	13669.116380
640.548489	13505.228469
640.893086	13491.337569
