Dividing Wavelength (nm)	Counts (n)	Blue Motor Position (mm): 1.100000	Red Motor Position (mm): 0.000000	
326.493990	2164.547953
326.888308	2164.547953
327.282561	2164.547953
327.676750	2127.288785
328.070874	2121.564555
328.464933	2122.106479
328.858929	2125.768877
329.252859	2131.571245
329.646726	2138.989303
330.040528	2152.330717
330.434265	2164.691626
330.827938	2182.002948
331.221547	2199.528520
331.615091	2218.193392
332.008571	2238.105950
332.401986	2254.053640
332.795338	2273.434356
333.188625	2292.875566
333.581847	2309.229069
333.975006	2327.306646
334.368100	2346.952023
334.761129	2364.270907
335.154095	2383.926366
335.546996	2396.819117
335.939833	2414.679925
336.332606	2426.302305
336.725315	2442.186981
337.117960	2453.569906
337.510540	2465.963583
337.903056	2479.178968
338.295508	2486.332365
338.687896	2496.767553
339.080220	2501.859119
339.472480	2507.936230
339.864676	2513.884791
340.256807	2521.196985
340.648875	2521.887623
341.040879	2528.637728
341.432818	2529.010773
341.824694	2532.335414
342.216506	2530.402132
342.608253	2531.493542
342.999937	2535.649973
343.391557	2536.101156
343.783113	2536.897659
344.174605	2532.176618
344.566033	2531.095291
344.957397	2529.898017
345.348697	2530.434899
345.739934	2527.173273
346.131106	2529.381298
346.522215	2523.480628
346.913260	2522.033817
347.304241	2519.888806
347.695159	2517.552231
348.086012	2517.332941
348.476802	2514.272960
348.867528	2511.155007
349.258191	2506.176867
349.648789	2508.833555
350.039324	2502.534633
350.429796	2507.341374
350.820203	2505.776095
351.210548	2504.588904
351.600828	2501.826351
351.991045	2502.617812
352.381198	2500.916423
352.771288	2500.200579
353.161314	2500.699653
353.551276	2498.206803
353.941175	2499.819972
354.331010	2499.444406
354.720782	2496.986844
355.110490	2500.077071
355.500135	2497.818634
355.889717	2498.053048
356.279235	2499.857781
356.668689	2501.095384
357.058080	2500.135044
357.447408	2500.230826
357.836672	2499.101608
358.225873	2499.822493
358.615010	2500.422390
359.004084	2500.039262
359.393095	2498.368120
359.782043	2503.656290
360.170927	2502.317864
360.559748	2500.747544
360.948505	2504.190652
361.337199	2505.334994
361.725830	2506.045797
362.114398	2506.570077
362.502903	2506.852382
362.891344	2504.934223
363.279722	2506.411281
363.668037	2507.031343
364.056289	2504.946826
364.444478	2506.585201
364.832603	2506.580159
365.220665	2507.621158
365.608665	2506.991013
365.996601	2509.562002
366.384474	2508.460510
366.772284	2510.373628
367.160031	2511.356653
367.547715	2511.386900
367.935336	2508.621827
368.322893	2507.245592
368.710388	2508.291631
369.097820	2506.890190
369.485189	2508.765500
369.872495	2514.656088
370.259738	2513.035357
370.646918	2513.136180
371.034035	2515.127436
371.421090	2511.843124
371.808081	2516.304545
372.195010	2514.419154
372.581875	2511.434791
372.968678	2515.835718
373.355418	2515.588701
373.742096	2514.121726
374.128710	2514.872857
374.515262	2515.306397
374.901751	2516.012158
375.288177	2515.868485
375.674540	2514.693897
376.060841	2516.743126
376.447079	2517.211953
376.833254	2517.191788
377.219367	2517.557272
377.605417	2519.656913
377.991404	2515.376973
378.377329	2520.765966
378.763191	2516.629700
379.148991	2519.215812
379.534727	2519.576254
379.920402	2517.252282
380.306013	2518.850328
380.691563	2522.207736
381.077049	2517.829494
381.462474	2519.271264
381.847835	2520.193795
382.233134	2517.683301
382.618371	2522.452232
383.003545	2523.364681
383.388657	2519.225894
383.773706	2522.858045
384.158693	2521.058353
384.543618	2523.319311
384.928480	2519.949299
385.313280	2522.243024
385.698017	2523.957017
386.082692	2521.988446
386.467305	2524.135978
386.851856	2521.789321
387.236344	2522.358971
387.620770	2520.806296
388.005133	2519.866120
388.389435	2520.811337
388.773674	2517.731192
389.157851	2523.601615
389.541965	2523.473066
389.926018	2526.361647
390.310008	2524.834177
390.693936	2525.638242
391.077802	2524.367871
391.461606	2526.772501
391.845348	2525.360978
392.229027	2528.191586
392.612645	2524.642614
392.996200	2525.602953
393.379694	2525.945752
393.763125	2528.557070
394.146494	2525.676050
394.529801	2527.707635
394.913047	2526.855680
395.296230	2529.121679
395.679351	2525.297964
396.062410	2526.548170
396.445408	2528.478932
396.828343	2528.526823
397.211217	2526.948942
397.594028	2528.728469
397.976778	2526.379291
398.359466	2529.116638
398.742092	2527.798376
399.124656	2529.376257
399.507158	2528.705784
399.889598	2529.507327
400.271977	2528.914992
400.654294	2527.006915
401.036549	2526.946421
401.418742	2527.533715
401.800874	2528.725948
402.182944	2529.986237
402.564952	2530.530681
402.946898	2530.838192
403.328783	2529.214940
403.710606	2530.923891
404.092367	2530.951618
404.474067	2532.317770
404.855705	2530.949097
405.237282	2529.930784
405.618797	2532.269879
406.000250	2533.076464
406.381642	2531.531350
406.762972	2529.373737
407.144240	2526.618746
407.525447	2532.390867
407.906593	2528.100845
408.287677	2530.215609
408.668700	2533.066382
409.049661	2532.554705
409.430560	2531.738038
409.811399	2531.647297
410.192176	2530.795342
410.572891	2532.337935
410.953545	2532.794159
411.334138	2537.384130
411.714669	2533.220137
412.095139	2535.302133
412.475547	2533.005888
412.855894	2534.881197
413.236180	2533.643594
413.616405	2534.684592
413.996568	2533.257946
414.376670	2534.167874
414.756711	2534.906403
415.136691	2535.672658
415.516609	2535.680220
415.896466	2536.791794
416.276262	2535.491177
416.655997	2535.627288
417.035670	2538.125180
417.415283	2534.044366
417.794834	2535.765920
418.174324	2537.245498
418.553753	2534.641742
418.933121	2535.634850
419.312428	2537.658873
419.691674	2534.969417
420.070859	2537.731970
420.449983	2539.957639
420.829045	2537.326157
421.208047	2538.369676
421.586988	2539.622402
421.965867	2539.057793
422.344686	2539.365303
422.723444	2538.135262
423.102141	2537.021167
423.480777	2537.767258
423.859352	2538.226003
424.237866	2539.400592
424.616319	2539.324974
424.994712	2540.214738
425.373044	2538.944367
425.751314	2536.335570
426.129524	2536.126362
426.507673	2533.731814
426.885762	2533.782226
427.263789	2539.118287
427.641756	2538.296579
428.019662	2542.208514
428.397508	2537.610982
428.775292	2540.323123
429.153016	2541.369162
429.530679	2540.572660
429.908282	2542.301776
430.285824	2539.750952
430.663305	2539.997968
431.040726	2538.866229
431.418086	2540.867567
431.795385	2539.153575
432.172624	2541.059131
432.549802	2540.630633
432.926920	2544.134235
433.303977	2541.439738
433.680974	2541.797660
434.057910	2541.195242
434.434786	2540.933102
434.811601	2544.517363
435.188355	2541.908566
435.565050	2539.433359
435.941683	2540.335726
436.318257	2541.525438
436.694770	2545.081972
437.071222	2542.586601
437.447614	2541.031405
437.823946	2542.533669
438.200218	2542.135418
438.576429	2543.509132
438.952580	2539.350180
439.328670	2541.096940
439.704700	2541.142310
440.080670	2544.282949
440.456580	2543.297403
440.832429	2544.028371
441.208218	2543.141128
441.583947	2542.599204
441.959616	2543.103319
442.335224	2544.905532
442.710773	2542.352187
443.086261	2545.094575
443.461689	2542.064841
443.837057	2542.548792
444.212365	2544.832435
444.587612	2542.097609
444.962800	2541.364121
445.337927	2541.711961
445.712995	2539.279604
446.088002	2543.809081
446.462949	2544.857641
446.837837	2542.866385
447.212664	2544.640871
447.587431	2545.833104
447.962139	2545.195398
448.336786	2546.027188
448.711374	2544.756818
449.085901	2545.018957
449.460369	2546.667415
449.834776	2545.971736
450.209124	2545.321427
450.583412	2546.231355
450.957640	2545.414688
451.331808	2543.957795
451.705917	2546.042312
452.079965	2544.910573
452.453954	2546.957281
452.827883	2545.669266
453.201752	2544.981149
453.575562	2547.698331
453.949311	2546.064997
454.323001	2545.576005
454.696632	2545.974256
455.070202	2546.445604
455.443713	2546.927034
455.817164	2546.727909
456.190556	2547.678166
456.563888	2546.291849
456.937160	2547.796633
457.310373	2546.932075
457.683526	2547.461397
458.056619	2548.948537
458.429653	2547.436191
458.802628	2547.700851
459.175542	2545.588608
459.548398	2548.779658
459.921194	2548.028526
460.293930	2546.105326
460.666607	2546.201108
461.039224	2545.167672
461.411782	2547.960471
461.784280	2547.678166
462.156719	2547.917621
462.529099	2549.104813
462.901419	2548.903167
463.273680	2545.865871
463.645882	2544.618186
464.018024	2541.893442
464.390106	2544.661036
464.762130	2551.650595
465.134094	2548.197405
465.505999	2548.273022
465.877845	2546.080120
466.249631	2548.719164
466.621358	2546.100285
466.993026	2552.883158
467.364634	2555.232335
467.736184	2552.681511
468.107674	2546.185985
468.479105	2547.957950
468.850477	2550.019782
469.221790	2549.767724
469.593043	2550.450801
469.964238	2549.230842
470.335373	2549.732436
470.706449	2547.869730
471.077467	2550.344937
471.448425	2551.131357
471.819324	2552.321069
472.190164	2549.006510
472.560945	2549.699669
472.931667	2550.259237
473.302330	2548.663712
473.672934	2551.385935
474.043479	2546.584236
474.413965	2549.228321
474.784393	2548.797302
475.154761	2548.668753
475.525070	2547.668084
475.895321	2548.391489
476.265513	2550.685214
476.635645	2551.343085
477.005719	2552.154711
477.375734	2549.803012
477.745691	2550.922149
478.115588	2551.174206
478.485427	2551.499361
478.855207	2551.867365
479.224928	2552.124464
479.594591	2550.221428
479.964194	2553.556152
480.333739	2551.854762
480.703226	2553.304094
481.072653	2552.114382
481.442022	2550.108002
481.811333	2548.542724
482.180584	2549.316541
482.549777	2549.644216
482.918912	2546.254040
483.287988	2550.342416
483.657005	2552.535318
484.025964	2550.407951
484.394864	2553.132695
484.763706	2553.566234
485.132489	2549.087169
485.501213	2552.996583
485.869879	2551.103630
486.238487	2554.355174
486.607036	2550.125646
486.975527	2549.409803
487.343959	2552.389124
487.712333	2552.651264
488.080648	2554.534135
488.448905	2551.678322
488.817104	2551.637992
489.185244	2551.902653
489.553326	2550.140770
489.921350	2549.828218
490.289315	2552.366439
490.657222	2552.058929
491.025070	2552.074052
491.392861	2552.268137
491.760593	2552.005997
492.128267	2551.267468
492.495883	2552.358877
492.863440	2553.593960
493.230939	2552.729402
493.598380	2554.851728
493.965763	2548.966181
494.333088	2554.881975
494.700354	2554.521532
495.067563	2552.260575
495.434713	2553.228477
495.801805	2553.621687
496.168839	2551.900132
496.535815	2553.974567
496.902733	2553.596481
497.269593	2553.238559
497.636395	2552.991542
498.003139	2552.215205
498.369825	2551.605225
498.736453	2553.770401
499.103023	2552.646223
499.469535	2551.602704
499.835989	2554.657644
500.202385	2552.512633
500.568723	2551.489278
500.935003	2552.053888
501.301226	2549.432488
501.667390	2553.800648
502.033497	2553.253682
502.399546	2554.317366
502.765537	2552.913404
503.131470	2553.896429
503.497345	2555.381049
503.863163	2550.987684
504.228923	2553.296532
504.594625	2552.280740
504.960269	2553.883827
505.325856	2555.575134
505.691385	2551.948023
506.056856	2556.379198
506.422270	2553.989691
506.787625	2552.822664
507.152924	2553.508261
507.518164	2555.076059
507.883347	2555.436502
508.248472	2554.546738
508.613540	2553.412479
508.978550	2552.464742
509.343503	2555.683518
509.708398	2554.818961
510.073236	2555.179403
510.438016	2552.769732
510.802738	2554.241748
511.167403	2555.686039
511.532010	2554.730740
511.896561	2558.199054
512.261053	2555.764177
512.625488	2554.967675
512.989866	2556.023796
513.354186	2555.673436
513.718449	2553.535987
514.082655	2554.937428
514.446803	2555.030689
514.810894	2556.064126
515.174927	2557.274003
515.538904	2556.734599
515.902822	2554.929866
516.266684	2554.544218
516.630488	2555.905329
516.994235	2555.922973
517.357925	2556.079249
517.721558	2556.041440
518.085133	2555.912891
518.448651	2551.726213
518.812112	2550.125646
519.175516	2552.973898
519.538863	2551.141439
519.902152	2554.080432
520.265385	2556.452294
520.628560	2557.185782
520.991678	2556.285936
521.354739	2554.922304
521.717743	2555.890206
522.080690	2554.229146
522.443580	2556.674105
522.806413	2556.961451
523.169189	2554.168652
523.531908	2555.381049
523.894569	2556.086811
524.257174	2555.302911
524.619722	2555.731409
524.982213	2556.374157
525.344647	2556.845504
525.707025	2555.562531
526.069345	2555.421378
526.431608	2556.865669
526.793815	2554.667726
527.155964	2555.623025
527.518057	2553.248641
527.880093	2553.160421
528.242072	2556.303580
528.603995	2555.350802
528.965860	2553.059598
529.327669	2554.052705
529.689421	2553.979608
530.051117	2560.240722
530.412755	2554.118240
530.774337	2554.244269
531.135862	2555.870041
531.497331	2554.818961
531.858743	2556.502706
532.220098	2557.483210
532.581396	2556.290978
532.942638	2555.355843
533.303824	2556.570762
533.664953	2556.109496
534.026025	2555.249979
534.387040	2557.246276
534.747999	2558.287274
535.108902	2551.902653
535.469748	2556.366595
535.830537	2555.799465
536.191270	2552.799978
536.551947	2555.280226
536.912567	2552.532797
537.273131	2554.072870
537.633638	2551.827036
537.994089	2554.829043
538.354483	2556.686708
538.714821	2555.867521
539.075103	2554.735782
539.435328	2554.362736
539.795497	2555.980947
540.155609	2557.402552
540.515665	2557.357182
540.875665	2554.405586
541.235609	2559.303067
541.595496	2557.271482
541.955328	2556.480021
542.315102	2555.088662
542.674821	2555.648230
543.034483	2556.827860
543.394090	2555.882644
543.753640	2556.880792
544.113134	2558.073025
544.472571	2558.015052
544.831953	2558.073025
545.191278	2561.251473
545.550548	2557.150494
545.909761	2555.721327
546.268918	2556.492624
546.628019	2557.662171
546.987064	2559.507234
547.346053	2558.345248
547.704986	2558.443550
548.063863	2556.842984
548.422684	2554.332489
548.781449	2557.258879
549.140158	2557.820968
549.498811	2555.229815
549.857408	2559.305587
550.215949	2555.376008
550.574434	2557.447922
550.932864	2554.826522
551.291237	2556.457336
551.649555	2556.079249
552.007817	2554.498847
552.366022	2559.005639
552.724173	2555.207129
553.082267	2557.374826
553.440305	2557.147974
553.798288	2556.260731
554.156215	2558.078067
554.514086	2551.330482
554.871902	2552.623538
555.229661	2552.817622
555.587365	2551.131357
555.945014	2555.529763
556.302606	2556.621173
556.660143	2555.063457
557.017625	2558.093190
557.375050	2556.051523
557.732421	2554.130843
558.089735	2555.915412
558.446994	2557.674774
558.804197	2556.911039
559.161345	2557.107644
559.518437	2558.393139
559.875474	2556.348951
560.232455	2558.519167
560.589381	2556.353992
560.946251	2558.856925
561.303065	2555.232335
561.659825	2555.653272
562.016528	2555.343241
562.373177	2554.932387
562.729770	2559.224929
563.086307	2557.188303
563.442789	2556.820299
563.799216	2558.932542
564.155587	2556.059084
564.511904	2559.318190
564.868164	2556.860628
565.224370	2557.463046
565.580520	2556.369115
565.936615	2556.903478
566.292654	2558.471277
566.648638	2558.937583
567.004567	2556.401883
567.360441	2558.967830
567.716260	2558.015052
568.072023	2556.379198
568.427732	2556.245607
568.783385	2555.978426
569.138982	2557.836091
569.494525	2558.304918
569.850013	2557.916750
570.205445	2557.823488
570.560823	2557.692418
570.916145	2556.747202
571.271412	2554.844166
571.626625	2557.775597
571.981782	2555.295350
572.336884	2555.156718
572.691931	2552.719320
573.046923	2552.989022
573.401860	2550.168496
573.756743	2557.611760
574.111570	2558.965310
574.466342	2556.810216
574.821059	2557.667212
575.175722	2555.202088
575.530330	2557.538663
575.884882	2559.608057
576.239380	2556.943807
576.593823	2555.708724
576.948211	2557.100083
577.302544	2559.406411
577.656823	2557.394990
578.011047	2558.317521
578.365216	2557.551266
578.719330	2560.240722
579.073389	2561.062430
579.427394	2556.477500
579.781344	2558.511606
580.135239	2559.343396
580.489080	2558.027655
580.842866	2555.948179
581.196597	2561.493448
581.550273	2557.616801
581.903895	2557.692418
582.257463	2556.023796
582.610975	2556.505227
582.964434	2556.492624
583.317837	2555.292829
583.671186	2560.064281
584.024481	2557.238714
584.377721	2555.915412
584.730906	2558.090669
585.084037	2557.813406
585.437113	2558.524209
585.790135	2557.823488
586.143103	2557.427758
586.496016	2555.837274
586.848874	2560.807851
587.201679	2557.815927
587.554428	2558.763663
587.907124	2556.076728
588.259765	2560.409600
588.612352	2558.967830
588.964884	2558.015052
589.317362	2559.986143
589.669786	2560.447409
590.022155	2555.875082
590.374470	2551.557334
590.726731	2555.441543
591.078937	2553.944320
591.431090	2558.264589
591.783188	2558.219219
592.135232	2559.870197
592.487222	2556.835422
592.839157	2558.441030
593.191038	2558.872048
593.542866	2558.128478
593.894639	2558.241904
594.246358	2559.439178
594.598022	2556.787531
594.949633	2559.736606
595.301190	2556.749722
595.652692	2556.628735
596.004141	2556.870710
596.355535	2559.013201
596.706876	2558.302398
597.058162	2557.578992
597.409395	2556.729558
597.760573	2557.919270
598.111698	2559.630742
598.462768	2558.420865
598.813785	2557.397511
599.164748	2558.524209
599.515657	2559.318190
599.866511	2558.347768
600.217312	2557.581513
600.568060	2558.093190
600.918753	2558.617470
601.269392	2558.110834
601.619978	2554.385421
601.970510	2555.892726
602.320988	2556.353992
602.671412	2557.521019
603.021783	2558.917419
603.372100	2556.195196
603.722363	2555.928014
604.072572	2556.797613
604.422728	2558.632593
604.772830	2557.762994
605.122878	2558.370453
605.472872	2558.073025
605.822813	2556.994218
606.172701	2555.635628
606.522534	2556.482541
606.872314	2559.744168
607.222041	2560.916236
607.571714	2554.566903
607.921333	2553.868703
608.270899	2558.385577
608.620411	2555.343241
608.969870	2559.751730
609.319276	2565.874211
609.668627	2566.721125
610.017926	2570.224727
610.367171	2572.843606
610.716362	2572.833524
611.065500	2570.612896
611.414585	2565.846485
611.763616	2565.198696
612.112594	2562.249621
612.461518	2563.174673
612.810389	2563.618295
613.159207	2562.136195
613.507971	2560.339024
613.856682	2561.881617
614.205340	2561.332131
614.553945	2561.019580
614.902496	2561.795918
615.250994	2560.538150
615.599439	2560.454971
615.947830	2557.836091
616.296169	2558.002449
616.644454	2558.708211
616.992686	2558.867007
617.340864	2559.489590
617.688990	2559.119065
618.037063	2559.577810
618.385082	2558.559497
618.733048	2559.287943
619.080961	2555.940617
619.428821	2558.262069
619.776628	2557.210988
620.124382	2560.759960
620.472083	2556.946328
620.819731	2560.923798
621.167326	2558.393139
621.514868	2557.868859
621.862357	2558.317521
622.209793	2557.952038
622.557176	2559.035886
622.904506	2558.972871
623.251783	2555.305432
623.599007	2558.504044
623.946179	2558.264589
624.293297	2558.675443
624.640363	2557.909188
624.987376	2556.918601
625.334336	2554.229146
625.681243	2555.557490
626.028097	2553.775442
626.374899	2556.255689
626.721647	2556.669064
627.068343	2558.607388
627.414987	2559.015721
627.761577	2558.501523
628.108115	2555.360885
628.454600	2561.523695
628.801032	2558.786349
629.147412	2556.913560
629.493739	2558.017573
629.840014	2559.592933
630.186236	2555.872562
630.532405	2557.745350
630.878521	2559.852553
631.224585	2556.905998
631.570597	2558.887172
631.916556	2556.971533
632.262462	2556.374157
632.608316	2559.222408
632.954117	2558.194013
633.299866	2555.716286
633.645562	2558.740978
633.991206	2559.081256
634.336797	2557.944476
634.682336	2555.988508
635.027823	2556.936245
635.373257	2555.388611
635.718639	2556.923642
636.063968	2557.127809
636.409245	2555.867521
636.754470	2556.152346
637.099642	2555.807027
637.444762	2557.019424
637.789829	2560.918757
638.134845	2556.656461
638.479808	2554.082952
638.824719	2560.447409
639.169577	2558.040258
639.514383	2558.277192
639.859137	2558.166287
640.203839	2558.241904
640.548489	2555.005483
640.893086	2557.354661
641.237632	2556.094373
641.582125	2559.151832
641.926566	2556.112017
642.270955	2553.203271
642.615292	2554.904660
642.959576	2553.273847
643.303809	2553.447767
643.647990	2556.238045
643.992118	2556.343910
644.336195	2557.810885
