Dividing Wavelength (nm)	Counts (n)	Blue Motor Position (mm): 21.400000	Red Motor Position (mm): 0.000000	
326.493990	2188.339679
326.888308	2188.339679
327.282561	2188.339679
327.676750	2148.222177
328.070874	2144.557258
328.464933	2147.276960
328.858929	2149.656385
329.252859	2152.141674
329.646726	2163.575011
330.040528	2175.346105
330.434265	2187.205419
330.827938	2208.894984
331.221547	2220.144318
331.615091	2239.388923
332.008571	2259.765267
332.401986	2275.919645
332.795338	2294.700463
333.188625	2315.054122
333.581847	2333.512307
333.975006	2351.758763
334.368100	2371.005888
334.761129	2387.069525
335.154095	2404.461506
335.546996	2426.844229
335.939833	2461.207254
336.332606	2477.832980
336.725315	2491.209681
337.117960	2502.627895
337.510540	2513.305059
337.903056	2527.400125
338.295508	2532.736186
338.687896	2541.916127
339.080220	2548.623382
339.472480	2555.693601
339.864676	2562.577296
340.256807	2568.626681
340.648875	2572.183215
341.040879	2573.811508
341.432818	2576.150603
341.824694	2583.165369
342.216506	2581.587487
342.608253	2578.759400
342.999937	2581.731160
343.391557	2581.025399
343.783113	2580.417940
344.174605	2578.144379
344.566033	2580.034812
344.957397	2578.517425
345.348697	2577.809143
345.739934	2577.746128
346.131106	2574.020716
346.522215	2573.821590
346.913260	2571.490056
347.304241	2569.312278
347.695159	2563.814900
348.086012	2565.720456
348.476802	2560.394477
348.867528	2558.879610
349.258191	2556.984136
349.648789	2554.798796
350.039324	2550.448280
350.429796	2556.815258
350.820203	2554.511450
351.210548	2554.047664
351.600828	2550.861655
351.991045	2550.387786
352.381198	2548.983825
352.771288	2549.072045
353.161314	2546.657333
353.551276	2547.688248
353.941175	2546.909390
354.331010	2546.120450
354.720782	2548.020965
355.110490	2547.007693
355.500135	2546.730429
355.889717	2545.349153
356.279235	2548.121788
356.668689	2546.818649
357.058080	2547.859648
357.447408	2546.644730
357.836672	2546.977446
358.225873	2546.841335
358.615010	2547.358053
359.004084	2547.988197
359.393095	2549.205636
359.782043	2550.022303
360.170927	2547.728578
360.559748	2549.256047
360.948505	2549.344267
361.337199	2551.020451
361.725830	2553.309135
362.114398	2551.358208
362.502903	2551.101110
362.891344	2553.195709
363.279722	2556.101934
363.668037	2550.236552
364.056289	2556.742161
364.444478	2556.807696
364.832603	2553.596481
365.220665	2558.443550
365.608665	2556.666543
365.996601	2556.212840
366.384474	2559.103941
366.772284	2558.461194
367.160031	2558.060422
367.547715	2558.493962
367.935336	2559.469425
368.322893	2554.319886
368.710388	2555.882644
369.097820	2558.501523
369.485189	2556.648899
369.872495	2561.460681
370.259738	2559.968499
370.646918	2559.355999
371.034035	2561.828685
371.421090	2561.569066
371.808081	2560.830537
372.195010	2563.479663
372.581875	2561.069991
372.968678	2562.690722
373.355418	2561.992522
373.742096	2563.711556
374.128710	2562.060578
374.515262	2561.899261
374.901751	2562.085784
375.288177	2563.300702
375.674540	2560.949004
376.060841	2563.119220
376.447079	2566.562328
376.833254	2567.121897
377.219367	2562.857080
377.605417	2566.718604
377.991404	2563.235167
378.377329	2564.160219
378.763191	2567.530230
379.148991	2566.602658
379.534727	2567.767164
379.920402	2568.041907
380.306013	2568.621640
380.691563	2567.603327
381.077049	2565.922102
381.462474	2567.862946
381.847835	2567.207596
382.233134	2570.030642
382.618371	2566.033007
383.003545	2568.924109
383.388657	2566.610219
383.773706	2571.885787
384.158693	2569.564336
384.543618	2568.185580
384.928480	2567.515107
385.313280	2569.836558
385.698017	2571.018708
386.082692	2570.585169
386.467305	2569.879408
386.851856	2571.071641
387.236344	2570.449058
387.620770	2568.679613
388.005133	2570.159192
388.389435	2570.360838
388.773674	2569.186249
389.157851	2572.750345
389.541965	2574.373596
389.926018	2574.807136
390.310008	2570.290262
390.693936	2573.514080
391.077802	2574.441652
391.461606	2572.926785
391.845348	2572.659604
392.229027	2576.044739
392.612645	2574.481981
392.996200	2575.220510
393.379694	2575.006261
393.763125	2576.478278
394.146494	2574.033318
394.529801	2576.458113
394.913047	2577.544482
395.296230	2574.847465
395.679351	2576.780747
396.062410	2577.541962
396.445408	2575.747311
396.828343	2579.152610
397.211217	2579.021540
397.594028	2578.222517
397.976778	2579.901222
398.359466	2580.627148
398.742092	2577.778896
399.124656	2575.744790
399.507158	2576.621951
399.889598	2576.931982
400.271977	2583.266192
400.654294	2579.291242
401.036549	2578.945923
401.418742	2578.338464
401.800874	2579.230748
402.182944	2581.337950
402.564952	2582.338619
402.946898	2582.411716
403.328783	2580.291911
403.710606	2581.622776
404.092367	2583.530852
404.474067	2582.353743
404.855705	2581.637899
405.237282	2581.471541
405.618797	2580.397775
406.000250	2583.208218
406.381642	2583.982036
406.762972	2580.796026
407.144240	2579.134966
407.525447	2582.545307
407.906593	2580.735533
408.287677	2582.401634
408.668700	2582.719227
409.049661	2586.598394
409.430560	2584.597056
409.811399	2585.252406
410.192176	2589.071080
410.572891	2584.934814
410.953545	2587.253744
411.334138	2585.481779
411.714669	2585.539752
412.095139	2588.062850
412.475547	2585.673343
412.855894	2587.014290
413.236180	2585.885071
413.616405	2584.536562
413.996568	2585.880030
414.376670	2589.204671
414.756711	2588.471183
415.136691	2589.212233
415.516609	2588.496389
415.896466	2586.202664
416.276262	2588.531677
416.655997	2588.259455
417.035670	2588.614856
417.415283	2589.459249
417.794834	2589.179465
418.174324	2584.531521
418.553753	2588.004876
418.933121	2589.963365
419.312428	2586.782397
419.691674	2589.454208
420.070859	2590.159970
420.449983	2589.527305
420.829045	2591.485793
421.208047	2589.124012
421.586988	2592.609970
421.965867	2593.308170
422.344686	2591.541246
422.723444	2591.821030
423.102141	2590.772470
423.480777	2590.850608
423.859352	2592.047882
424.237866	2595.508634
424.616319	2592.988057
424.994712	2595.513675
425.373044	2593.232553
425.751314	2590.331369
426.129524	2589.365988
426.507673	2593.124168
426.885762	2589.234918
427.263789	2593.676174
427.641756	2595.198603
428.019662	2592.859507
428.397508	2592.413365
428.775292	2595.914447
429.153016	2594.681885
429.530679	2591.629466
429.908282	2597.184817
430.285824	2595.299426
430.663305	2594.568459
431.040726	2593.993767
431.418086	2597.636001
431.795385	2597.353696
432.172624	2597.152050
432.549802	2595.783377
432.926920	2597.867894
433.303977	2597.119282
433.680974	2596.040476
434.057910	2595.710280
434.434786	2599.019797
434.811601	2598.853439
435.188355	2598.515682
435.565050	2600.015425
435.941683	2598.041814
436.318257	2597.222626
436.694770	2600.073399
437.071222	2596.673140
437.447614	2600.592638
437.823946	2600.360744
438.200218	2601.033738
438.576429	2600.718666
438.952580	2599.531475
439.328670	2602.536002
439.704700	2598.838316
440.080670	2599.841506
440.456580	2598.641711
440.832429	2601.530292
441.208218	2598.563573
441.583947	2602.886362
441.959616	2602.283945
442.335224	2602.525920
442.710773	2597.988882
443.086261	2602.359562
443.461689	2602.296547
443.837057	2601.414346
444.212365	2603.493822
444.587612	2602.291506
444.962800	2601.646239
445.337927	2598.787904
445.712995	2594.810434
446.088002	2605.485077
446.462949	2602.515838
446.837837	2603.453492
447.212664	2603.077926
447.587431	2604.275200
447.962139	2605.051538
448.336786	2611.567229
448.711374	2610.332147
449.085901	2608.872733
449.460369	2606.848709
449.834776	2607.234358
450.209124	2607.640171
450.583412	2611.584873
450.957640	2611.244596
451.331808	2609.840634
451.705917	2607.327619
452.079965	2608.663525
452.453954	2608.161930
452.827883	2606.059769
453.201752	2609.704523
453.575562	2609.888525
453.949311	2610.304420
454.323001	2610.685027
454.696632	2609.172681
455.070202	2611.910028
455.443713	2612.530090
455.817164	2613.485388
456.190556	2613.601335
456.563888	2616.636110
456.937160	2612.983794
457.310373	2614.160903
457.683526	2614.972529
458.056619	2614.783486
458.429653	2615.116202
458.802628	2612.837600
459.175542	2615.927827
459.548398	2616.769700
459.921194	2614.833897
460.293930	2620.689197
460.666607	2617.790534
461.039224	2620.096862
461.411782	2621.664661
461.784280	2623.479476
462.156719	2622.655247
462.529099	2623.439147
462.901419	2622.932511
463.273680	2622.561986
463.645882	2619.277674
464.018024	2621.760443
464.390106	2616.920935
464.762130	2626.151287
465.134094	2628.384519
465.505999	2631.018522
465.877845	2634.784263
466.249631	2641.040335
466.621358	2645.378248
466.993026	2642.464461
467.364634	2645.668115
467.736184	2640.914307
468.107674	2641.186529
468.479105	2639.696868
468.850477	2642.227527
469.221790	2645.365645
469.593043	2642.605614
469.964238	2643.427322
470.335373	2644.697693
470.706449	2648.314720
471.077467	2649.416212
471.448425	2656.927532
471.819324	2668.522186
472.190164	2678.443176
472.560945	2671.468740
472.931667	2668.612926
473.302330	2670.445386
473.672934	2671.168791
474.043479	2677.046777
474.413965	2681.619103
474.784393	2683.902746
475.154761	2688.893488
475.525070	2697.314736
475.895321	2700.679706
476.265513	2709.884853
476.635645	2723.536297
477.005719	2730.508213
477.375734	2738.737897
477.745691	2751.678539
478.115588	2768.410128
478.485427	2784.060391
478.855207	2808.424287
479.224928	2850.096985
479.594591	2899.228071
479.964194	2916.647778
480.333739	2932.242587
480.703226	2947.045936
481.072653	2972.939822
481.442022	3010.211593
481.811333	3065.301323
482.180584	3090.827205
482.549777	3105.287755
482.918912	3135.895120
483.287988	3182.419929
483.657005	3216.626679
484.025964	3248.701020
484.394864	3284.881381
484.763706	3317.913542
485.132489	3356.722865
485.501213	3408.361924
485.869879	3463.653299
486.238487	3507.773478
486.607036	3583.148810
486.975527	3624.577012
487.343959	3708.272769
487.712333	3778.397740
488.080648	3822.323834
488.448905	3929.065225
488.817104	3986.173937
489.185244	4119.754431
489.553326	4206.245508
489.921350	4358.440463
490.289315	4667.372453
490.657222	4946.848981
491.025070	5094.506898
491.392861	5191.581877
491.760593	5218.118511
492.128267	5256.799284
492.495883	5243.656996
492.863440	5276.883241
493.230939	5287.278100
493.598380	5394.571498
493.965763	5457.175067
494.333088	5518.357031
494.700354	5632.430781
495.067563	5753.736066
495.434713	5850.175859
495.801805	5967.677594
496.168839	6099.591987
496.535815	6206.446805
496.902733	6369.981835
497.269593	6421.268014
497.636395	6616.249763
498.003139	6747.607108
498.369825	6868.675459
498.736453	7017.717172
499.103023	7127.120293
499.469535	7289.573997
499.835989	7487.530026
500.202385	7664.673651
500.568723	7700.302006
500.935003	7882.353195
501.301226	7967.498283
501.667390	8293.234960
502.033497	8573.843227
502.399546	8618.439794
502.765537	8722.050629
503.131470	8962.914440
503.497345	9172.460082
503.863163	9106.637736
504.228923	9467.072674
504.594625	9709.975631
504.960269	9708.753151
505.325856	10053.230317
505.691385	10053.036233
506.056856	10396.384180
506.422270	10618.000865
506.787625	10605.554256
507.152924	10987.260343
507.518164	11128.576488
507.883347	11235.196892
508.248472	11278.694488
508.613540	11776.014397
508.978550	11915.281313
509.343503	12083.436561
509.708398	12389.802604
510.073236	12628.715488
510.438016	12927.098863
510.802738	12994.531858
511.167403	13290.578658
511.532010	13333.693127
511.896561	13901.926947
512.261053	14125.048416
512.625488	14196.814283
512.989866	14345.223331
513.354186	14441.637919
513.718449	14725.280961
514.082655	15079.424539
514.446803	15171.100442
514.810894	15583.151755
515.174927	15489.381252
515.538904	15693.300966
515.902822	16148.028167
516.266684	16235.035962
516.630488	16336.022876
516.994235	16533.600819
517.357925	16874.539094
517.721558	17203.726441
518.085133	17440.758974
518.448651	17565.315803
518.812112	17594.022654
519.175516	17857.370010
519.538863	18198.988842
519.902152	18197.831897
520.265385	18625.296537
520.628560	18632.543196
520.991678	18832.019133
521.354739	19053.635818
521.717743	19273.346946
522.080690	19274.234189
522.443580	19711.549244
522.806413	19851.305153
523.169189	20122.315063
523.531908	20285.272881
523.894569	20169.636374
524.257174	20371.642970
524.619722	20686.132832
524.982213	20570.760985
525.344647	20811.402985
525.707025	21027.459277
526.069345	21194.313907
526.431608	21297.808796
526.793815	21610.675407
527.155964	21234.433930
527.518057	21528.474352
527.880093	21627.089403
528.242072	21906.835633
528.603995	21784.917848
528.965860	21741.130386
529.327669	21943.414246
529.689421	22015.719515
530.051117	21985.732212
530.412755	22278.474536
530.774337	22194.430940
531.135862	22181.109691
531.497331	22462.060756
531.858743	22158.742091
532.220098	22696.300490
532.581396	22479.606492
532.942638	22560.423750
533.303824	22710.720711
533.664953	22806.200165
534.026025	22610.590793
534.387040	22882.613975
534.747999	23058.318351
535.108902	23261.565071
535.469748	22877.348489
535.830537	23129.625472
536.191270	23290.849134
536.551947	23292.631182
536.912567	23031.201984
537.273131	23367.734292
537.633638	23162.944978
537.994089	23432.094703
538.354483	23063.959402
538.714821	23586.250667
539.075103	23684.049051
539.435328	23537.497668
539.795497	23144.474191
540.155609	23591.818621
540.515665	23914.197889
540.875665	23228.273291
541.235609	23524.385627
541.595496	23570.033275
541.955328	23926.745321
542.315102	23884.291244
542.674821	23517.017980
543.034483	23431.716616
543.394090	23617.883907
543.753640	23429.180916
544.113134	24083.820113
544.472571	23735.181475
544.831953	24036.609707
545.191278	23670.357278
545.550548	23656.347911
545.909761	23875.383525
546.268918	24113.653662
546.628019	24088.866308
546.987064	23835.858358
547.346053	23626.474033
547.704986	23768.667339
548.063863	23939.776704
548.422684	23937.843421
548.781449	23539.672926
549.140158	23942.887096
549.498811	23531.344940
549.857408	23284.535088
550.215949	23736.910591
550.574434	23420.820162
550.932864	23662.417460
551.291237	23809.810716
551.649555	23694.960629
552.007817	23750.836778
552.366022	23637.481393
552.724173	23690.957953
553.082267	23634.691114
553.440305	24103.278967
553.798288	23392.723291
554.156215	23925.212810
554.514086	24006.461087
554.871902	23379.719635
555.229661	23680.878166
555.587365	23555.597931
555.945014	23385.993351
556.302606	23677.913967
556.660143	23594.066976
557.017625	23871.194326
557.375050	23420.555502
557.732421	23810.085459
558.089735	23617.800728
558.446994	23683.555018
558.804197	23699.399365
559.161345	23678.788607
559.518437	23399.208736
559.875474	23615.832158
560.232455	23790.498056
560.589381	23636.735302
560.946251	23596.731226
561.303065	23938.271919
561.659825	24007.854966
562.016528	23624.228199
562.373177	23365.649774
562.729770	23704.425395
563.086307	23605.691877
563.442789	23768.992494
563.799216	23589.028342
564.155587	23604.981074
564.511904	23596.481688
564.868164	23516.029914
565.224370	23510.603112
565.580520	23414.919492
565.936615	23551.554925
566.292654	23220.651066
566.648638	23541.969171
567.004567	23360.379248
567.360441	23306.731289
567.716260	23034.110730
568.072023	23374.249983
568.427732	23118.814718
568.783385	22913.869128
569.138982	23147.408142
569.494525	23183.656559
569.850013	22927.840686
570.205445	23030.004710
570.560823	22825.127177
570.916145	22611.510803
571.271412	22775.620525
571.626625	22531.497609
571.981782	22643.784270
572.336884	22441.944032
572.691931	22582.451072
573.046923	22322.509015
573.401860	22198.484027
573.756743	22192.500178
574.111570	22113.656532
574.466342	22058.060166
574.821059	22144.059730
575.175722	21848.307837
575.530330	21846.518227
575.884882	21869.006815
576.239380	21768.284561
576.593823	21661.142398
576.948211	21641.996095
577.302544	21494.822129
577.656823	21354.637723
578.011047	21448.158689
578.365216	21334.604178
578.719330	21212.295703
579.073389	21117.295159
579.427394	21257.424112
579.781344	21036.694671
580.135239	20925.338103
580.489080	20920.044891
580.842866	20670.366624
581.196597	20848.420177
581.550273	20835.953404
581.903895	20729.232177
582.257463	21036.934126
582.610975	20564.822506
582.964434	20868.534381
583.317837	20589.967782
583.671186	20682.354488
584.024481	20637.420163
584.377721	20423.410579
584.730906	20471.699792
585.084037	20502.201293
585.437113	20402.126828
585.790135	20602.999164
586.143103	20086.169990
586.496016	20087.067315
586.848874	20327.653862
587.201679	20284.257089
587.554428	19936.198183
587.907124	20265.897207
588.259765	20057.879034
588.612352	20137.027670
588.964884	19695.707418
589.317362	19871.946157
589.669786	19914.629607
590.022155	19980.194853
590.374470	20145.643002
590.726731	19955.135278
591.078937	19703.846361
591.431090	19810.234872
591.783188	19546.516991
592.135232	19533.319250
592.487222	19623.341655
592.839157	19660.005967
593.191038	19545.783503
593.542866	19430.076419
593.894639	19154.534512
594.246358	19366.749445
594.598022	19280.581002
594.949633	19033.531696
595.301190	18992.201796
595.652692	19155.767074
596.004141	19396.600637
596.355535	18728.642712
596.706876	18740.302900
597.058162	18636.273650
597.409395	18842.338375
597.760573	18939.786399
598.111698	18721.905209
598.462768	18651.860897
598.813785	18615.234394
599.164748	18444.855997
599.515657	18465.592783
599.866511	18266.313451
600.217312	18629.329460
600.568060	18158.813366
600.918753	18465.744018
601.269392	18363.322895
601.619978	18138.389131
601.970510	18359.491618
602.320988	18298.254202
602.671412	18517.191513
603.021783	18411.428106
603.372100	18143.929359
603.722363	18280.095966
604.072572	18217.552891
604.422728	18350.316718
604.772830	18107.224718
605.122878	18056.951811
605.472872	18060.679745
605.822813	18047.842446
606.172701	17997.466196
606.522534	18209.935707
606.872314	18230.659891
607.222041	18062.698727
607.571714	18278.918856
607.921333	18107.161704
608.270899	18179.459412
608.620411	18384.682264
608.969870	18133.307648
609.319276	18137.015417
609.668627	18157.253129
610.017926	18313.803641
610.367171	18412.809382
610.716362	18456.644735
611.065500	18293.717163
611.414585	18403.957116
611.763616	18389.199138
612.112594	18346.636676
612.461518	18317.163570
612.810389	18507.673815
613.159207	18358.599334
613.507971	18261.945291
613.856682	18562.052742
614.205340	18484.406369
614.553945	18621.528275
614.902496	18359.630250
615.250994	18609.006048
615.599439	18538.787817
615.947830	18530.275828
616.296169	18583.754909
616.644454	18541.804947
616.992686	18519.971710
617.340864	18728.801508
617.688990	18487.083222
618.037063	18671.387807
618.385082	18501.193412
618.733048	18793.358524
619.080961	18660.158637
619.428821	18700.724802
619.776628	18585.269776
620.124382	18511.757150
620.472083	18538.790337
620.819731	18564.336384
621.167326	18262.635929
621.514868	18305.347105
621.862357	18065.771310
622.209793	18074.081652
622.557176	17910.846570
622.904506	17736.828460
623.251783	17646.211199
623.599007	17419.785253
623.946179	17362.737036
624.293297	17306.414744
624.640363	17060.736632
624.987376	17073.236173
625.334336	16874.702932
625.681243	16719.379941
626.028097	16718.482615
626.374899	16653.920558
626.721647	16524.607400
627.068343	16361.732761
627.414987	16290.342460
627.761577	16258.805002
628.108115	16309.985316
628.454600	16027.075762
628.801032	16121.486492
629.147412	16056.339661
629.493739	16077.641056
629.840014	15880.743669
630.186236	15992.107799
630.532405	15753.910759
630.878521	15954.160513
631.224585	15834.181052
631.570597	15663.084290
631.916556	15702.722883
632.262462	15675.762792
632.608316	15595.870586
632.954117	15532.659558
633.299866	15533.766091
633.645562	15453.876406
633.991206	15210.996134
634.336797	15080.135342
634.682336	15042.740063
635.027823	14949.597183
635.373257	14832.488659
635.718639	14715.390217
636.063968	14670.627291
636.409245	14424.477831
636.754470	14453.799703
637.099642	14294.612667
637.444762	14066.485332
637.789829	14119.603970
638.134845	13953.744968
638.479808	13973.213904
638.824719	13937.774592
