Dividing Wavelength (nm)	Counts (n)	Blue Motor Position (mm): 31.600000	Red Motor Position (mm): 0.000000	
326.493990	2214.344471
326.888308	2214.344471
327.282561	2214.344471
327.676750	2175.043636
328.070874	2172.500373
328.464933	2175.378872
328.858929	2178.506908
329.252859	2183.122085
329.646726	2191.200534
330.040528	2202.633871
330.434265	2219.383104
330.827938	2232.943808
331.221547	2252.236304
331.615091	2268.637698
332.008571	2287.131171
332.401986	2306.310241
332.795338	2324.206337
333.188625	2343.564368
333.581847	2363.751668
333.975006	2382.290511
334.368100	2399.286762
334.761129	2419.095976
335.154095	2435.643563
335.546996	2463.863942
335.939833	2500.770230
336.332606	2516.720440
336.725315	2528.181504
337.117960	2542.639533
337.510540	2554.312325
337.903056	2562.065619
338.295508	2573.647670
338.687896	2581.680749
339.080220	2586.676532
339.472480	2597.250352
339.864676	2602.720004
340.256807	2607.095726
340.648875	2608.403905
341.040879	2614.380193
341.432818	2613.918928
341.824694	2618.413116
342.216506	2618.488734
342.608253	2620.331275
342.999937	2619.028137
343.391557	2619.209619
343.783113	2618.524022
344.174605	2619.933024
344.566033	2618.750874
344.957397	2616.747015
345.348697	2615.499329
345.739934	2614.536469
346.131106	2613.797940
346.522215	2612.187291
346.913260	2609.180243
347.304241	2607.677979
347.695159	2606.820983
348.086012	2605.152361
348.476802	2602.311671
348.867528	2596.635332
349.258191	2594.911257
349.648789	2593.270362
350.039324	2590.167531
350.429796	2593.504775
350.820203	2592.675505
351.210548	2592.146184
351.600828	2590.517892
351.991045	2589.605443
352.381198	2589.285329
352.771288	2588.498909
353.161314	2586.081676
353.551276	2589.582757
353.941175	2582.701582
354.331010	2586.963878
354.720782	2585.078487
355.110490	2584.529001
355.500135	2585.368353
355.889717	2585.204515
356.279235	2584.561768
356.668689	2588.304825
357.058080	2587.525967
357.447408	2589.527305
357.836672	2587.772983
358.225873	2584.375246
358.615010	2588.990422
359.004084	2588.541759
359.393095	2587.594022
359.782043	2590.318766
360.170927	2589.391194
360.559748	2589.676019
360.948505	2589.295412
361.337199	2591.311873
361.725830	2591.001842
362.114398	2590.971595
362.502903	2589.912953
362.891344	2591.173242
363.279722	2595.985023
363.668037	2591.513519
364.056289	2594.180290
364.444478	2594.152563
364.832603	2595.556525
365.220665	2596.242122
365.608665	2596.927719
365.996601	2595.952255
366.384474	2598.893769
366.772284	2595.150712
367.160031	2597.139447
367.547715	2598.399736
367.935336	2601.701691
368.322893	2595.112903
368.710388	2594.492841
369.097820	2596.552153
369.485189	2598.089705
369.872495	2600.927874
370.259738	2600.721187
370.646918	2602.281424
371.034035	2603.148502
371.421090	2601.416866
371.808081	2603.647577
372.195010	2604.207145
372.581875	2603.118256
372.968678	2604.403750
373.355418	2603.534151
373.742096	2604.996085
374.128710	2603.365272
374.515262	2605.996754
374.901751	2604.219748
375.288177	2605.235540
375.674540	2603.319902
376.060841	2606.831065
376.447079	2606.495829
376.833254	2607.723350
377.219367	2605.162443
377.605417	2609.903649
377.991404	2606.092536
378.377329	2604.181939
378.763191	2605.762341
379.148991	2606.904162
379.534727	2608.492126
379.920402	2605.842999
380.306013	2606.205962
380.691563	2610.526231
381.077049	2611.184102
381.462474	2611.378186
381.847835	2610.377517
382.233134	2609.354163
382.618371	2608.640840
383.003545	2609.838114
383.388657	2612.441870
383.773706	2608.978597
384.158693	2611.927672
384.543618	2610.405243
384.928480	2611.277363
385.313280	2610.730398
385.698017	2614.176027
386.082692	2613.324072
386.467305	2611.557147
386.851856	2615.539659
387.236344	2614.460852
387.620770	2612.159565
388.005133	2613.898763
388.389435	2612.698968
388.773674	2611.839452
389.157851	2616.608383
389.541965	2616.835235
389.926018	2617.019237
390.310008	2616.295832
390.693936	2617.301542
391.077802	2621.077366
391.461606	2617.936727
391.845348	2619.149125
392.229027	2620.699280
392.612645	2620.590895
392.996200	2621.984774
393.379694	2618.012345
393.763125	2621.856224
394.146494	2622.710700
394.529801	2621.868827
394.913047	2622.090638
395.296230	2624.427213
395.679351	2625.143057
396.062410	2623.368571
396.445408	2625.773201
396.828343	2625.138016
397.211217	2625.989971
397.594028	2625.904271
397.976778	2625.647172
398.359466	2627.058695
398.742092	2627.444343
399.124656	2625.274127
399.507158	2628.225722
399.889598	2628.787811
400.271977	2629.034827
400.654294	2629.470887
401.036549	2628.611371
401.418742	2631.378964
401.800874	2631.406690
402.182944	2632.888790
402.564952	2633.453399
402.946898	2630.474077
403.328783	2629.090280
403.710606	2633.546660
404.092367	2636.223513
404.474067	2637.161167
404.855705	2636.669655
405.237282	2635.358955
405.618797	2638.444141
406.000250	2639.734677
406.381642	2638.691158
406.762972	2637.763585
407.144240	2638.522279
407.525447	2637.687968
407.906593	2638.391209
408.287677	2641.375572
408.668700	2641.544451
409.049661	2645.400933
409.430560	2645.295069
409.811399	2646.288177
410.192176	2647.079638
410.572891	2646.552837
410.953545	2648.246665
411.334138	2646.888074
411.714669	2648.523928
412.095139	2651.699855
412.475547	2650.600884
412.855894	2652.861841
413.236180	2651.901501
413.616405	2650.908394
413.996568	2654.462408
414.376670	2655.584064
414.756711	2655.664723
415.136691	2660.806700
415.516609	2661.545229
415.896466	2666.392298
416.276262	2672.711384
416.655997	2677.679442
417.035670	2682.342509
417.415283	2693.491021
417.794834	2705.317567
418.174324	2713.627910
418.553753	2723.407748
418.933121	2746.685276
419.312428	2764.687236
419.691674	2778.285749
420.070859	2816.900987
420.449983	2832.422700
420.829045	2873.132538
421.208047	2900.354769
421.586988	2950.436112
421.965867	2994.737772
422.344686	3051.372614
422.723444	3097.746189
423.102141	3101.078391
423.480777	3222.182030
423.859352	3238.883373
424.237866	3372.431100
424.616319	3429.418824
424.994712	3550.068759
425.373044	3571.516348
425.751314	3720.779872
426.129524	3783.448976
426.507673	3895.975092
426.885762	4014.112011
427.263789	4090.064556
427.641756	4169.641690
428.019662	4294.896719
428.397508	4451.457313
428.775292	4468.335096
429.153016	4686.546482
429.530679	4749.132407
429.908282	4861.517370
430.285824	4876.179566
430.663305	5214.992995
431.040726	5135.315038
431.418086	5233.950254
431.795385	5466.854083
432.172624	5611.207523
432.549802	5691.011509
432.926920	5852.598134
433.303977	5904.854735
433.680974	6105.754798
434.057910	6271.691938
434.434786	6411.425161
434.811601	6467.618903
435.188355	6871.715275
435.565050	6845.702921
435.941683	6922.293171
436.318257	7335.123342
436.694770	7527.685337
437.071222	7707.767955
437.447614	7731.468940
437.823946	7778.460055
438.200218	8005.858944
438.576429	7979.198802
438.952580	8255.673323
439.328670	8415.634175
439.704700	8360.345320
440.080670	8452.452242
440.456580	8983.878078
440.832429	8896.431703
441.208218	8680.715688
441.583947	9036.288434
441.959616	9244.611596
442.335224	9175.235237
442.710773	9390.041323
443.086261	9636.039548
443.461689	9117.929920
443.837057	9725.250327
444.212365	10063.743643
444.587612	9824.215739
444.962800	10111.954718
445.337927	9982.848247
445.712995	9635.333787
446.088002	10699.009686
446.462949	10418.282952
446.837837	10455.093457
447.212664	10521.067038
447.587431	11014.089363
447.962139	11713.544418
448.336786	13860.690309
448.711374	14484.717099
449.085901	12497.262360
449.460369	12165.443532
449.834776	11688.371417
450.209124	12512.756346
450.583412	12932.331581
450.957640	13904.434921
451.331808	13155.775684
451.705917	12157.077737
452.079965	11532.020030
452.453954	12408.722054
452.827883	12065.240517
453.201752	12360.604241
453.575562	11892.868343
453.949311	12321.129486
454.323001	12282.970472
454.696632	12511.634690
455.070202	12805.153352
455.443713	13077.584867
455.817164	13529.315102
456.190556	13545.920663
456.563888	13905.700251
456.937160	14094.783849
457.310373	13427.768619
457.683526	13511.499664
458.056619	13080.279364
458.429653	13202.411398
458.802628	12678.504444
459.175542	13028.935212
459.548398	13977.692969
459.921194	14304.233709
460.293930	14362.718656
460.666607	15260.782569
461.039224	16283.191584
461.411782	16975.268910
461.784280	16898.867703
462.156719	16933.094617
462.529099	16631.447094
462.901419	15556.526901
463.273680	15347.069479
463.645882	15205.897007
464.018024	14953.244458
464.390106	15164.194062
464.762130	15891.798920
465.134094	16628.132536
465.505999	18588.561649
465.877845	21844.496725
466.249631	24681.965620
466.621358	24415.167594
466.993026	22963.111119
467.364634	22413.131317
467.736184	20968.676902
468.107674	20147.966974
468.479105	20291.687750
468.850477	19754.462067
469.221790	19326.364761
469.593043	18657.207041
469.964238	18111.885265
470.335373	17770.014376
470.706449	18186.774126
471.077467	17729.589363
471.448425	19549.995387
471.819324	23526.613817
472.190164	25639.099254
472.560945	22137.140747
472.931667	19727.564990
473.302330	19086.922557
473.672934	18568.916273
474.043479	18941.044167
474.413965	18752.855373
474.784393	18380.959372
475.154761	19059.556653
475.525070	19067.688034
475.895321	18711.870793
476.265513	19291.394277
476.635645	19870.832062
477.005719	19663.512089
477.375734	19858.582058
477.745691	20333.345324
478.115588	20848.329437
478.485427	21357.377590
478.855207	22415.714908
479.224928	24160.153265
479.594591	26383.690280
479.964194	26458.019573
480.333739	26666.342735
480.703226	26228.387453
481.072653	25893.740537
481.442022	26441.227489
481.811333	27355.851593
482.180584	27289.772148
482.549777	26346.738622
482.918912	25988.118499
483.287988	26094.716218
483.657005	25792.723376
484.025964	25511.041343
484.394864	25445.894512
484.763706	25145.686239
485.132489	24559.142948
485.501213	24730.935388
485.869879	24658.746065
486.238487	24448.129178
486.607036	24610.076245
486.975527	24297.025633
487.343959	24622.979079
487.712333	24573.709362
488.080648	24238.366767
488.448905	24716.827719
488.817104	24473.309742
489.185244	25130.431707
489.553326	25110.085610
489.921350	26083.096358
490.289315	28344.391615
490.657222	30166.509111
491.025070	30639.787758
491.392861	30441.642685
491.760593	29596.520969
492.128267	28708.693119
492.495883	27646.559812
492.863440	26786.584336
493.230939	25911.916417
493.598380	25756.346410
493.965763	25356.192220
494.333088	24903.226903
494.700354	24832.257539
495.067563	24721.231167
495.434713	24463.083761
495.801805	24623.052175
496.168839	24434.109729
496.535815	24265.611682
496.902733	24480.206040
497.269593	24137.072342
497.636395	24338.239586
498.003139	24313.747140
498.369825	24067.302772
498.736453	24254.528706
499.103023	24138.635099
499.469535	24147.898220
499.835989	24361.496949
500.202385	24391.890066
500.568723	23892.594024
500.935003	24147.154649
501.301226	23745.341920
501.667390	24578.107768
502.033497	24824.763864
502.399546	24550.353696
502.765537	24133.576302
503.131470	24507.476162
503.497345	24643.655371
503.863163	23862.642009
504.228923	24466.632733
504.594625	24665.574308
504.960269	24184.406256
505.325856	24686.764798
505.691385	24072.936262
506.056856	24688.672875
506.422270	24657.044676
506.787625	24249.570731
507.152924	24651.441433
507.518164	24681.718603
507.883347	24486.053778
508.248472	24174.649103
508.613540	24950.742299
508.978550	24736.888991
509.343503	24728.215686
509.708398	24988.674461
510.073236	25150.510623
510.438016	25360.078950
510.802738	25037.074579
511.167403	25290.785770
511.532010	24985.344779
511.896561	25779.752487
512.261053	25732.932771
512.625488	25570.743728
512.989866	25469.126669
513.354186	25308.870909
513.718449	25402.026391
514.082655	25789.091225
514.446803	25530.674117
514.810894	25987.558931
515.174927	25472.443749
515.538904	25506.829459
515.902822	25994.188048
516.266684	25745.177733
516.630488	25646.393803
516.994235	25642.048329
517.357925	25936.597907
517.721558	26121.613294
518.085133	26203.973145
518.448651	26119.367460
518.812112	25853.461718
519.175516	26052.012603
519.538863	26211.423970
519.902152	25986.512892
520.265385	26281.170854
520.628560	26062.160446
520.991678	26070.927013
521.354739	26157.826423
521.717743	26222.741361
522.080690	26007.325295
522.443580	26344.155031
522.806413	26339.834762
523.169189	26429.975634
523.531908	26474.869629
523.894569	26091.812513
524.257174	26154.471535
524.619722	26345.518663
524.982213	26035.487701
525.344647	26108.299607
525.707025	26221.546607
526.069345	26223.923511
526.431608	26167.250860
526.793815	26367.697219
527.155964	25813.581150
527.518057	25987.606822
527.880093	25908.329637
528.242072	26142.962581
528.603995	25855.977254
528.965860	25646.870192
529.327669	25691.481883
529.689421	25694.614960
530.051117	25530.880804
530.412755	25697.274169
530.774337	25496.091801
531.135862	25361.596337
531.497331	25570.453862
531.858743	25114.657937
532.220098	25600.531906
532.581396	25280.337978
532.942638	25228.232612
533.303824	25318.484390
533.664953	25327.886142
534.026025	24998.897921
534.387040	25235.819549
534.747999	25294.385154
535.108902	25455.939011
535.469748	24945.759118
535.830537	25125.849298
536.191270	25254.570121
536.551947	25137.159127
536.912567	24773.878457
537.273131	25119.414265
537.633638	24832.345760
537.994089	25039.222111
538.354483	24567.816253
538.714821	25084.083339
539.075103	25121.070284
539.435328	24905.896194
539.795497	24457.354490
540.155609	24855.242680
540.515665	25160.224926
540.875665	24390.662545
541.235609	24683.843450
541.595496	24641.991790
541.955328	25005.844631
542.315102	24928.657004
542.674821	24477.935000
543.034483	24341.286963
543.394090	24507.435832
543.753640	24312.708662
544.113134	24934.116573
544.472571	24545.113416
544.831953	24836.633261
545.191278	24446.548776
545.550548	24379.125864
545.909761	24576.262706
546.268918	24804.634537
546.628019	24765.008547
546.987064	24467.804802
547.346053	24233.769234
547.704986	24351.487738
548.063863	24510.314331
548.422684	24515.718448
548.781449	24058.374889
549.140158	24454.470950
549.498811	24031.470251
549.857408	23765.597277
550.215949	24209.410379
550.574434	23884.540781
550.932864	24104.622434
551.291237	24255.216823
551.649555	24118.581389
552.007817	24176.083311
552.366022	24040.279667
552.724173	24083.333642
553.082267	24016.160267
553.440305	24510.001780
553.798288	23764.326906
554.156215	24272.916314
554.514086	24371.102868
554.871902	23745.924174
555.229661	24033.161558
555.587365	23888.525813
555.945014	23749.563887
556.302606	24012.928887
556.660143	23946.615029
557.017625	24208.560944
557.375050	23724.567325
557.732421	24119.987871
558.089735	23938.614718
558.446994	23994.778213
558.804197	24019.588251
559.161345	23965.753769
559.518437	23727.723088
559.875474	23916.209309
560.232455	24097.257309
560.589381	23920.007819
560.946251	23897.204159
561.303065	24221.143664
561.659825	24314.152953
562.016528	23920.648045
562.373177	23648.566890
562.729770	24010.967878
563.086307	23879.509709
563.442789	24035.664491
563.799216	23876.069122
564.155587	23875.769173
564.511904	23869.384552
564.868164	23801.959119
565.224370	23775.198154
565.580520	23680.495038
565.936615	23817.654752
566.292654	23501.324868
566.648638	23796.398727
567.004567	23624.245843
567.360441	23570.585281
567.716260	23304.538387
568.072023	23627.484785
568.427732	23392.128435
568.783385	23170.171472
569.138982	23410.014449
569.494525	23439.129633
569.850013	23187.399616
570.205445	23287.380820
570.560823	23082.828441
570.916145	22847.222554
571.271412	23029.122508
571.626625	22783.446917
571.981782	22889.404409
572.336884	22705.414896
572.691931	22848.873532
573.046923	22569.623856
573.401860	22462.421199
573.756743	22467.810192
574.111570	22364.123740
574.466342	22304.219709
574.821059	22384.674003
575.175722	22090.492430
575.530330	22084.669897
575.884882	22105.134461
576.239380	22005.004543
576.593823	21897.844735
576.948211	21871.852546
577.302544	21728.146894
577.656823	21589.288311
578.011047	21696.231349
578.365216	21558.446532
578.719330	21438.772060
579.073389	21333.966472
579.427394	21489.236531
579.781344	21247.992114
580.135239	21135.894496
580.489080	21111.659149
580.842866	20878.175588
581.196597	21064.738610
581.550273	21040.684744
581.903895	20928.801376
582.257463	21248.342474
582.610975	20776.805546
582.964434	21085.908935
583.317837	20794.953700
583.671186	20878.460413
584.024481	20846.043273
584.377721	20626.158225
584.730906	20682.641833
585.084037	20707.318281
585.437113	20610.588621
585.790135	20810.898869
586.143103	20276.498753
586.496016	20297.689243
586.848874	20535.364524
587.201679	20459.069181
587.554428	20145.910183
587.907124	20479.722788
588.259765	20249.926831
588.612352	20328.450364
588.964884	19889.065915
589.317362	20074.847558
589.669786	20113.934144
590.022155	20146.411778
590.374470	20356.920280
590.726731	20141.310130
591.078937	19909.137269
591.431090	20006.560088
591.783188	19744.956971
592.135232	19718.858918
592.487222	19821.610236
592.839157	19842.417598
593.191038	19722.982581
593.542866	19611.600808
593.894639	19329.379371
594.246358	19552.755419
594.598022	19447.642320
594.949633	19201.825576
595.301190	19172.405402
595.652692	19337.939251
596.004141	19574.911290
596.355535	18903.137211
596.706876	18911.253468
597.058162	18803.554258
597.409395	19031.449700
597.760573	19113.570096
598.111698	18890.221775
598.462768	18827.955963
598.813785	18789.602864
599.164748	18601.303165
599.515657	18642.769176
599.866511	18439.033464
600.217312	18792.650242
600.568060	18329.887442
600.918753	18635.341036
601.269392	18531.049645
601.619978	18313.765832
601.970510	18520.390126
602.320988	18469.325758
602.671412	18678.994908
603.021783	18582.298015
603.372100	18309.362384
603.722363	18459.344273
604.072572	18384.180669
604.422728	18538.518115
604.772830	18289.149878
605.122878	18249.158405
605.472872	18231.201815
605.822813	18213.371253
606.172701	18188.268828
606.522534	18384.783087
606.872314	18412.683353
607.222041	18243.577847
607.571714	18460.183625
607.921333	18285.968910
608.270899	18365.420015
608.620411	18533.469399
608.969870	18311.023445
609.319276	18320.399991
609.668627	18338.853134
610.017926	18484.786977
610.367171	18597.222351
610.716362	18644.130288
611.065500	18452.203479
611.414585	18591.389736
611.763616	18574.433815
612.112594	18514.171862
612.461518	18483.521647
612.810389	18685.787863
613.159207	18536.995686
613.507971	18449.040155
613.856682	18725.585252
614.205340	18644.710021
614.553945	18801.280697
614.902496	18539.687662
615.250994	18775.550648
615.599439	18713.907419
615.947830	18703.308393
616.296169	18755.242360
616.644454	18713.120999
616.992686	18683.279889
617.340864	18903.129649
617.688990	18653.660589
618.037063	18840.579012
618.385082	18677.570782
618.733048	18967.323702
619.080961	18836.452828
619.428821	18875.766266
619.776628	18746.092666
620.124382	18678.072377
620.472083	18726.883349
620.819731	18740.829701
621.167326	18439.729143
621.514868	18468.930027
621.862357	18237.669615
622.209793	18252.117562
622.557176	18081.479545
622.904506	17917.730266
623.251783	17829.638623
623.599007	17578.604285
623.946179	17533.745577
624.293297	17473.536556
624.640363	17226.666211
624.987376	17238.785145
625.334336	17036.523970
625.681243	16881.972276
626.028097	16884.354221
626.374899	16822.746280
626.721647	16677.198086
627.068343	16512.533837
627.414987	16448.352387
627.761577	16417.639157
628.108115	16457.106350
628.454600	16192.654981
628.801032	16285.369362
629.147412	16216.108949
629.493739	16230.370374
629.840014	16038.088163
630.186236	16140.768905
630.532405	15907.116466
630.878521	16103.824809
631.224585	15998.131978
631.570597	15820.738815
631.916556	15852.916500
632.262462	15834.697770
632.608316	15741.685961
632.954117	15683.800912
633.299866	15683.770665
633.645562	15601.894765
633.991206	15356.677918
634.336797	15228.345265
634.682336	15198.045410
635.027823	15088.186064
635.373257	14961.096055
635.718639	14869.175656
636.063968	14818.633048
636.409245	14568.233895
