Dividing Wavelength (nm)	Counts (n)	Blue Motor Position (mm): 17.400000	Red Motor Position (mm): 0.000000	
326.493990	2178.731240
326.888308	2178.731240
327.282561	2178.731240
327.676750	2139.412760
328.070874	2133.643160
328.464933	2134.222892
328.858929	2139.576598
329.252859	2142.412247
329.646726	2152.852476
330.040528	2165.102480
330.434265	2174.496670
330.827938	2195.450226
331.221547	2212.761549
331.615091	2229.563714
332.008571	2247.527866
332.401986	2266.054107
332.795338	2284.610594
333.188625	2301.851340
333.581847	2322.401604
333.975006	2342.213338
334.368100	2361.604137
334.761129	2377.854296
335.154095	2395.044631
335.546996	2417.016500
335.939833	2444.127825
336.332606	2459.929322
336.725315	2474.326857
337.117960	2485.104844
337.510540	2495.620691
337.903056	2507.961436
338.295508	2517.826974
338.687896	2527.863911
339.080220	2534.235929
339.472480	2540.252547
339.864676	2545.621375
340.256807	2549.490461
340.648875	2557.919270
341.040879	2555.428940
341.432818	2559.930691
341.824694	2564.213151
342.216506	2565.647359
342.608253	2566.998388
342.999937	2564.772719
343.391557	2568.225909
343.783113	2564.918912
344.174605	2562.589899
344.566033	2562.032852
344.957397	2565.715415
345.348697	2558.020093
345.739934	2557.405072
346.131106	2557.130330
346.522215	2557.810885
346.913260	2551.590102
347.304241	2552.517674
347.695159	2548.545245
348.086012	2549.354350
348.476802	2543.526776
348.867528	2542.223638
349.258191	2541.807743
349.648789	2539.418236
350.039324	2536.259953
350.429796	2538.737680
350.820203	2540.434028
351.210548	2536.743903
351.600828	2534.677030
351.991045	2534.608975
352.381198	2534.306506
352.771288	2531.032276
353.161314	2531.508665
353.551276	2531.269210
353.941175	2529.860208
354.331010	2527.972296
354.720782	2531.400280
355.110490	2531.680064
355.500135	2528.282327
355.889717	2530.049251
356.279235	2531.692667
356.668689	2531.806093
357.058080	2530.278624
357.447408	2530.780218
357.836672	2530.921371
358.225873	2527.937008
358.615010	2530.608819
359.004084	2533.492359
359.393095	2531.866587
359.782043	2531.974972
360.170927	2532.874818
360.559748	2535.828934
360.948505	2533.283151
361.337199	2533.724252
361.725830	2535.644932
362.114398	2536.786753
362.502903	2536.141486
362.891344	2537.003523
363.279722	2536.955632
363.668037	2537.933616
364.056289	2536.529654
364.444478	2540.313040
364.832603	2537.371527
365.220665	2541.442259
365.608665	2541.348997
365.996601	2540.605427
366.384474	2541.258257
366.772284	2543.133566
367.160031	2543.156251
367.547715	2541.941333
367.935336	2544.655994
368.322893	2541.104502
368.710388	2539.604758
369.097820	2539.430838
369.485189	2542.387475
369.872495	2542.513504
370.259738	2541.938813
370.646918	2547.143804
371.034035	2543.995603
371.421090	2543.904863
371.808081	2545.034081
372.195010	2541.802701
372.581875	2545.238248
372.968678	2545.666746
373.355418	2544.373690
373.742096	2543.889739
374.128710	2543.884698
374.515262	2549.152704
374.901751	2548.336037
375.288177	2549.835780
375.674540	2547.960471
376.060841	2547.605069
376.447079	2549.629093
376.833254	2549.714792
377.219367	2548.845193
377.605417	2547.650440
377.991404	2547.363094
378.377329	2550.970040
378.763191	2549.969371
379.148991	2550.428116
379.534727	2552.235369
379.920402	2548.706562
380.306013	2550.715461
380.691563	2549.775286
381.077049	2548.905687
381.462474	2550.438198
381.847835	2550.803682
382.233134	2552.580688
382.618371	2549.112374
383.003545	2551.247303
383.388657	2549.256047
383.773706	2554.455997
384.158693	2552.600853
384.543618	2554.024979
384.928480	2552.749567
385.313280	2550.995245
385.698017	2555.486913
386.082692	2553.241079
386.467305	2551.965668
386.851856	2556.185113
387.236344	2553.404917
387.620770	2554.604712
388.005133	2548.449463
388.389435	2554.254351
388.773674	2549.039278
389.157851	2554.589588
389.541965	2555.655792
389.926018	2555.446584
390.310008	2558.088149
390.693936	2557.639486
391.077802	2557.901626
391.461606	2557.100083
391.845348	2557.067315
392.229027	2557.750392
392.612645	2555.575134
392.996200	2557.634445
393.379694	2558.045299
393.763125	2559.184600
394.146494	2559.403890
394.529801	2559.658468
394.913047	2557.667212
395.296230	2556.895916
395.679351	2561.710218
396.062410	2557.878941
396.445408	2559.315670
396.828343	2562.965465
397.211217	2560.543191
397.594028	2562.448747
397.976778	2559.514795
398.359466	2562.519323
398.742092	2558.451112
399.124656	2562.617626
399.507158	2562.620146
399.889598	2561.122923
400.271977	2564.497976
400.654294	2561.526216
401.036549	2561.679971
401.418742	2562.410938
401.800874	2561.806000
402.182944	2562.635270
402.564952	2562.670558
402.946898	2563.507389
403.328783	2564.056875
403.710606	2565.077709
404.092367	2565.307081
404.474067	2562.368088
404.855705	2563.593089
405.237282	2565.049982
405.618797	2563.197358
406.000250	2563.726679
406.381642	2564.220712
406.762972	2564.601320
407.144240	2563.154508
407.525447	2562.577296
407.906593	2562.927657
408.287677	2567.873028
408.668700	2563.351113
409.049661	2566.027966
409.430560	2566.585014
409.811399	2566.779098
410.192176	2566.070816
410.572891	2568.167936
410.953545	2565.107956
411.334138	2568.102401
411.714669	2567.888152
412.095139	2567.744479
412.475547	2568.916547
412.855894	2567.152143
413.236180	2569.609706
413.616405	2566.920250
413.996568	2567.290775
414.376670	2568.601475
414.756711	2568.505693
415.136691	2569.120714
415.516609	2570.325550
415.896466	2569.304716
416.276262	2565.377657
416.655997	2571.164902
417.035670	2570.597772
417.415283	2571.326219
417.794834	2570.708677
418.174324	2569.879408
418.553753	2571.636250
418.933121	2572.526013
419.312428	2570.527196
419.691674	2570.081054
420.070859	2572.427711
420.449983	2569.385375
420.829045	2568.974521
421.208047	2570.711198
421.586988	2572.626837
421.965867	2570.625498
422.344686	2570.421332
422.723444	2572.697413
423.102141	2571.792526
423.480777	2572.757907
423.859352	2571.658935
424.237866	2572.805797
424.616319	2574.333267
424.994712	2572.846127
425.373044	2570.960735
425.751314	2569.188770
426.129524	2569.937381
426.507673	2569.473595
426.885762	2569.584500
427.263789	2571.449727
427.641756	2573.168761
428.019662	2576.001889
428.397508	2570.703636
428.775292	2573.567012
429.153016	2571.001064
429.530679	2573.682958
429.908282	2574.865109
430.285824	2572.286559
430.663305	2577.670511
431.040726	2572.369738
431.418086	2573.330077
431.795385	2576.707651
432.172624	2575.364183
432.549802	2575.323854
432.926920	2575.432239
433.303977	2576.768144
433.680974	2573.725808
434.057910	2575.089440
434.434786	2575.742270
434.811601	2577.431056
435.188355	2575.205387
435.565050	2574.708833
435.941683	2576.659760
436.318257	2575.217990
436.694770	2577.118505
437.071222	2577.184040
437.447614	2577.158834
437.823946	2576.574060
438.200218	2576.662280
438.576429	2578.560275
438.952580	2577.698237
439.328670	2578.096488
439.704700	2578.661098
440.080670	2575.177660
440.456580	2578.096488
440.832429	2579.031622
441.208218	2579.704617
441.583947	2580.816191
441.959616	2579.669328
442.335224	2577.683114
442.710773	2581.189236
443.086261	2577.254616
443.461689	2582.951120
443.837057	2580.203691
444.212365	2580.107909
444.587612	2575.820407
444.962800	2576.090109
445.337927	2576.982393
445.712995	2572.863771
446.088002	2578.887950
446.462949	2579.419791
446.837837	2579.356777
447.212664	2581.368197
447.587431	2582.081521
447.962139	2582.431881
448.336786	2584.362643
448.711374	2582.704103
449.085901	2581.935327
449.460369	2580.022209
449.834776	2583.926583
450.209124	2581.406006
450.583412	2584.307190
450.957640	2583.984556
451.331808	2581.912642
451.705917	2584.004721
452.079965	2580.992631
452.453954	2584.100503
452.827883	2582.041191
453.201752	2582.890626
453.575562	2585.446491
453.949311	2583.125039
454.323001	2582.094123
454.696632	2583.356932
455.070202	2582.925914
455.443713	2584.826429
455.817164	2586.666450
456.190556	2584.619742
456.563888	2587.271388
456.937160	2586.517736
457.310373	2585.171748
457.683526	2583.374577
458.056619	2586.643765
458.429653	2584.518918
458.802628	2587.795668
459.175542	2585.247365
459.548398	2586.719382
459.921194	2588.244331
460.293930	2587.581419
460.666607	2589.171903
461.039224	2587.878847
461.411782	2590.711976
461.784280	2588.370360
462.156719	2590.558221
462.529099	2589.645772
462.901419	2590.152408
463.273680	2586.542942
463.645882	2586.646285
464.018024	2588.272057
464.390106	2585.698548
464.762130	2590.099476
465.134094	2591.977306
465.505999	2592.345310
465.877845	2595.523757
466.249631	2598.114910
466.621358	2594.709611
466.993026	2596.375712
467.364634	2601.840323
467.736184	2594.563417
468.107674	2594.092070
468.479105	2596.400918
468.850477	2596.988212
469.221790	2593.817327
469.593043	2593.104003
469.964238	2596.501741
470.335373	2593.398911
470.706449	2594.069384
471.077467	2593.383787
471.448425	2596.705908
471.819324	2599.793615
472.190164	2600.035590
472.560945	2597.855291
472.931667	2598.876125
473.302330	2597.056268
473.672934	2597.179776
474.043479	2595.790938
474.413965	2597.139447
474.784393	2595.362440
475.154761	2599.632298
475.525070	2595.397728
475.895321	2596.562235
476.265513	2594.949066
476.635645	2599.571804
477.005719	2596.496700
477.375734	2600.244798
477.745691	2600.746393
478.115588	2600.396032
478.485427	2603.327463
478.855207	2600.380909
479.224928	2605.401898
479.594591	2607.410798
479.964194	2608.038422
480.333739	2607.675459
480.703226	2608.096395
481.072653	2607.123452
481.442022	2606.790736
481.811333	2605.767382
482.180584	2605.369131
482.549777	2603.945005
482.918912	2603.909717
483.287988	2608.565222
483.657005	2610.049842
484.025964	2609.240737
484.394864	2609.659153
484.763706	2607.683020
485.132489	2611.433639
485.501213	2608.603031
485.869879	2609.699482
486.238487	2607.403236
486.607036	2609.132352
486.975527	2608.361056
487.343959	2610.133021
487.712333	2609.432301
488.080648	2611.836931
488.448905	2608.252671
488.817104	2611.947837
489.185244	2613.104781
489.553326	2615.015379
489.921350	2615.632920
490.289315	2616.963785
490.657222	2621.029475
491.025070	2622.138529
491.392861	2623.754219
491.760593	2622.715741
492.128267	2621.553755
492.495883	2619.812037
492.863440	2620.943776
493.230939	2621.047119
493.598380	2618.448404
493.965763	2618.203908
494.333088	2619.043261
494.700354	2617.563682
495.067563	2620.752212
495.434713	2621.770525
495.801805	2622.607356
496.168839	2621.548714
496.535815	2621.813375
496.902733	2621.480658
497.269593	2621.936883
497.636395	2624.386884
498.003139	2625.206071
498.369825	2625.934518
498.736453	2628.084570
499.103023	2627.154477
499.469535	2628.714714
499.835989	2629.382667
500.202385	2627.101545
500.568723	2628.059364
500.935003	2631.046248
501.301226	2630.123717
501.667390	2634.307874
502.033497	2640.579070
502.399546	2635.351393
502.765537	2638.154275
503.131470	2642.121663
503.497345	2643.394554
503.863163	2645.312713
504.228923	2647.084679
504.594625	2651.054587
504.960269	2651.382262
505.325856	2655.614311
505.691385	2653.529794
506.056856	2662.187976
506.422270	2662.213182
506.787625	2661.731751
507.152924	2670.609223
507.518164	2670.054696
507.883347	2671.476302
508.248472	2680.056346
508.613540	2681.994669
508.978550	2687.857531
509.343503	2688.898529
509.708398	2696.288861
510.073236	2702.718853
510.438016	2708.818649
510.802738	2709.544575
511.167403	2718.321224
511.532010	2721.948334
511.896561	2735.627505
512.261053	2740.308216
512.625488	2747.925400
512.989866	2752.338930
513.354186	2763.338728
513.718449	2769.922475
514.082655	2784.977881
514.446803	2791.422996
514.810894	2805.447486
515.174927	2809.326654
515.538904	2822.428612
515.902822	2839.883608
516.266684	2851.624455
516.630488	2860.252390
516.994235	2877.740153
517.357925	2892.185579
517.721558	2912.519073
518.085133	2926.843512
518.448651	2947.474434
518.812112	2957.844087
519.175516	2983.158241
519.538863	3001.192969
519.902152	3019.469672
520.265385	3050.500495
520.628560	3065.918864
520.991678	3094.466918
521.354739	3119.811319
521.717743	3146.509270
522.080690	3170.570697
522.443580	3207.620657
522.806413	3232.155953
523.169189	3267.605347
523.531908	3299.533495
523.894569	3321.066783
524.257174	3364.004811
524.619722	3404.659197
524.982213	3427.639296
525.344647	3473.042448
525.707025	3513.472502
526.069345	3557.932959
526.431608	3601.372581
526.793815	3655.527177
527.155964	3673.251873
527.518057	3727.373701
527.880093	3774.228706
528.242072	3820.934996
528.603995	3855.386241
528.965860	3900.799476
529.327669	3965.381698
529.689421	4012.196373
530.051117	4054.002662
530.412755	4129.650216
530.774337	4168.744364
531.135862	4217.058783
531.497331	4289.268271
531.858743	4318.307837
532.220098	4430.627266
532.581396	4446.602682
532.942638	4537.600550
533.303824	4591.813119
533.664953	4668.516795
534.026025	4726.580805
534.387040	4796.211742
534.747999	4894.294952
535.108902	4967.968895
535.469748	5001.371581
535.830537	5106.933342
536.191270	5178.825237
536.551947	5274.087921
536.912567	5284.422287
537.273131	5411.111524
537.633638	5444.108397
537.994089	5585.827834
538.354483	5599.514567
538.714821	5757.945429
539.075103	5873.473552
539.435328	5929.763076
539.795497	5954.936078
540.155609	6107.367967
540.515665	6244.845273
540.875665	6221.492128
541.235609	6346.696746
541.595496	6464.626978
541.955328	6610.911181
542.315102	6693.422266
542.674821	6727.777730
543.034483	6793.179139
543.394090	6900.638895
543.753640	6970.753783
544.113134	7180.861514
544.472571	7229.987558
544.831953	7419.459325
545.191278	7421.637104
545.550548	7533.845627
545.909761	7633.476471
546.268918	7830.363775
546.628019	7914.939213
546.987064	8012.861106
547.346053	8064.164929
547.704986	8175.982763
548.063863	8346.870316
548.422684	8404.626816
548.781449	8452.149773
549.140158	8660.848501
549.498811	8713.389927
549.857408	8718.690700
550.215949	8959.713307
550.574434	8981.523859
550.932864	9169.289196
551.291237	9303.898086
551.649555	9424.414430
552.007817	9556.512826
552.366022	9648.526486
552.724173	9746.942412
553.082267	9868.961020
553.440305	10136.124530
553.798288	10022.852324
554.156215	10316.645729
554.514086	10469.057454
554.871902	10375.029852
555.229661	10586.521379
555.587365	10684.788591
555.945014	10729.952289
556.302606	10973.142591
556.660143	11042.458457
557.017625	11287.990375
557.375050	11251.973852
557.732421	11489.500418
558.089735	11575.169787
558.446994	11691.539782
558.804197	11852.337466
559.161345	11981.955614
559.518437	11938.158069
559.875474	12207.020448
560.232455	12359.306144
560.589381	12457.785084
560.946251	12525.097091
561.303065	12845.800175
561.659825	13017.164118
562.016528	12951.349334
562.373177	12974.987304
562.729770	13230.460378
563.086307	13353.242721
563.442789	13543.382442
563.799216	13589.559411
564.155587	13683.501313
564.511904	13838.310106
564.868164	13885.018917
565.224370	14048.012024
565.580520	14070.755189
565.936615	14298.431341
566.292654	14222.488879
566.648638	14562.542432
567.004567	14541.480492
567.360441	14636.314678
567.716260	14598.080046
568.072023	14942.257263
568.427732	14900.027518
568.783385	14882.822060
569.138982	15113.341422
569.494525	15291.808351
569.850013	15277.143634
570.205445	15418.895839
570.560823	15395.577982
570.916145	15404.457974
571.271412	15574.312092
571.626625	15576.608337
571.981782	15713.349635
572.336884	15683.548854
572.691931	15890.062242
573.046923	15790.002900
573.401860	15865.032913
573.756743	15984.992210
574.111570	16018.107550
574.466342	16067.772998
574.821059	16240.974441
575.175722	16124.480937
575.530330	16252.485916
575.884882	16343.047724
576.239380	16397.013276
576.593823	16404.537198
576.948211	16459.374869
577.302544	16438.761591
577.656823	16443.202848
578.011047	16620.850589
578.365216	16597.552896
578.719330	16594.198008
579.073389	16601.268227
579.427394	16818.370558
579.781344	16702.129112
580.135239	16737.245790
580.489080	16766.141684
580.842866	16640.821120
581.196597	16902.799803
581.550273	16913.585352
581.903895	16962.718957
582.257463	17261.238444
582.610975	16973.249928
582.964434	17273.286802
583.317837	17123.277187
583.671186	17261.863547
584.024481	17312.433882
584.377721	17177.908171
584.730906	17295.974515
585.084037	17413.589675
585.437113	17387.373155
585.790135	17614.585520
586.143103	17247.949963
586.496016	17293.801778
586.848874	17605.370291
587.201679	17606.804499
587.554428	17356.581787
587.907124	17709.465077
588.259765	17568.408551
588.612352	17716.724338
588.964884	17383.554481
589.317362	17600.119929
589.669786	17674.910488
590.022155	17795.643602
590.374470	17995.999220
590.726731	17894.621616
591.078937	17701.739508
591.431090	17856.596193
591.783188	17659.466913
592.135232	17686.419442
592.487222	17846.876848
592.839157	17909.918998
593.191038	17854.451182
593.542866	17794.884908
593.894639	17602.910208
594.246358	17838.861414
594.598022	17784.232950
594.949633	17606.991022
595.301190	17605.919777
595.652692	17794.229558
596.004141	18070.099141
596.355535	17475.696691
596.706876	17521.316612
597.058162	17456.283207
597.409395	17700.239765
597.760573	17839.196650
598.111698	17657.132859
598.462768	17623.094988
598.813785	17608.929346
599.164748	17476.828430
599.515657	17540.644396
599.866511	17364.738374
600.217312	17730.353098
600.568060	17318.684913
600.918753	17642.702556
601.269392	17576.605467
601.619978	17374.591309
601.970510	17618.124410
602.320988	17585.213237
602.671412	17809.249676
603.021783	17731.079024
603.372100	17506.782966
603.722363	17649.848391
604.072572	17616.115510
604.422728	17755.034587
604.772830	17559.437818
605.122878	17522.707971
605.472872	17530.824228
605.822813	17548.155715
606.172701	17511.446033
606.522534	17737.670332
606.872314	17758.344104
607.222041	17618.568032
607.571714	17841.054316
607.921333	17686.232919
608.270899	17767.322399
608.620411	17991.661307
608.969870	17745.670644
609.319276	17765.459693
609.668627	17819.140420
610.017926	17961.058983
610.367171	18094.571422
610.716362	18140.307290
611.065500	17967.579715
611.414585	18106.493751
611.763616	18095.887163
612.112594	18047.260193
612.461518	18042.720634
612.810389	18244.873424
613.159207	18093.805167
613.507971	18015.137961
613.856682	18321.110793
614.205340	18248.157736
614.553945	18393.655518
614.902496	18149.714083
615.250994	18416.509589
615.599439	18346.732458
615.947830	18342.797837
616.296169	18380.966934
616.644454	18360.756948
616.992686	18332.269388
617.340864	18536.607518
617.688990	18317.622315
618.037063	18487.337800
618.385082	18347.511316
618.733048	18613.908571
619.080961	18494.334922
619.428821	18540.504329
619.776628	18441.130584
620.124382	18359.244602
620.472083	18397.292710
620.819731	18431.633050
621.167326	18124.276421
621.514868	18171.181837
621.862357	17938.948482
622.209793	17958.608982
622.557176	17808.478379
622.904506	17629.744270
623.251783	17537.160959
623.599007	17330.889546
623.946179	17276.011546
624.293297	17236.360350
624.640363	16990.566291
624.987376	17007.708735
625.334336	16794.782999
625.681243	16644.349928
626.028097	16640.231305
626.374899	16590.066783
626.721647	16470.518340
627.068343	16296.938810
627.414987	16225.394755
627.761577	16207.160901
628.108115	16252.758138
628.454600	15975.789584
628.801032	16066.031279
629.147412	15991.941441
629.493739	16024.540062
629.840014	15829.258365
630.186236	15941.527382
630.532405	15693.903384
630.878521	15890.833539
631.224585	15777.037052
631.570597	15614.727022
631.916556	15645.120138
632.262462	15626.886285
632.608316	15547.157916
632.954117	15485.388658
633.299866	15485.784389
633.645562	15410.678758
633.991206	15163.992415
634.336797	15033.111459
634.682336	14995.476725
635.027823	14900.566921
635.373257	14793.611281
635.718639	14673.195759
636.063968	14633.468946
636.409245	14382.762283
636.754470	14416.704372
637.099642	14260.731072
637.444762	14034.421073
637.789829	14087.930401
638.134845	13938.102267
638.479808	13951.365543
638.824719	13904.089602
639.169577	13755.998146
639.514383	13809.789778
639.859137	13617.184934
640.203839	13698.702912
640.548489	13536.982697
640.893086	13523.333773
