Dividing Wavelength (nm)	Counts (n)	Blue Motor Position (mm): 42.000000	Red Motor Position (mm): 0.000000	
326.493990	2252.563979
326.888308	2252.563979
327.282561	2252.563979
327.676750	2213.268185
328.070874	2211.763400
328.464933	2212.393544
328.858929	2212.638040
329.252859	2220.532487
329.646726	2227.179249
330.040528	2242.262381
330.434265	2254.146901
330.827938	2270.578542
331.221547	2291.050668
331.615091	2308.646815
332.008571	2324.148363
332.401986	2343.561847
332.795338	2363.008098
333.188625	2385.799154
333.581847	2403.843965
333.975006	2422.367684
334.368100	2441.856785
334.761129	2459.667182
335.154095	2475.756024
335.546996	2501.382730
335.939833	2543.768751
336.332606	2558.854404
336.725315	2571.928637
337.117960	2581.945409
337.510540	2597.101638
337.903056	2607.685541
338.295508	2612.492281
338.687896	2623.686163
339.080220	2631.265538
339.472480	2637.481281
339.864676	2642.482105
340.256807	2645.542086
340.648875	2648.902015
341.040879	2652.929897
341.432818	2654.694301
341.824694	2658.878458
342.216506	2662.066988
342.608253	2660.594971
342.999937	2662.364416
343.391557	2662.986999
343.783113	2660.138747
344.174605	2658.013900
344.566033	2660.458860
344.957397	2660.297543
345.348697	2658.195382
345.739934	2655.079949
346.131106	2654.066677
346.522215	2650.457211
346.913260	2652.501399
347.304241	2648.110554
347.695159	2647.495533
348.086012	2644.196098
348.476802	2643.452527
348.867528	2637.325005
349.258191	2638.673514
349.648789	2637.206538
350.039324	2634.590179
350.429796	2636.417597
350.820203	2633.667648
351.210548	2633.133286
351.600828	2632.800569
351.991045	2633.647483
352.381198	2631.525157
352.771288	2628.981895
353.161314	2630.481639
353.551276	2629.917029
353.941175	2629.758233
354.331010	2628.407204
354.720782	2630.484159
355.110490	2629.803603
355.500135	2629.962400
355.889717	2626.156329
356.279235	2628.087091
356.668689	2628.742441
357.058080	2628.089611
357.447408	2630.642956
357.836672	2630.355610
358.225873	2628.029117
358.615010	2629.206227
359.004084	2630.103552
359.393095	2632.218316
359.782043	2635.147227
360.170927	2634.348204
360.559748	2633.826444
360.948505	2635.116980
361.337199	2635.905920
361.725830	2632.692185
362.114398	2636.921713
362.502903	2636.478091
362.891344	2639.011271
363.279722	2636.183184
363.668037	2639.175108
364.056289	2637.745941
364.444478	2640.765592
364.832603	2640.432876
365.220665	2638.434059
365.608665	2641.304996
365.996601	2642.789616
366.384474	2644.770789
366.772284	2644.594349
367.160031	2642.129225
367.547715	2646.222642
367.935336	2645.032929
368.322893	2645.171561
368.710388	2639.306178
369.097820	2642.310706
369.485189	2642.719040
369.872495	2645.743732
370.259738	2649.867396
370.646918	2651.878816
371.034035	2651.528456
371.421090	2649.975781
371.808081	2648.281953
372.195010	2650.532828
372.581875	2649.711120
372.968678	2651.415030
373.355418	2653.857469
373.742096	2652.198929
374.128710	2652.060298
374.515262	2654.522901
374.901751	2653.557520
375.288177	2655.158087
375.674540	2653.905360
376.060841	2656.405772
376.447079	2656.017603
376.833254	2657.890392
377.219367	2655.861328
377.605417	2657.797131
377.991404	2659.553973
378.377329	2659.944662
378.763191	2658.376863
379.148991	2660.539518
379.534727	2661.469611
379.920402	2662.064467
380.306013	2660.375681
380.691563	2664.791732
381.077049	2668.174346
381.462474	2668.002947
381.847835	2670.679799
382.233134	2672.993689
382.618371	2680.850327
383.003545	2687.333251
383.388657	2696.314067
383.773706	2708.427959
384.158693	2723.526215
384.543618	2739.000037
384.928480	2760.024169
385.313280	2786.893519
385.698017	2819.819815
386.082692	2856.650485
386.467305	2886.231976
386.851856	2927.766043
387.236344	2978.112046
387.620770	3016.321472
388.005133	3072.308526
388.389435	3126.526136
388.773674	3166.245387
389.157851	3240.362952
389.541965	3310.903817
389.926018	3340.792818
390.310008	3428.927311
390.693936	3502.865915
391.077802	3567.163311
391.461606	3612.085033
391.845348	3691.117723
392.229027	3775.519241
392.612645	3822.099502
392.996200	3933.640072
393.379694	4021.404040
393.763125	4139.619098
394.146494	4206.076629
394.529801	4300.207574
394.913047	4402.054006
395.296230	4408.594903
395.679351	4542.442578
396.062410	4623.516935
396.445408	4643.207682
396.828343	4737.199996
397.211217	4820.326102
397.594028	4748.648456
397.976778	4884.714239
398.359466	4952.048931
398.742092	5006.727807
399.124656	4938.636942
399.507158	5073.656686
399.889598	5156.215662
400.271977	5295.152383
400.654294	5298.348474
401.036549	5351.900652
401.418742	5285.949756
401.800874	5499.291387
402.182944	5564.483589
402.564952	5679.734448
402.946898	5744.412452
403.328783	5597.609011
403.710606	5611.903202
404.092367	5937.836484
404.474067	5962.036543
404.855705	5871.600763
405.237282	5805.763294
405.618797	6056.727056
406.000250	6046.223812
406.381642	6245.747640
406.762972	6266.106340
407.144240	6332.967163
407.525447	6312.570655
407.906593	6347.316808
408.287677	6497.515466
408.668700	6407.835860
409.049661	6527.601072
409.430560	6555.191307
409.811399	6415.511016
410.192176	6688.393715
410.572891	6692.976124
410.953545	6895.436424
411.334138	6620.900227
411.714669	6800.188863
412.095139	6591.013746
412.475547	6839.106571
412.855894	6907.255409
413.236180	7081.432316
413.616405	6763.615292
413.996568	6981.022614
414.376670	7013.618714
414.756711	6913.950062
415.136691	7007.763414
415.516609	7211.030299
415.896466	7202.480502
416.276262	7397.668938
416.655997	7378.716720
417.035670	7575.939261
417.415283	7910.470231
417.794834	7958.908157
418.174324	7822.829771
418.553753	7739.058397
418.933121	8050.344606
419.312428	8159.326790
419.691674	7932.973941
420.070859	8406.524810
420.449983	8094.789939
420.829045	8454.231770
421.208047	8225.118889
421.586988	8528.508130
421.965867	8550.265750
422.344686	8660.329262
422.723444	8699.645221
423.102141	8062.229126
423.480777	8813.572777
423.859352	8333.738110
424.237866	8958.735323
424.616319	8825.449736
424.994712	9248.306762
425.373044	8799.570973
425.751314	9268.030276
426.129524	9138.815421
426.507673	9248.616793
426.885762	9400.766378
427.263789	9314.696237
427.641756	9244.901462
428.019662	9338.271193
428.397508	9593.726623
428.775292	9269.038507
429.153016	9648.322319
429.530679	9483.438780
429.908282	9511.938943
430.285824	9236.785205
430.663305	9917.177136
431.040726	9373.375268
431.418086	9357.165438
431.795385	9679.083440
432.172624	9774.051217
432.549802	9683.701137
432.926920	9759.104196
433.303977	9636.006781
433.680974	9841.229633
434.057910	9940.608419
434.434786	10003.663172
434.811601	9834.832409
435.188355	10402.398276
435.565050	10132.920877
435.941683	10061.941431
436.318257	10546.386233
436.694770	10699.135715
437.071222	10749.958108
437.447614	10591.610424
437.823946	10500.327731
438.200218	10618.804929
438.576429	10449.447365
438.952580	10691.100116
439.328670	10729.725437
439.704700	10519.216934
440.080670	10513.623774
440.456580	11047.759230
440.832429	10827.395272
441.208218	10421.842007
441.583947	10739.464946
441.959616	10902.379915
442.335224	10704.807013
442.710773	10838.687457
443.086261	11052.613861
443.461689	10324.620834
443.837057	10994.577578
444.212365	11255.006106
444.587612	10888.289890
444.962800	11109.818354
445.337927	10862.693431
445.712995	10495.485703
446.088002	11562.108157
446.462949	11238.796276
446.837837	11203.654392
447.212664	11164.582929
447.587431	11715.661703
447.962139	12450.954321
448.336786	14737.951901
448.711374	15252.699079
449.085901	13086.031321
449.460369	12716.303015
449.834776	12160.364569
450.209124	13068.624216
450.583412	13492.759175
450.957640	14421.921966
451.331808	13508.616124
451.705917	12543.214998
452.079965	11818.891931
452.453954	12730.713153
452.827883	12378.621325
453.201752	12664.905931
453.575562	12191.022346
453.949311	12610.554731
454.323001	12587.330135
454.696632	12819.969303
455.070202	13093.376282
455.443713	13316.454901
455.817164	13800.267039
456.190556	13780.435139
456.563888	14140.630623
456.937160	14292.535712
457.310373	13640.482626
457.683526	13744.373245
458.056619	13280.052729
458.429653	13460.394967
458.802628	12854.662524
459.175542	13247.824633
459.548398	14203.622361
459.921194	14547.446697
460.293930	14609.939361
460.666607	15464.538446
461.039224	16533.779780
461.411782	17238.661637
461.784280	17058.619348
462.156719	17152.349521
462.529099	16824.435066
462.901419	15776.868174
463.273680	15545.995930
463.645882	15433.288333
464.018024	15158.381611
464.390106	15385.072217
464.762130	16104.008811
465.134094	16889.907052
465.505999	18924.718390
465.877845	22180.771933
466.249631	24994.093701
466.621358	24637.684124
466.993026	23214.768040
467.364634	22641.803097
467.736184	21173.435969
468.107674	20366.765654
468.479105	20504.822693
468.850477	19965.315888
469.221790	19571.208562
469.593043	18879.900012
469.964238	18304.321231
470.335373	17953.172098
470.706449	18437.576571
471.077467	18009.383484
471.448425	19868.825683
471.819324	23955.472336
472.190164	25870.442845
472.560945	22244.933219
472.931667	19915.295039
473.302330	19297.088260
473.672934	18890.806548
474.043479	19157.493669
474.413965	18955.295509
474.784393	18569.581705
475.154761	19315.710283
475.525070	19255.203834
475.895321	18956.011353
476.265513	19559.407221
476.635645	20146.200050
477.005719	19909.192722
477.375734	20096.058213
477.745691	20583.366391
478.115588	21116.198708
478.485427	21667.824447
478.855207	22743.238674
479.224928	24533.097826
479.594591	26750.777020
479.964194	26713.603552
480.333739	26946.948481
480.703226	26515.919745
481.072653	26219.893109
481.442022	26822.106827
481.811333	27752.958405
482.180584	27634.894582
482.549777	26682.895363
482.918912	26342.592273
483.287988	26469.147920
483.657005	26118.192871
484.025964	25895.948563
484.394864	25776.253926
484.763706	25436.812873
485.132489	24899.267077
485.501213	25087.342445
485.869879	24995.459854
486.238487	24829.812580
486.607036	24952.405880
486.975527	24693.890469
487.343959	24993.173691
487.712333	24907.688324
488.080648	24573.283384
488.448905	25069.390896
488.817104	24838.042263
489.185244	25524.324783
489.553326	25485.838094
489.921350	26517.346392
490.289315	28851.597227
490.657222	30588.486456
491.025070	31085.839133
491.392861	30844.546824
491.760593	29983.026235
492.128267	29073.854139
492.495883	28027.643316
492.863440	27158.583681
493.230939	26281.682532
493.598380	26121.436854
493.965763	25719.931635
494.333088	25248.283802
494.700354	25208.158738
495.067563	25055.782301
495.434713	24827.221427
495.801805	24989.375181
496.168839	24765.492498
496.535815	24627.886642
496.902733	24842.496123
497.269593	24527.902917
497.636395	24706.662233
498.003139	24651.766588
498.369825	24393.099943
498.736453	24608.359733
499.103023	24464.787671
499.469535	24466.534431
499.835989	24691.069944
500.202385	24719.005498
500.568723	24239.392641
500.935003	24433.005717
501.301226	24111.937149
501.667390	24954.412259
502.033497	25161.056717
502.399546	24898.306737
502.765537	24440.968219
503.131470	24828.154040
503.497345	24972.792306
503.863163	24205.188412
504.228923	24770.626913
504.594625	24994.033208
504.960269	24545.509147
505.325856	25016.539439
505.691385	24423.677061
506.056856	25031.615009
506.422270	25017.716548
506.787625	24545.851945
507.152924	24978.703059
507.518164	25011.377297
507.883347	24825.484749
508.248472	24505.021120
508.613540	25280.143894
508.978550	25082.167700
509.343503	25105.654436
509.708398	25309.967360
510.073236	25473.961136
510.438016	25677.217938
510.802738	25347.181158
511.167403	25609.847958
511.532010	25344.937844
511.896561	26085.843787
512.261053	26058.412348
512.625488	25890.163839
512.989866	25788.887058
513.354186	25611.929955
513.718449	25738.412505
514.082655	26124.038089
514.446803	25843.054256
514.810894	26329.878483
515.174927	25813.334133
515.538904	25838.295407
515.902822	26335.975758
516.266684	26095.986588
516.630488	25985.517264
516.994235	25955.567769
517.357925	26285.508767
517.721558	26438.981655
518.085133	26571.216162
518.448651	26455.035209
518.812112	26203.337960
519.175516	26426.219974
519.538863	26564.826499
519.902152	26364.899379
520.265385	26628.168597
520.628560	26417.108088
520.991678	26418.577585
521.354739	26486.285322
521.717743	26571.284217
522.080690	26338.501377
522.443580	26669.405236
522.806413	26636.985575
523.169189	26756.531497
523.531908	26801.460781
523.894569	26424.077484
524.257174	26507.334660
524.619722	26664.134709
524.982213	26372.950101
525.344647	26401.782981
525.707025	26563.742651
526.069345	26525.893668
526.431608	26494.804872
526.793815	26670.007653
527.155964	26159.023697
527.518057	26321.593347
527.880093	26257.265703
528.242072	26476.936502
528.603995	26188.927821
528.965860	25975.916386
529.327669	26025.012183
529.689421	26015.486923
530.051117	25855.289136
530.412755	26034.494594
530.774337	25816.303373
531.135862	25693.851226
531.497331	25887.250052
531.858743	25476.993390
532.220098	25948.459742
532.581396	25622.042510
532.942638	25530.469950
533.303824	25648.846325
533.664953	25641.055221
534.026025	25303.416381
534.387040	25553.596243
534.747999	25599.193480
535.108902	25769.067762
535.469748	25266.588231
535.830537	25433.223572
536.191270	25561.304168
536.551947	25398.147223
536.912567	25034.054928
537.273131	25450.103875
537.633638	25117.367557
537.994089	25343.506157
538.354483	24848.658933
538.714821	25354.122827
539.075103	25398.880711
539.435328	25174.622462
539.795497	24770.042139
540.155609	25114.030313
540.515665	25433.702481
540.875665	24639.249403
541.235609	24991.326108
541.595496	24923.789770
541.955328	25281.623473
542.315102	25193.733476
542.674821	24718.718152
543.034483	24596.172743
543.394090	24773.051708
543.753640	24569.419340
544.113134	25210.696959
544.472571	24793.589369
544.831953	25090.699853
545.191278	24740.659774
545.550548	24637.946264
545.909761	24822.147505
546.268918	25071.729991
546.628019	25042.241762
546.987064	24729.251643
547.346053	24475.323683
547.704986	24575.168776
548.063863	24725.584203
548.422684	24755.271558
548.781449	24264.580767
549.140158	24678.865310
549.498811	24251.529219
549.857408	24010.173897
550.215949	24409.024948
550.574434	24103.452887
550.932864	24302.086951
551.291237	24482.164528
551.649555	24322.049920
552.007817	24389.427462
552.366022	24229.615323
552.724173	24259.277473
553.082267	24240.781479
553.440305	24719.648245
553.798288	23960.861330
554.156215	24449.492810
554.514086	24581.790331
554.871902	23971.964471
555.229661	24231.740170
555.587365	24082.816923
555.945014	23979.707683
556.302606	24211.071439
556.660143	24176.952910
557.017625	24425.955663
557.375050	23937.389717
557.732421	24321.772657
558.089735	24154.802080
558.446994	24207.280491
558.804197	24235.468103
559.161345	24148.359485
559.518437	23924.975876
559.875474	24100.886939
560.232455	24291.296361
560.589381	24105.103865
560.946251	24103.170582
561.303065	24403.361211
561.659825	24503.102961
562.016528	24099.193112
562.373177	23833.226876
562.729770	24195.217010
563.086307	24045.603126
563.442789	24207.272930
563.799216	24058.039652
564.155587	24052.338107
564.511904	24042.424678
564.868164	23989.883252
565.224370	23953.690288
565.580520	23889.753334
565.936615	24005.223483
566.292654	23710.434451
566.648638	23953.723056
567.004567	23805.084635
567.360441	23733.177616
567.716260	23445.158853
568.072023	23775.503144
568.427732	23552.994175
568.783385	23322.026150
569.138982	23573.514192
569.494525	23607.552062
569.850013	23360.021326
570.205445	23456.544299
570.560823	23274.389766
570.916145	23046.529613
571.271412	23215.251991
571.626625	22971.880206
571.981782	23085.928750
572.336884	22889.033884
572.691931	23023.957846
573.046923	22768.111727
573.401860	22633.525522
573.756743	22658.297752
574.111570	22565.374163
574.466342	22483.674703
574.821059	22572.104103
575.175722	22266.925252
575.530330	22234.253534
575.884882	22262.168924
576.239380	22171.128206
576.593823	22063.116444
576.948211	22028.365250
577.302544	21894.510012
577.656823	21745.501066
578.011047	21857.495340
578.365216	21726.861400
578.719330	21599.284919
579.073389	21481.881488
579.427394	21640.655148
579.781344	21390.001417
580.135239	21290.587343
580.489080	21230.595092
580.842866	21014.793378
581.196597	21217.619162
581.550273	21187.939368
581.903895	21055.162938
582.257463	21373.884849
582.610975	20905.735576
582.964434	21241.458778
583.317837	20922.406672
583.671186	21005.111842
584.024481	20990.492496
584.377721	20751.693038
584.730906	20836.288641
585.084037	20825.596353
585.437113	20748.065928
585.790135	20961.001746
586.143103	20402.467105
586.496016	20420.159035
586.848874	20663.838329
587.201679	20579.388920
587.554428	20276.186202
587.907124	20608.879670
588.259765	20368.129286
588.612352	20450.448808
588.964884	20018.575678
589.317362	20176.368835
589.669786	20247.376007
590.022155	20255.971175
590.374470	20485.227728
590.726731	20245.052035
591.078937	20038.584018
591.431090	20112.409195
591.783188	19888.176152
592.135232	19839.128245
592.487222	19948.748136
592.839157	19951.293918
593.191038	19831.382513
593.542866	19735.482122
593.894639	19428.889228
594.246358	19642.069542
594.598022	19540.991886
594.949633	19303.447676
595.301190	19274.471124
595.652692	19446.709707
596.004141	19658.942283
596.355535	18995.344956
596.706876	19019.275313
597.058162	18910.668695
597.409395	19150.189037
597.760573	19202.261636
598.111698	18978.842739
598.462768	18916.622297
598.813785	18898.990862
599.164748	18688.066464
599.515657	18737.870544
599.866511	18541.457108
600.217312	18900.818280
600.568060	18404.756139
600.918753	18713.567141
601.269392	18625.142782
601.619978	18420.693747
601.970510	18602.913814
602.320988	18550.158139
602.671412	18755.554911
603.021783	18685.765178
603.372100	18393.887411
603.722363	18540.816881
604.072572	18486.387543
604.422728	18636.908835
604.772830	18381.080360
605.122878	18345.872941
605.472872	18326.829983
605.822813	18318.028128
606.172701	18296.832597
606.522534	18467.319378
606.872314	18505.362446
607.222041	18344.075770
607.571714	18563.010561
607.921333	18384.069764
608.270899	18459.097257
608.620411	18621.513151
608.969870	18414.185617
609.319276	18394.905724
609.668627	18425.931505
610.017926	18563.466785
610.367171	18674.775462
610.716362	18726.308657
611.065500	18533.182053
611.414585	18693.238688
611.763616	18670.719854
612.112594	18606.119988
612.461518	18578.580164
612.810389	18761.170757
613.159207	18628.966497
613.507971	18538.392086
613.856682	18785.562380
614.205340	18719.061999
614.553945	18870.359628
614.902496	18611.408158
615.250994	18829.949739
615.599439	18778.245145
615.947830	18764.729811
616.296169	18836.195729
616.644454	18804.794382
616.992686	18764.845758
617.340864	18990.439913
617.688990	18735.854082
618.037063	18912.750691
618.385082	18767.126880
618.733048	19044.231545
619.080961	18918.616074
619.428821	18946.788562
619.776628	18828.041663
620.124382	18764.291231
620.472083	18816.250404
620.819731	18815.995825
621.167326	18516.032048
621.514868	18568.477692
621.862357	18340.957816
622.209793	18336.070418
622.557176	18175.544956
622.904506	18005.038009
623.251783	17926.138910
623.599007	17674.512237
623.946179	17612.203575
624.293297	17550.204944
624.640363	17285.284748
624.987376	17321.248340
625.334336	17111.236391
625.681243	16955.005992
626.028097	16978.742265
626.374899	16894.726395
626.721647	16755.260353
627.068343	16588.375476
627.414987	16526.742329
627.761577	16500.367012
628.108115	16536.610387
628.454600	16254.845176
628.801032	16361.763007
629.147412	16288.038653
629.493739	16301.785880
629.840014	16110.521982
630.186236	16208.585027
630.532405	15974.667927
630.878521	16176.850964
631.224585	16074.366827
631.570597	15893.701955
631.916556	15919.570636
632.262462	15894.379990
632.608316	15821.157231
632.954117	15757.668939
633.299866	15757.106851
633.645562	15667.709549
633.991206	15434.543581
634.336797	15297.779597
634.682336	15270.048210
635.027823	15142.345701
635.373257	15017.025137
635.718639	14925.497947
636.063968	14869.258835
