Dividing Wavelength (nm)	Counts (n)	Blue Motor Position (mm): 5.300000	Red Motor Position (mm): 0.000000	
326.493990	2159.340441
326.888308	2159.340441
327.282561	2159.340441
327.676750	2119.696808
328.070874	2116.291508
328.464933	2113.733123
328.858929	2121.236880
329.252859	2122.988681
329.646726	2132.461009
330.040528	2144.564819
330.434265	2158.710297
330.827938	2177.223935
331.221547	2194.764629
331.615091	2210.135108
332.008571	2227.572459
332.401986	2247.742115
332.795338	2267.142996
333.188625	2286.236366
333.581847	2303.562812
333.975006	2321.232056
334.368100	2341.449603
334.761129	2354.657427
335.154095	2372.303986
335.546996	2392.082953
335.939833	2407.100550
336.332606	2417.455080
336.725315	2436.132555
337.117960	2447.084462
337.510540	2458.532922
337.903056	2469.426856
338.295508	2478.412712
338.687896	2487.111223
339.080220	2496.444920
339.472480	2505.365241
339.864676	2504.450272
340.256807	2511.160048
340.648875	2513.829339
341.040879	2517.975688
341.432818	2520.428209
341.824694	2522.709331
342.216506	2526.359127
342.608253	2524.748478
342.999937	2525.232429
343.391557	2525.751667
343.783113	2529.378778
344.174605	2523.707480
344.566033	2525.003056
344.957397	2524.390556
345.348697	2520.410565
345.739934	2519.314114
346.131106	2518.033661
346.522215	2518.230266
346.913260	2515.034174
347.304241	2511.810357
347.695159	2512.957219
348.086012	2512.024606
348.476802	2507.139728
348.867528	2502.151506
349.258191	2501.521362
349.648789	2500.306443
350.039324	2495.056082
350.429796	2498.100939
350.820203	2499.273007
351.210548	2495.381236
351.600828	2497.354848
351.991045	2496.689416
352.381198	2493.851246
352.771288	2494.052892
353.161314	2492.031389
353.551276	2495.051041
353.941175	2493.314363
354.331010	2491.139105
354.720782	2489.654485
355.110490	2494.567090
355.500135	2488.716831
355.889717	2491.890237
356.279235	2492.996770
356.668689	2491.786893
357.058080	2491.063488
357.447408	2491.209681
357.836672	2490.937459
358.225873	2493.337048
358.615010	2492.792604
359.004084	2494.002481
359.393095	2493.712614
359.782043	2496.155053
360.170927	2495.724035
360.559748	2496.155053
360.948505	2497.430465
361.337199	2494.337717
361.725830	2497.145640
362.114398	2496.878459
362.502903	2499.663696
362.891344	2498.022801
363.279722	2500.243429
363.668037	2498.111021
364.056289	2503.575632
364.444478	2499.572956
364.832603	2500.445075
365.220665	2502.383399
365.608665	2500.845847
365.996601	2502.612771
366.384474	2502.189314
366.772284	2501.919613
367.160031	2503.396671
367.547715	2505.100581
367.935336	2504.246105
368.322893	2502.358193
368.710388	2498.005157
369.097820	2501.256701
369.485189	2498.491628
369.872495	2505.181239
370.259738	2504.951867
370.646918	2505.264418
371.034035	2506.474295
371.421090	2506.970849
371.808081	2506.297855
372.195010	2508.160561
372.581875	2506.680982
372.968678	2508.392454
373.355418	2510.071158
373.742096	2507.578308
374.128710	2508.687362
374.515262	2506.068482
374.901751	2507.043946
375.288177	2509.400685
375.674540	2507.321209
376.060841	2509.206601
376.447079	2509.574605
376.833254	2510.655932
377.219367	2509.569564
377.605417	2509.582167
377.991404	2511.044101
378.377329	2509.655263
378.763191	2512.001920
379.148991	2510.527383
379.534727	2508.460510
379.920402	2510.688700
380.306013	2511.049142
380.691563	2512.987466
381.077049	2512.624503
381.462474	2512.251457
381.847835	2510.292969
382.233134	2510.978566
382.618371	2513.385717
383.003545	2512.334637
383.388657	2513.131139
383.773706	2511.676766
384.158693	2512.816067
384.543618	2515.964267
384.928480	2516.521315
385.313280	2513.022754
385.698017	2514.850172
386.082692	2515.558454
386.467305	2514.366222
386.851856	2515.535769
387.236344	2514.693897
387.620770	2514.262878
388.005133	2509.380520
388.389435	2513.027795
388.773674	2508.420181
389.157851	2516.498630
389.541965	2517.002745
389.926018	2517.418640
390.310008	2517.428722
390.693936	2518.114319
391.077802	2519.382170
391.461606	2519.649351
391.845348	2516.312107
392.229027	2516.468383
392.612645	2518.653723
392.996200	2516.760770
393.379694	2518.666326
393.763125	2519.624145
394.146494	2518.494927
394.529801	2519.598939
394.913047	2517.902591
395.296230	2519.664474
395.679351	2518.275636
396.062410	2518.749505
396.445408	2520.919722
396.828343	2521.491893
397.211217	2518.656243
397.594028	2522.321162
397.976778	2522.323683
398.359466	2520.677746
398.742092	2520.468538
399.124656	2520.720596
399.507158	2521.764115
399.889598	2523.029444
400.271977	2520.191275
400.654294	2523.500792
401.036549	2519.893847
401.418742	2522.890813
401.800874	2522.618590
402.182944	2520.276974
402.564952	2524.393077
402.946898	2524.700587
403.328783	2522.721934
403.710606	2523.183200
404.092367	2524.289733
404.474067	2524.856863
404.855705	2524.957686
405.237282	2522.311080
405.618797	2524.330062
406.000250	2523.551204
406.381642	2526.258303
406.762972	2519.543487
407.144240	2521.653209
407.525447	2521.882582
407.906593	2519.702283
408.287677	2525.779394
408.668700	2523.783097
409.049661	2524.123375
409.430560	2524.226718
409.811399	2526.775022
410.192176	2527.130423
410.572891	2525.809641
410.953545	2527.321987
411.334138	2527.054806
411.714669	2526.414579
412.095139	2527.957172
412.475547	2526.225536
412.855894	2528.166380
413.236180	2528.834333
413.616405	2525.161853
413.996568	2528.413397
414.376670	2528.788963
414.756711	2525.497089
415.136691	2527.173273
415.516609	2526.694363
415.896466	2527.069929
416.276262	2528.272244
416.655997	2530.893644
417.035670	2528.153777
417.415283	2531.279293
417.794834	2527.442975
418.174324	2529.149405
418.553753	2528.287368
418.933121	2529.146885
419.312428	2530.737369
419.691674	2528.794004
420.070859	2527.821061
420.449983	2531.274252
420.829045	2532.295085
421.208047	2529.562780
421.586988	2528.718387
421.965867	2533.230219
422.344686	2530.467667
422.723444	2530.760054
423.102141	2532.078316
423.480777	2533.739376
423.859352	2531.337266
424.237866	2531.692667
424.616319	2531.264169
424.994712	2530.185362
425.373044	2530.961700
425.751314	2530.485311
426.129524	2527.107738
426.507673	2529.895496
426.885762	2525.484486
427.263789	2532.867256
427.641756	2531.491021
428.019662	2533.383974
428.397508	2534.051927
428.775292	2531.639735
429.153016	2530.288706
429.530679	2530.581093
429.908282	2532.892462
430.285824	2532.955476
430.663305	2533.792308
431.040726	2534.107380
431.418086	2533.550332
431.795385	2537.484953
432.172624	2536.111239
432.549802	2533.741896
432.926920	2533.920857
433.303977	2533.414221
433.680974	2533.835158
434.057910	2534.019160
434.434786	2533.610826
434.811601	2535.652494
435.188355	2533.583100
435.565050	2532.486649
435.941683	2534.891279
436.318257	2537.051414
436.694770	2535.478574
437.071222	2531.533871
437.447614	2532.342976
437.823946	2535.299613
438.200218	2533.993954
438.576429	2537.177443
438.952580	2534.268697
439.328670	2534.339273
439.704700	2535.342463
440.080670	2534.906403
440.456580	2535.586959
440.832429	2539.037628
441.208218	2534.803059
441.583947	2536.708615
441.959616	2536.499408
442.335224	2537.013605
442.710773	2538.195756
443.086261	2537.210210
443.461689	2535.445806
443.837057	2534.339273
444.212365	2537.162319
444.587612	2533.043697
444.962800	2531.922040
445.337927	2536.058307
445.712995	2530.316432
446.088002	2537.386651
446.462949	2536.522093
446.837837	2537.802546
447.212664	2539.650129
447.587431	2536.978317
447.962139	2536.688451
448.336786	2539.574511
448.711374	2537.316074
449.085901	2539.380427
449.460369	2539.241795
449.834776	2542.377393
450.209124	2536.796836
450.583412	2539.488812
450.957640	2535.962525
451.331808	2539.793802
451.705917	2540.988555
452.079965	2535.125693
452.453954	2540.860006
452.827883	2537.154758
453.201752	2537.542926
453.575562	2539.304810
453.949311	2538.911600
454.323001	2539.420756
454.696632	2538.694830
455.070202	2536.290200
455.443713	2540.726415
455.817164	2539.549306
456.190556	2538.765406
456.563888	2539.476209
456.937160	2537.232895
457.310373	2536.622916
457.683526	2539.516538
458.056619	2537.570653
458.429653	2540.033256
458.802628	2540.307999
459.175542	2539.831610
459.548398	2539.982845
459.921194	2542.175747
460.293930	2540.983514
460.666607	2539.861857
461.039224	2540.431507
461.411782	2540.204656
461.784280	2542.251364
462.156719	2542.437887
462.529099	2540.728936
462.901419	2541.341436
463.273680	2538.946888
463.645882	2537.656352
464.018024	2537.951260
464.390106	2536.572504
464.762130	2539.274563
465.134094	2541.802701
465.505999	2540.857485
465.877845	2541.956457
466.249631	2540.625592
466.621358	2541.585932
466.993026	2541.401930
467.364634	2544.776982
467.736184	2540.706250
468.107674	2541.233051
468.479105	2542.548792
468.850477	2542.758000
469.221790	2541.391847
469.593043	2543.007537
469.964238	2543.211704
470.335373	2546.422919
470.706449	2541.820345
471.077467	2541.999306
471.448425	2542.503422
471.819324	2541.762372
472.190164	2541.601055
472.560945	2541.548123
472.931667	2542.974770
473.302330	2543.826725
473.672934	2542.652136
474.043479	2540.807073
474.413965	2543.834286
474.784393	2542.992414
475.154761	2542.737835
475.525070	2541.308668
475.895321	2542.962167
476.265513	2543.118443
476.635645	2542.274049
477.005719	2543.811601
477.375734	2543.380582
477.745691	2540.479398
478.115588	2545.586087
478.485427	2542.878988
478.855207	2540.865047
479.224928	2545.104657
479.594591	2542.579039
479.964194	2544.333361
480.333739	2541.316230
480.703226	2542.664739
481.072653	2546.455686
481.442022	2542.276570
481.811333	2539.289686
482.180584	2541.028884
482.549777	2541.994265
482.918912	2538.772968
483.287988	2542.621889
483.657005	2542.460572
484.025964	2547.421067
484.394864	2543.239430
484.763706	2545.265974
485.132489	2543.657846
485.501213	2542.485778
485.869879	2544.991231
486.238487	2542.858823
486.607036	2545.714637
486.975527	2542.442928
487.343959	2546.480892
487.712333	2544.393854
488.080648	2544.678680
488.448905	2543.047866
488.817104	2547.073228
489.185244	2544.759338
489.553326	2544.449307
489.921350	2547.121119
490.289315	2543.894780
490.657222	2543.957795
491.025070	2544.333361
491.392861	2544.088865
491.760593	2543.183978
492.128267	2545.946530
492.495883	2545.321427
492.863440	2544.913093
493.230939	2543.370500
493.598380	2546.697662
493.965763	2547.766386
494.333088	2544.751776
494.700354	2545.709596
495.067563	2546.193546
495.434713	2543.310006
495.801805	2548.494833
496.168839	2544.091385
496.535815	2545.928886
496.902733	2546.400234
497.269593	2546.584236
497.636395	2547.804195
498.003139	2544.398896
498.369825	2547.620193
498.736453	2542.926879
499.103023	2544.633309
499.469535	2546.853938
499.835989	2546.879143
500.202385	2544.572815
500.568723	2540.018133
500.935003	2543.236910
501.301226	2539.612320
501.667390	2542.440407
502.033497	2546.352343
502.399546	2543.005017
502.765537	2545.480223
503.131470	2545.349153
503.497345	2547.395862
503.863163	2544.771941
504.228923	2545.419729
504.594625	2545.719678
504.960269	2545.321427
505.325856	2544.751776
505.691385	2547.773948
506.056856	2545.908721
506.422270	2545.190357
506.787625	2546.077600
507.152924	2544.010727
507.518164	2546.301931
507.883347	2548.192364
508.248472	2546.775800
508.613540	2546.090203
508.978550	2547.539534
509.343503	2546.871582
509.708398	2545.346632
510.073236	2546.740512
510.438016	2548.857796
510.802738	2546.372507
511.167403	2546.649771
511.532010	2545.762528
511.896561	2550.816284
512.261053	2546.564071
512.625488	2544.625748
512.989866	2546.039791
513.354186	2546.748073
513.718449	2546.702703
514.082655	2548.935934
514.446803	2547.431150
514.810894	2548.643547
515.174927	2546.576674
515.538904	2547.766386
515.902822	2544.287990
516.266684	2548.799823
516.630488	2545.339071
516.994235	2548.583053
517.357925	2545.505429
517.721558	2548.245296
518.085133	2547.141283
518.448651	2544.098947
518.812112	2543.723381
519.175516	2543.902342
519.538863	2541.028884
519.902152	2548.038609
520.265385	2546.750594
520.628560	2547.136242
520.991678	2548.673794
521.354739	2547.383259
521.717743	2545.696993
522.080690	2546.143135
522.443580	2547.736139
522.806413	2547.668084
523.169189	2548.782179
523.531908	2547.584905
523.894569	2546.034750
524.257174	2547.834442
524.619722	2548.769576
524.982213	2549.563558
525.344647	2545.966694
525.707025	2550.518856
526.069345	2546.730429
526.431608	2547.421067
526.793815	2546.901828
527.155964	2547.615152
527.518057	2548.898125
527.880093	2548.716644
528.242072	2544.724050
528.603995	2547.635316
528.965860	2546.942158
529.327669	2549.303938
529.689421	2547.962991
530.051117	2547.980635
530.412755	2548.802343
530.774337	2548.560368
531.135862	2548.325954
531.497331	2548.731767
531.858743	2551.217056
532.220098	2551.948023
532.581396	2548.303269
532.942638	2551.262427
533.303824	2547.277394
533.664953	2551.106151
534.026025	2548.288146
534.387040	2549.888712
534.747999	2549.671942
535.108902	2549.359391
535.469748	2549.014072
535.830537	2547.264792
536.191270	2548.154555
536.551947	2544.943340
536.912567	2547.224462
537.273131	2544.731612
537.633638	2544.653474
537.994089	2547.436191
538.354483	2547.544576
538.714821	2546.395192
539.075103	2546.178423
539.435328	2550.249155
539.795497	2547.456355
540.155609	2547.675646
540.515665	2549.402241
540.875665	2551.317879
541.235609	2547.912580
541.595496	2550.964998
541.955328	2550.637323
542.315102	2545.248330
542.674821	2549.959288
543.034483	2551.093548
543.394090	2549.903836
543.753640	2547.625234
544.113134	2548.242775
544.472571	2548.638506
544.831953	2547.930224
545.191278	2552.144628
545.550548	2549.535831
545.909761	2550.102961
546.268918	2549.931562
546.628019	2548.139432
546.987064	2552.227808
547.346053	2550.589432
547.704986	2550.564227
548.063863	2548.696479
548.422684	2546.463248
548.781449	2548.736808
549.140158	2548.081458
549.498811	2551.358208
549.857408	2549.437529
550.215949	2551.184289
550.574434	2549.142621
550.932864	2550.382745
551.291237	2550.528939
551.649555	2549.009031
552.007817	2548.699000
552.366022	2548.918290
552.724173	2549.283774
553.082267	2548.777138
553.440305	2552.381563
553.798288	2551.257385
554.156215	2549.820657
554.514086	2549.533311
554.871902	2544.897970
555.229661	2547.862168
555.587365	2544.214893
555.945014	2548.220090
556.302606	2547.549617
556.660143	2551.522046
557.017625	2547.456355
557.375050	2548.903167
557.732421	2549.649257
558.089735	2548.351160
558.446994	2551.300235
558.804197	2554.093034
559.161345	2547.743701
559.518437	2547.569781
559.875474	2547.456355
560.232455	2549.858465
560.589381	2547.771427
560.946251	2547.902497
561.303065	2549.261088
561.659825	2550.876778
562.016528	2549.054401
562.373177	2549.326623
562.729770	2550.024823
563.086307	2549.853424
563.442789	2550.964998
563.799216	2550.954916
564.155587	2549.422405
564.511904	2548.764535
564.868164	2547.161448
565.224370	2547.484082
565.580520	2551.143959
565.936615	2547.887374
566.292654	2551.038095
566.648638	2549.122457
567.004567	2547.025337
567.360441	2548.313352
567.716260	2549.772766
568.072023	2549.666901
568.427732	2549.014072
568.783385	2549.283774
569.138982	2549.102292
569.494525	2548.207487
569.850013	2551.723692
570.205445	2550.954916
570.560823	2550.909546
570.916145	2549.964329
571.271412	2550.622200
571.626625	2549.646737
571.981782	2547.650440
572.336884	2550.130688
572.691931	2547.831921
573.046923	2548.653629
573.401860	2543.151210
573.756743	2548.797302
574.111570	2552.048847
574.466342	2549.492982
574.821059	2551.549772
575.175722	2551.118754
575.530330	2551.645554
575.884882	2549.447611
576.239380	2549.482899
576.593823	2552.386604
576.948211	2549.346788
577.302544	2549.795451
577.656823	2550.687735
578.011047	2549.712272
578.365216	2550.037426
578.719330	2550.844011
579.073389	2551.821995
579.427394	2552.585729
579.781344	2550.818805
580.135239	2549.172868
580.489080	2551.509443
580.842866	2548.489792
581.196597	2552.005997
581.550273	2551.154042
581.903895	2552.908363
582.257463	2549.860986
582.610975	2548.449463
582.964434	2551.053219
583.317837	2549.860986
583.671186	2550.415513
584.024481	2549.364432
584.377721	2550.748229
584.730906	2548.746891
585.084037	2550.239072
585.437113	2550.667570
585.790135	2549.329144
586.143103	2551.660678
586.496016	2552.719320
586.848874	2549.697148
587.201679	2552.868034
587.554428	2551.242262
587.907124	2551.592622
588.259765	2550.201264
588.612352	2550.329813
588.964884	2551.610266
589.317362	2550.559186
589.669786	2551.280071
590.022155	2547.166489
590.374470	2545.457538
590.726731	2548.273022
591.078937	2547.970553
591.431090	2551.358208
591.783188	2551.388455
592.135232	2551.312838
592.487222	2550.591953
592.839157	2551.264947
593.191038	2551.776624
593.542866	2549.888712
593.894639	2549.790410
594.246358	2551.932900
594.598022	2549.684545
594.949633	2547.559699
595.301190	2549.296377
595.652692	2549.089689
596.004141	2551.292673
596.355535	2550.879299
596.706876	2549.394679
597.058162	2551.680842
597.409395	2550.418033
597.760573	2552.222766
598.111698	2548.197405
598.462768	2548.688918
598.813785	2548.023485
599.164748	2550.927190
599.515657	2552.764690
599.866511	2550.869217
600.217312	2547.809236
600.568060	2550.412992
600.918753	2550.899463
601.269392	2551.466593
601.619978	2551.229659
601.970510	2551.091027
602.320988	2549.475337
602.671412	2550.559186
603.021783	2550.773435
603.372100	2553.006666
603.722363	2549.243444
604.072572	2549.089689
604.422728	2546.808567
604.772830	2553.687222
605.122878	2548.583053
605.472872	2551.206974
605.822813	2546.932075
606.172701	2550.536500
606.522534	2553.253682
606.872314	2550.927190
607.222041	2552.873075
607.571714	2548.487271
607.921333	2547.206818
608.270899	2550.332334
608.620411	2548.419216
608.969870	2553.009186
609.319276	2554.065308
609.668627	2558.748540
610.017926	2561.596792
610.367171	2565.261711
610.716362	2565.967472
611.065500	2561.155691
611.414585	2559.570248
611.763616	2557.170659
612.112594	2555.247459
612.461518	2553.316697
612.810389	2554.798796
613.159207	2552.787376
613.507971	2554.549259
613.856682	2553.866182
614.205340	2554.387942
614.553945	2551.582540
614.902496	2553.089845
615.250994	2552.409289
615.599439	2548.585574
615.947830	2550.838970
616.296169	2552.242931
616.644454	2548.681356
616.992686	2552.303425
617.340864	2550.395348
617.688990	2550.387786
618.037063	2551.796789
618.385082	2547.320244
618.733048	2550.786038
619.080961	2551.549772
619.428821	2549.523228
619.776628	2550.228990
620.124382	2553.558672
620.472083	2551.396017
620.819731	2550.405430
621.167326	2549.913918
621.514868	2553.248641
621.862357	2550.029864
622.209793	2552.908363
622.557176	2553.173024
622.904506	2551.159083
623.251783	2549.258568
623.599007	2549.278732
623.946179	2551.716130
624.293297	2553.848538
624.640363	2548.416695
624.987376	2547.453835
625.334336	2550.821326
625.681243	2547.262271
626.028097	2547.557178
626.374899	2549.850903
626.721647	2552.310987
627.068343	2548.822508
627.414987	2550.206305
627.761577	2549.833259
628.108115	2548.260419
628.454600	2549.694628
628.801032	2549.150183
629.147412	2550.649926
629.493739	2550.322251
629.840014	2552.467262
630.186236	2551.524567
630.532405	2553.535987
630.878521	2551.282591
631.224585	2554.254351
631.570597	2551.179248
631.916556	2551.940462
632.262462	2548.106664
632.608316	2549.752601
632.954117	2548.462066
633.299866	2549.931562
633.645562	2551.229659
633.991206	2552.419371
634.336797	2549.414844
634.682336	2548.736808
635.027823	2551.295194
635.373257	2547.761345
635.718639	2548.895605
636.063968	2550.256716
636.409245	2550.660009
636.754470	2548.898125
637.099642	2549.117416
637.444762	2549.659340
637.789829	2551.249824
638.134845	2547.504246
638.479808	2547.799154
638.824719	2550.569268
639.169577	2548.925852
639.514383	2549.692107
639.859137	2549.747560
640.203839	2549.739998
640.548489	2552.008517
640.893086	2551.242262
641.237632	2549.921480
641.582125	2548.696479
641.926566	2551.481717
642.270955	2545.044163
642.615292	2547.476520
642.959576	2547.698331
643.303809	2543.587270
643.647990	2551.837118
643.992118	2548.318393
644.336195	2548.572971
