Dividing Wavelength (nm)	Counts (n)	Blue Motor Position (mm): 5.800000	Red Motor Position (mm): 0.000000	
326.493990	2158.657365
326.888308	2158.657365
327.282561	2158.657365
327.676750	2117.118257
328.070874	2113.728081
328.464933	2116.019286
328.858929	2119.734616
329.252859	2126.905658
329.646726	2132.576956
330.040528	2146.293935
330.434265	2156.719041
330.827938	2175.051197
331.221547	2194.101718
331.615091	2211.712989
332.008571	2227.232181
332.401986	2248.084914
332.795338	2265.736514
333.188625	2283.146139
333.581847	2301.526186
333.975006	2319.644093
334.368100	2337.986331
334.761129	2355.224556
335.154095	2375.096785
335.546996	2391.288971
335.939833	2406.172978
336.332606	2419.985739
336.725315	2434.405960
337.117960	2447.273505
337.510540	2457.189455
337.903056	2470.714870
338.295508	2478.243834
338.687896	2488.890751
339.080220	2494.796462
339.472480	2503.782319
339.864676	2506.807011
340.256807	2508.352125
340.648875	2517.486696
341.040879	2517.680780
341.432818	2519.787983
341.824694	2525.842408
342.216506	2525.597912
342.608253	2525.585309
342.999937	2526.044054
343.391557	2526.323838
343.783113	2529.020856
344.174605	2526.321318
344.566033	2524.209074
344.957397	2524.965247
345.348697	2522.018693
345.739934	2521.459125
346.131106	2521.731347
346.522215	2515.331602
346.913260	2514.701458
347.304241	2512.508556
347.695159	2512.566530
348.086012	2513.408402
348.476802	2508.639471
348.867528	2503.205107
349.258191	2500.767709
349.648789	2502.464057
350.039324	2497.269148
350.429796	2501.140754
350.820203	2498.499190
351.210548	2497.256545
351.600828	2495.774446
351.991045	2495.396360
352.381198	2493.205978
352.771288	2493.430310
353.161314	2492.409476
353.551276	2491.098776
353.941175	2492.510299
354.331010	2495.499703
354.720782	2489.868734
355.110490	2490.151039
355.500135	2492.933756
355.889717	2490.539208
356.279235	2491.365957
356.668689	2491.950731
357.058080	2491.789414
357.447408	2492.376708
357.836672	2493.165649
358.225873	2491.489465
358.615010	2493.624394
359.004084	2491.943169
359.393095	2495.761843
359.782043	2492.772439
360.170927	2496.376864
360.559748	2495.035917
360.948505	2491.794455
361.337199	2498.158912
361.725830	2496.568428
362.114398	2499.479694
362.502903	2498.438696
362.891344	2496.586072
363.279722	2499.681340
363.668037	2500.508090
364.056289	2499.010867
364.444478	2500.946670
364.832603	2504.324243
365.220665	2500.573625
365.608665	2503.633605
365.996601	2501.513800
366.384474	2502.257370
366.772284	2502.088491
367.160031	2504.861126
367.547715	2503.615961
367.935336	2504.014212
368.322893	2499.207472
368.710388	2499.124293
369.097820	2504.934223
369.485189	2499.933398
369.872495	2506.277690
370.259738	2506.043277
370.646918	2504.185611
371.034035	2508.702485
371.421090	2507.094357
371.808081	2506.310458
372.195010	2505.491270
372.581875	2509.536796
372.968678	2507.958915
373.355418	2509.017557
373.742096	2507.888339
374.128710	2506.209635
374.515262	2509.025119
374.901751	2507.414470
375.288177	2511.157527
375.674540	2509.289780
376.060841	2509.085613
376.447079	2510.983607
376.833254	2510.103926
377.219367	2515.560975
377.605417	2507.850530
377.991404	2510.726508
378.377329	2511.286077
378.763191	2511.568381
379.148991	2509.418329
379.534727	2510.025788
379.920402	2511.994359
380.306013	2509.851868
380.691563	2511.457476
381.077049	2510.093844
381.462474	2511.659122
381.847835	2513.637775
382.233134	2512.248937
382.618371	2510.408916
383.003545	2513.345388
383.388657	2513.080727
383.773706	2513.345388
384.158693	2512.432939
384.543618	2514.983763
384.928480	2514.222549
385.313280	2516.531397
385.698017	2514.404030
386.082692	2514.267919
386.467305	2515.492919
386.851856	2518.701614
387.236344	2514.978722
387.620770	2516.475944
388.005133	2511.034019
388.389435	2514.625841
388.773674	2512.344719
389.157851	2517.537107
389.541965	2513.811695
389.926018	2517.317817
390.310008	2516.062570
390.693936	2515.709689
391.077802	2518.172293
391.461606	2515.999555
391.845348	2518.721778
392.229027	2522.474918
392.612645	2515.939062
392.996200	2519.561131
393.379694	2517.416120
393.763125	2517.668177
394.146494	2520.904598
394.529801	2520.017355
394.913047	2518.963754
395.296230	2519.157838
395.679351	2521.539783
396.062410	2517.456449
396.445408	2521.423837
396.828343	2518.252951
397.211217	2517.569875
397.594028	2518.499968
397.976778	2520.937366
398.359466	2522.827798
398.742092	2520.408044
399.124656	2520.513909
399.507158	2522.933662
399.889598	2519.616583
400.271977	2520.120699
400.654294	2522.348889
401.036549	2524.146060
401.418742	2522.333765
401.800874	2522.409382
402.182944	2523.485669
402.564952	2520.710514
402.946898	2523.541122
403.328783	2522.472397
403.710606	2524.481297
404.092367	2523.515916
404.474067	2522.250586
404.855705	2524.824095
405.237282	2524.100690
405.618797	2524.017511
406.000250	2522.169928
406.381642	2524.904754
406.762972	2521.015503
407.144240	2519.661954
407.525447	2521.418796
407.906593	2519.180523
408.287677	2521.932993
408.668700	2525.885258
409.049661	2524.589682
409.430560	2524.566996
409.811399	2526.878365
410.192176	2524.972809
410.572891	2526.182686
410.953545	2524.720752
411.334138	2530.339118
411.714669	2526.510361
412.095139	2528.723428
412.475547	2526.817872
412.855894	2526.712007
413.236180	2527.195958
413.616405	2528.894827
413.996568	2527.521112
414.376670	2528.998171
414.756711	2527.511030
415.136691	2526.412059
415.516609	2528.630166
415.896466	2529.149405
416.276262	2531.526309
416.655997	2526.462470
417.035670	2526.712007
417.415283	2531.722914
417.794834	2527.022038
418.174324	2531.430527
418.553753	2526.016328
418.933121	2529.996319
419.312428	2527.987419
419.691674	2529.083870
420.070859	2529.832482
420.449983	2530.538243
420.829045	2528.519261
421.208047	2527.982378
421.586988	2529.585465
421.965867	2531.123017
422.344686	2530.495393
422.723444	2533.308357
423.102141	2530.540764
423.480777	2532.176618
423.859352	2530.361803
424.237866	2529.237625
424.616319	2529.542615
424.994712	2531.848943
425.373044	2532.310209
425.751314	2528.178983
426.129524	2526.318797
426.507673	2531.420445
426.885762	2525.436595
427.263789	2534.777853
427.641756	2530.124868
428.019662	2531.685106
428.397508	2531.760723
428.775292	2532.776515
429.153016	2531.833820
429.530679	2534.535878
429.908282	2532.766433
430.285824	2535.133255
430.663305	2534.296423
431.040726	2532.839530
431.418086	2532.098480
431.795385	2532.809283
432.172624	2533.051258
432.549802	2531.927081
432.926920	2533.343645
433.303977	2533.225178
433.680974	2534.593851
434.057910	2534.130065
434.434786	2535.876825
434.811601	2534.170394
435.188355	2532.378264
435.565050	2533.638553
435.941683	2535.624767
436.318257	2534.487987
436.694770	2533.036135
437.071222	2534.606454
437.447614	2532.153933
437.823946	2537.028729
438.200218	2533.895652
438.576429	2533.661238
438.952580	2533.802390
439.328670	2533.126876
439.704700	2535.357586
440.080670	2534.808100
440.456580	2533.351207
440.832429	2537.207690
441.208218	2535.881866
441.583947	2535.546629
441.959616	2537.242978
442.335224	2535.065199
442.710773	2534.435055
443.086261	2535.100487
443.461689	2536.937988
443.837057	2535.680220
444.212365	2535.339942
444.587612	2533.530168
444.962800	2531.281813
445.337927	2535.554191
445.712995	2532.504293
446.088002	2537.857998
446.462949	2537.202648
446.837837	2538.997299
447.212664	2538.069727
447.587431	2538.808256
447.962139	2539.105684
448.336786	2538.047042
448.711374	2537.290869
449.085901	2538.286497
449.460369	2536.073430
449.834776	2538.485622
450.209124	2536.834644
450.583412	2540.776827
450.957640	2538.556198
451.331808	2538.669624
451.705917	2537.386651
452.079965	2536.950591
452.453954	2538.853626
452.827883	2534.666948
453.201752	2538.374717
453.575562	2537.472350
453.949311	2540.587783
454.323001	2536.857329
454.696632	2540.670962
455.070202	2538.987217
455.443713	2539.279604
455.817164	2540.083668
456.190556	2540.078627
456.563888	2539.362783
456.937160	2540.408822
457.310373	2541.515356
457.683526	2538.959491
458.056619	2538.745242
458.429653	2539.748431
458.802628	2537.580735
459.175542	2540.242464
459.548398	2542.682383
459.921194	2539.019984
460.293930	2539.887063
460.666607	2539.332536
461.039224	2540.542413
461.411782	2542.533669
461.784280	2538.815818
462.156719	2538.097453
462.529099	2543.403268
462.901419	2539.458565
463.273680	2537.840354
463.645882	2537.905889
464.018024	2537.643749
464.390106	2537.653832
464.762130	2538.984696
465.134094	2540.300437
465.505999	2543.020140
465.877845	2540.580222
466.249631	2541.628782
466.621358	2541.767413
466.993026	2542.614327
467.364634	2546.669935
467.736184	2541.049049
468.107674	2542.463092
468.479105	2540.860006
468.850477	2543.163813
469.221790	2541.916127
469.593043	2542.556354
469.964238	2541.480068
470.335373	2544.376210
470.706449	2542.866385
471.077467	2539.977804
471.448425	2541.618699
471.819324	2543.355377
472.190164	2543.015099
472.560945	2543.171375
472.931667	2541.356559
473.302330	2540.383617
473.672934	2542.407640
474.043479	2542.019471
474.413965	2539.816487
474.784393	2542.679862
475.154761	2542.236241
475.525070	2540.600386
475.895321	2542.750438
476.265513	2541.946374
476.635645	2545.185316
477.005719	2542.150541
477.375734	2541.233051
477.745691	2542.437887
478.115588	2543.715819
478.485427	2541.175078
478.855207	2544.040974
479.224928	2545.147507
479.594591	2543.655325
479.964194	2542.485778
480.333739	2541.132228
480.703226	2540.832279
481.072653	2542.977290
481.442022	2545.455017
481.811333	2540.169368
482.180584	2539.332536
482.549777	2541.797660
482.918912	2537.565612
483.287988	2545.465100
483.657005	2541.228010
484.025964	2544.209852
484.394864	2544.782023
484.763706	2544.736653
485.132489	2545.853268
485.501213	2542.326981
485.869879	2544.678680
486.238487	2545.714637
486.607036	2543.511652
486.975527	2546.876623
487.343959	2545.228165
487.712333	2544.103988
488.080648	2545.477703
488.448905	2545.749925
488.817104	2547.794113
489.185244	2546.001982
489.553326	2544.096426
489.921350	2547.166489
490.289315	2545.979297
490.657222	2545.245809
491.025070	2544.923176
491.392861	2544.141797
491.760593	2544.925696
492.128267	2543.771272
492.495883	2546.647250
492.863440	2546.569112
493.230939	2545.898639
493.598380	2544.371169
493.965763	2548.603218
494.333088	2545.129863
494.700354	2544.371169
495.067563	2543.640202
495.434713	2545.543237
495.801805	2546.526262
496.168839	2543.541899
496.535815	2544.167002
496.902733	2546.740512
497.269593	2545.147507
497.636395	2547.496685
498.003139	2542.846220
498.369825	2546.284287
498.736453	2545.565923
499.103023	2546.140614
499.469535	2546.899308
499.835989	2545.271015
500.202385	2542.382434
500.568723	2541.991745
500.935003	2540.928061
501.301226	2542.248843
501.667390	2546.012065
502.033497	2547.448794
502.399546	2545.296221
502.765537	2545.883515
503.131470	2546.324616
503.497345	2543.171375
503.863163	2546.309493
504.228923	2546.067518
504.594625	2547.093392
504.960269	2542.332023
505.325856	2545.911242
505.691385	2544.903011
506.056856	2547.080789
506.422270	2547.816798
506.787625	2547.325285
507.152924	2545.734801
507.518164	2546.387631
507.883347	2545.331509
508.248472	2546.153217
508.613540	2548.406613
508.978550	2547.559699
509.343503	2546.475851
509.708398	2550.523897
510.073236	2547.826880
510.438016	2546.964843
510.802738	2545.089534
511.167403	2545.792775
511.532010	2547.635316
511.896561	2547.312683
512.261053	2545.586087
512.625488	2545.263453
512.989866	2548.131870
513.354186	2546.448125
513.718449	2548.043650
514.082655	2546.690100
514.446803	2546.438042
514.810894	2547.282436
515.174927	2546.730429
515.538904	2546.964843
515.902822	2545.054246
516.266684	2549.024154
516.630488	2546.561551
516.994235	2546.342260
517.357925	2548.565409
517.721558	2549.573640
518.085133	2547.698331
518.448651	2546.916952
518.812112	2545.389482
519.175516	2541.394368
519.538863	2547.108516
519.902152	2549.523228
520.265385	2546.105326
520.628560	2548.804864
520.991678	2547.741181
521.354739	2548.162117
521.717743	2547.594987
522.080690	2547.537014
522.443580	2546.831252
522.806413	2547.002652
523.169189	2545.414688
523.531908	2549.142621
523.894569	2547.940306
524.257174	2551.212015
524.619722	2549.462735
524.982213	2547.509287
525.344647	2548.499874
525.707025	2548.487271
526.069345	2547.022816
526.431608	2546.639688
526.793815	2549.689587
527.155964	2547.050542
527.518057	2548.111705
527.880093	2549.971891
528.242072	2548.018444
528.603995	2549.803013
528.965860	2548.809905
529.327669	2544.900490
529.689421	2547.174051
530.051117	2550.690256
530.412755	2552.104299
530.774337	2546.808567
531.135862	2547.486602
531.497331	2549.853424
531.858743	2548.651109
532.220098	2548.908208
532.581396	2549.087169
532.942638	2548.073897
533.303824	2550.203784
533.664953	2549.051881
534.026025	2550.236552
534.387040	2548.817467
534.747999	2548.819987
535.108902	2547.322765
535.469748	2549.235883
535.830537	2550.768393
536.191270	2552.724361
536.551947	2545.870912
536.912567	2546.737991
537.273131	2547.398382
537.633638	2544.378731
537.994089	2548.111705
538.354483	2548.131870
538.714821	2547.993238
539.075103	2547.756304
539.435328	2549.112374
539.795497	2547.786551
540.155609	2551.453990
540.515665	2547.521890
540.875665	2548.094061
541.235609	2547.728578
541.595496	2550.959957
541.955328	2549.130018
542.315102	2547.466438
542.674821	2550.269319
543.034483	2547.622713
543.394090	2549.518187
543.753640	2547.705892
544.113134	2550.594474
544.472571	2546.874102
544.831953	2549.636654
545.191278	2546.435522
545.550548	2550.239072
545.909761	2548.920811
546.268918	2549.394679
546.628019	2549.240924
546.987064	2548.930893
547.346053	2548.290666
547.704986	2550.148332
548.063863	2549.495502
548.422684	2547.186654
548.781449	2548.772097
549.140158	2550.123126
549.498811	2549.699669
549.857408	2548.023485
550.215949	2551.438867
550.574434	2547.249668
550.932864	2552.069011
551.291237	2549.044319
551.649555	2553.926676
552.007817	2549.712272
552.366022	2549.797971
552.724173	2549.044319
553.082267	2549.366953
553.440305	2548.734288
553.798288	2549.377035
554.156215	2549.830739
554.514086	2547.224462
554.871902	2545.419729
555.229661	2548.343598
555.587365	2546.780841
555.945014	2550.773435
556.302606	2550.546583
556.660143	2553.359547
557.017625	2553.296532
557.375050	2551.350647
557.732421	2551.965667
558.089735	2553.394835
558.446994	2550.501212
558.804197	2553.286450
559.161345	2552.184958
559.518437	2550.634803
559.875474	2549.918959
560.232455	2549.354350
560.589381	2553.029351
560.946251	2550.377704
561.303065	2553.556152
561.659825	2552.477345
562.016528	2553.052036
562.373177	2551.653116
562.729770	2553.117571
563.086307	2551.791748
563.442789	2550.813764
563.799216	2550.218908
564.155587	2553.566234
564.511904	2551.801830
564.868164	2551.149001
565.224370	2555.338199
565.580520	2551.305276
565.936615	2552.817623
566.292654	2554.158569
566.648638	2550.682694
567.004567	2551.171686
567.360441	2552.192519
567.716260	2551.363250
568.072023	2552.399207
568.427732	2551.690925
568.783385	2552.996583
569.138982	2552.253013
569.494525	2550.821326
569.850013	2551.562375
570.205445	2552.066491
570.560823	2553.117571
570.916145	2553.621687
571.271412	2552.837787
571.626625	2552.744526
571.981782	2548.862837
572.336884	2549.271171
572.691931	2549.515667
573.046923	2549.888712
573.401860	2545.502908
573.756743	2555.270144
574.111570	2550.707900
574.466342	2550.085317
574.821059	2550.841490
575.175722	2554.866852
575.530330	2549.528270
575.884882	2554.556821
576.239380	2554.617314
576.593823	2553.052036
576.948211	2553.102448
577.302544	2553.609084
577.656823	2552.126984
578.011047	2552.779814
578.365216	2552.862993
578.719330	2552.111861
579.073389	2554.912222
579.427394	2554.398024
579.781344	2551.983312
580.135239	2550.392827
580.489080	2550.997766
580.842866	2555.015566
581.196597	2553.044474
581.550273	2552.177396
581.903895	2551.970709
582.257463	2554.503888
582.610975	2554.224104
582.964434	2553.193188
583.317837	2550.065152
583.671186	2552.361398
584.024481	2550.317210
584.377721	2551.574978
584.730906	2549.026675
585.084037	2551.847200
585.437113	2552.197561
585.790135	2552.391645
586.143103	2552.623538
586.496016	2552.149670
586.848874	2551.408620
587.201679	2554.128323
587.554428	2552.157231
587.907124	2554.778631
588.259765	2553.972047
588.612352	2550.085317
588.964884	2552.805020
589.317362	2553.077242
589.669786	2551.096068
590.022155	2549.737477
590.374470	2545.833104
590.726731	2550.332334
591.078937	2547.065666
591.431090	2553.326779
591.783188	2553.568754
592.135232	2552.888199
592.487222	2552.575647
592.839157	2551.406099
593.191038	2551.854762
593.542866	2548.230173
593.894639	2550.904505
594.246358	2550.256716
594.598022	2551.312838
594.949633	2553.558672
595.301190	2549.147662
595.652692	2550.780996
596.004141	2550.808723
596.355535	2549.356870
596.706876	2551.154042
597.058162	2550.372663
597.409395	2550.831408
597.760573	2550.720502
598.111698	2552.749567
598.462768	2551.234700
598.813785	2552.351316
599.164748	2553.699824
599.515657	2551.035575
599.866511	2551.847200
600.217312	2550.148332
600.568060	2549.588763
600.918753	2554.014897
601.269392	2551.564896
601.619978	2552.232849
601.970510	2550.223949
602.320988	2552.515153
602.671412	2551.905174
603.021783	2550.082797
603.372100	2552.762170
603.722363	2549.762683
604.072572	2551.204453
604.422728	2553.223435
604.772830	2553.246121
605.122878	2551.885009
605.472872	2551.338044
605.822813	2548.507436
606.172701	2550.909546
606.522534	2552.298384
606.872314	2549.873589
607.222041	2549.515667
607.571714	2549.104813
607.921333	2549.067004
608.270899	2547.350491
608.620411	2549.276212
608.969870	2553.994732
609.319276	2555.817109
609.668627	2557.185782
610.017926	2563.106618
610.367171	2564.843295
610.716362	2562.993192
611.065500	2563.472101
611.414585	2558.924980
611.763616	2559.522357
612.112594	2553.135215
612.461518	2558.204095
612.810389	2555.118909
613.159207	2555.839794
613.507971	2554.297201
613.856682	2552.434495
614.205340	2553.351985
614.553945	2555.507078
614.902496	2553.790565
615.250994	2551.108671
615.599439	2550.864175
615.947830	2549.636654
616.296169	2553.122612
616.644454	2550.206305
616.992686	2552.479865
617.340864	2551.554813
617.688990	2550.332334
618.037063	2553.130174
618.385082	2550.037426
618.733048	2550.599515
619.080961	2552.285781
619.428821	2552.273178
619.776628	2552.036244
620.124382	2551.181768
620.472083	2551.522046
620.819731	2549.803012
621.167326	2553.541028
621.514868	2551.708569
621.862357	2550.468445
622.209793	2554.498847
622.557176	2551.695966
622.904506	2552.235369
623.251783	2550.521377
623.599007	2550.662529
623.946179	2552.888199
624.293297	2547.539534
624.640363	2551.277550
624.987376	2546.438042
625.334336	2546.301931
625.681243	2547.632796
626.028097	2544.204811
626.374899	2551.837118
626.721647	2548.522559
627.068343	2551.935421
627.414987	2552.245452
627.761577	2551.363250
628.108115	2552.956254
628.454600	2552.275698
628.801032	2550.980122
629.147412	2552.598332
629.493739	2552.250493
629.840014	2552.119423
630.186236	2549.954247
630.532405	2551.713610
630.878521	2553.934238
631.224585	2550.929710
631.570597	2548.900646
631.916556	2550.680173
632.262462	2549.896274
632.608316	2551.809392
632.954117	2550.685214
633.299866	2551.040616
633.645562	2551.574978
633.991206	2551.459032
634.336797	2547.564740
634.682336	2549.838301
635.027823	2552.013558
635.373257	2549.253527
635.718639	2549.117416
636.063968	2550.228990
636.409245	2548.726726
636.754470	2551.695966
637.099642	2548.207487
637.444762	2554.040102
637.789829	2550.438198
638.134845	2550.135729
638.479808	2551.181768
638.824719	2551.945503
639.169577	2552.079093
639.514383	2552.540359
639.859137	2552.169834
640.203839	2551.025492
640.548489	2549.130018
640.893086	2550.455842
641.237632	2549.777807
641.582125	2549.702189
641.926566	2551.607746
642.270955	2548.346119
642.615292	2548.106664
642.959576	2549.089689
643.303809	2546.448125
643.647990	2550.355019
643.992118	2548.946016
644.336195	2554.874413
