Dividing Wavelength (nm)	Counts (n)	Blue Motor Position (mm): 8.200000	Red Motor Position (mm): 0.000000	
326.493990	2157.334062
326.888308	2157.334062
327.282561	2157.334062
327.676750	2117.844183
328.070874	2115.689090
328.464933	2116.389811
328.858929	2118.292846
329.252859	2122.431633
329.646726	2129.486728
330.040528	2145.928452
330.434265	2157.828095
330.827938	2178.184274
331.221547	2190.078877
331.615091	2209.394058
332.008571	2226.899465
332.401986	2245.156003
332.795338	2268.075609
333.188625	2283.191509
333.581847	2301.947122
333.975006	2321.693322
334.368100	2340.317864
334.761129	2357.919053
335.154095	2374.958153
335.546996	2392.229146
335.939833	2412.056004
336.332606	2426.324990
336.725315	2439.880653
337.117960	2450.809874
337.510540	2463.667337
337.903056	2475.002372
338.295508	2483.549648
338.687896	2491.973416
339.080220	2498.186638
339.472480	2505.685355
339.864676	2513.121057
340.256807	2517.239679
340.648875	2519.893847
341.040879	2522.837881
341.432818	2526.593540
341.824694	2531.685106
342.216506	2532.602596
342.608253	2531.032276
342.999937	2533.855322
343.391557	2530.321473
343.783113	2531.889272
344.174605	2529.129241
344.566033	2529.822399
344.957397	2528.468849
345.348697	2527.143026
345.739934	2526.265865
346.131106	2522.545494
346.522215	2523.989784
346.913260	2520.166069
347.304241	2519.336799
347.695159	2514.739267
348.086012	2515.122395
348.476802	2514.739267
348.867528	2511.167609
349.258191	2504.059583
349.648789	2503.419356
350.039324	2499.386433
350.429796	2506.935561
350.820203	2501.652432
351.210548	2502.174191
351.600828	2502.426249
351.991045	2498.070692
352.381198	2496.213027
352.771288	2497.233860
353.161314	2497.831237
353.551276	2499.169663
353.941175	2497.125475
354.331010	2495.635814
354.720782	2497.659838
355.110490	2497.904334
355.500135	2496.288644
355.889717	2497.864004
356.279235	2494.408293
356.668689	2498.937770
357.058080	2495.814775
357.447408	2496.971720
357.836672	2498.514313
358.225873	2498.554643
358.615010	2496.954076
359.004084	2497.692605
359.393095	2496.008860
359.782043	2500.261073
360.170927	2499.028511
360.559748	2498.660507
360.948505	2502.169150
361.337199	2500.649242
361.725830	2502.738800
362.114398	2503.373986
362.502903	2500.772750
362.891344	2503.837772
363.279722	2500.808038
363.668037	2503.621002
364.056289	2503.192504
364.444478	2503.923471
364.832603	2505.067813
365.220665	2503.202586
365.608665	2507.028822
365.996601	2505.445900
366.384474	2506.300375
366.772284	2509.251971
367.160031	2508.092506
367.547715	2506.386075
367.935336	2507.727022
368.322893	2508.725170
368.710388	2504.853564
369.097820	2507.409429
369.485189	2506.055879
369.872495	2510.028309
370.259738	2506.764162
370.646918	2512.314472
371.034035	2510.552589
371.421090	2512.213649
371.808081	2511.311282
372.195010	2511.785151
372.581875	2512.153155
372.968678	2510.015706
373.355418	2510.509739
373.742096	2513.978053
374.128710	2512.072497
374.515262	2513.705830
374.901751	2515.145080
375.288177	2512.425377
375.674540	2512.127949
376.060841	2514.875378
376.447079	2516.329751
376.833254	2516.163393
377.219367	2513.297497
377.605417	2514.729185
377.991404	2516.843949
378.377329	2514.832528
378.763191	2513.428567
379.148991	2515.064421
379.534727	2513.292456
379.920402	2516.518794
380.306013	2515.460152
380.691563	2515.966788
381.077049	2516.901922
381.462474	2513.917559
381.847835	2516.937210
382.233134	2515.450070
382.618371	2515.112312
383.003545	2516.544000
383.388657	2517.141377
383.773706	2522.421985
384.158693	2517.567354
384.543618	2517.479134
384.928480	2517.413599
385.313280	2519.445184
385.698017	2518.389062
386.082692	2517.242200
386.467305	2517.804288
386.851856	2519.319155
387.236344	2518.459638
387.620770	2518.827643
388.005133	2515.966788
388.389435	2517.552231
388.773674	2517.065759
389.157851	2520.019876
389.541965	2519.649351
389.926018	2521.882582
390.310008	2522.232942
390.693936	2520.612211
391.077802	2522.961389
391.461606	2521.938035
391.845348	2518.260513
392.229027	2523.173117
392.612645	2524.685463
392.996200	2523.284023
393.379694	2524.355268
393.763125	2522.374094
394.146494	2522.943745
394.529801	2522.290915
394.913047	2523.100021
395.296230	2525.151770
395.679351	2521.930473
396.062410	2521.237314
396.445408	2525.239990
396.828343	2524.856863
397.211217	2525.660927
397.594028	2525.628159
397.976778	2523.551204
398.359466	2524.219157
398.742092	2526.666637
399.124656	2527.185876
399.507158	2524.962727
399.889598	2527.420289
400.271977	2528.373068
400.654294	2525.219826
401.036549	2525.567665
401.418742	2528.151257
401.800874	2530.727286
402.182944	2527.354754
402.564952	2527.062367
402.946898	2529.461957
403.328783	2523.798220
403.710606	2527.659744
404.092367	2528.317615
404.474067	2526.170083
404.855705	2526.633869
405.237282	2528.030269
405.618797	2528.665454
406.000250	2530.079498
406.381642	2528.184024
406.762972	2526.081863
407.144240	2524.650175
407.525447	2527.906761
407.906593	2525.348375
408.287677	2527.314425
408.668700	2528.993129
409.049661	2530.341638
409.430560	2529.794673
409.811399	2530.069416
410.192176	2530.087060
410.572891	2530.238294
410.953545	2528.239477
411.334138	2530.805424
411.714669	2528.131092
412.095139	2530.313912
412.475547	2531.359951
412.855894	2530.450023
413.236180	2531.831299
413.616405	2533.356248
413.996568	2534.011598
414.376670	2529.129241
414.756711	2533.782226
415.136691	2533.797349
415.516609	2533.356248
415.896466	2532.741227
416.276262	2530.223171
416.655997	2533.671320
417.035670	2532.839530
417.415283	2532.884900
417.794834	2533.235260
418.174324	2532.269879
418.553753	2533.898172
418.933121	2533.542771
419.312428	2533.779705
419.691674	2531.422966
420.070859	2532.917668
420.449983	2533.535209
420.829045	2532.821886
421.208047	2536.406146
421.586988	2536.804397
421.965867	2534.273738
422.344686	2533.923378
422.723444	2534.823224
423.102141	2531.528830
423.480777	2535.244160
423.859352	2535.652494
424.237866	2532.809283
424.616319	2535.332380
424.994712	2535.667617
425.373044	2535.047555
425.751314	2532.564787
426.129524	2530.888603
426.507673	2531.153264
426.885762	2532.796680
427.263789	2534.646783
427.641756	2537.134593
428.019662	2537.505118
428.397508	2536.612833
428.775292	2536.302802
429.153016	2538.132741
429.530679	2538.064686
429.908282	2534.795498
430.285824	2536.436393
430.663305	2535.314736
431.040726	2535.362627
431.418086	2538.263811
431.795385	2537.878163
432.172624	2537.426980
432.549802	2536.365817
432.926920	2538.047042
433.303977	2535.851619
433.680974	2537.923533
434.057910	2538.190715
434.434786	2538.573842
434.811601	2538.263811
435.188355	2538.740200
435.565050	2540.098791
435.941683	2538.445293
436.318257	2537.963863
436.694770	2537.701723
437.071222	2539.072917
437.447614	2540.492001
437.823946	2540.297917
438.200218	2535.332380
438.576429	2539.473688
438.952580	2538.294058
439.328670	2538.248688
439.704700	2537.442103
440.080670	2537.754655
440.456580	2540.456713
440.832429	2538.047042
441.208218	2541.399409
441.583947	2539.211548
441.959616	2540.529810
442.335224	2537.694161
442.710773	2539.577032
443.086261	2540.582742
443.461689	2540.025695
443.837057	2542.972249
444.212365	2536.985879
444.587612	2541.119625
444.962800	2538.319264
445.337927	2538.157947
445.712995	2537.603420
446.088002	2537.968904
446.462949	2542.934440
446.837837	2541.205325
447.212664	2539.357742
447.587431	2542.170706
447.962139	2537.742052
448.336786	2540.615510
448.711374	2543.120963
449.085901	2543.357897
449.460369	2540.645757
449.834776	2543.463762
450.209124	2540.265149
450.583412	2539.763555
450.957640	2541.535520
451.331808	2541.958977
451.705917	2541.207845
452.079965	2542.629451
452.453954	2543.430994
452.827883	2541.593493
453.201752	2543.146169
453.575562	2539.720705
453.949311	2542.815973
454.323001	2542.659697
454.696632	2541.545602
455.070202	2543.042825
455.443713	2543.224307
455.817164	2541.172557
456.190556	2543.418391
456.563888	2544.489636
456.937160	2546.133053
457.310373	2542.909235
457.683526	2543.362938
458.056619	2541.885880
458.429653	2541.076775
458.802628	2543.473844
459.175542	2543.415871
459.548398	2544.522404
459.921194	2543.980480
460.293930	2540.701209
460.666607	2546.080120
461.039224	2542.412681
461.411782	2544.983669
461.784280	2542.142979
462.156719	2543.310006
462.529099	2544.081303
462.901419	2543.655325
463.273680	2544.703885
463.645882	2537.227854
464.018024	2544.275387
464.390106	2538.415046
464.762130	2545.762528
465.134094	2544.668597
465.505999	2547.148845
465.877845	2544.141797
466.249631	2545.185316
466.621358	2542.730274
466.993026	2546.836293
467.364634	2547.857127
467.736184	2545.497867
468.107674	2544.887888
468.479105	2546.732950
468.850477	2544.930737
469.221790	2545.616334
469.593043	2546.173382
469.964238	2548.278063
470.335373	2545.681869
470.706449	2546.780841
471.077467	2546.770758
471.448425	2548.613300
471.819324	2546.072559
472.190164	2546.533824
472.560945	2549.873589
472.931667	2543.231868
473.302330	2546.498536
473.672934	2546.128011
474.043479	2548.522559
474.413965	2548.809905
474.784393	2548.139432
475.154761	2548.063814
475.525070	2547.612631
475.895321	2547.743701
476.265513	2546.218752
476.635645	2550.062632
477.005719	2546.879143
477.375734	2546.485933
477.745691	2545.807898
478.115588	2549.341747
478.485427	2550.082797
478.855207	2547.615152
479.224928	2546.876623
479.594591	2547.226983
479.964194	2548.976263
480.333739	2547.315203
480.703226	2549.417364
481.072653	2547.887374
481.442022	2547.088351
481.811333	2546.191026
482.180584	2547.105995
482.549777	2546.269164
482.918912	2545.460058
483.287988	2546.735470
483.657005	2550.982643
484.025964	2550.730585
484.394864	2546.453166
484.763706	2549.931562
485.132489	2547.080789
485.501213	2548.772097
485.869879	2551.529608
486.238487	2548.315872
486.607036	2551.315359
486.975527	2549.288815
487.343959	2549.639175
487.712333	2550.433157
488.080648	2551.111192
488.448905	2550.092879
488.817104	2550.715461
489.185244	2549.114895
489.553326	2548.227652
489.921350	2552.235369
490.289315	2548.459545
490.657222	2549.687066
491.025070	2551.887530
491.392861	2553.624207
491.760593	2551.075904
492.128267	2549.243444
492.495883	2551.973229
492.863440	2549.949206
493.230939	2551.096068
493.598380	2552.648744
493.965763	2551.181768
494.333088	2550.536500
494.700354	2550.614638
495.067563	2554.304763
495.434713	2548.769576
495.801805	2552.094217
496.168839	2550.241593
496.535815	2550.929710
496.902733	2551.711089
497.269593	2552.174875
497.636395	2547.995759
498.003139	2551.990873
498.369825	2553.097407
498.736453	2549.061963
499.103023	2552.139587
499.469535	2550.428116
499.835989	2553.609084
500.202385	2548.174720
500.568723	2546.813608
500.935003	2549.339226
501.301226	2545.074410
501.667390	2554.473642
502.033497	2552.792417
502.399546	2550.738147
502.765537	2550.327293
503.131470	2553.120092
503.497345	2550.770914
503.863163	2553.336861
504.228923	2552.507592
504.594625	2553.604042
504.960269	2550.929710
505.325856	2553.089845
505.691385	2552.532797
506.056856	2551.879968
506.422270	2553.354505
506.787625	2551.713610
507.152924	2553.528425
507.518164	2552.484906
507.883347	2553.707386
508.248472	2553.110009
508.613540	2553.465411
508.978550	2554.231666
509.343503	2550.929710
509.708398	2552.258054
510.073236	2551.484237
510.438016	2552.121943
510.802738	2552.525236
511.167403	2554.871893
511.532010	2553.513302
511.896561	2552.638662
512.261053	2552.197561
512.625488	2553.001625
512.989866	2553.089845
513.354186	2555.272664
513.718449	2551.365770
514.082655	2553.750236
514.446803	2551.637992
514.810894	2553.104968
515.174927	2555.315514
515.538904	2552.066491
515.902822	2554.345092
516.266684	2555.708724
516.630488	2554.375339
516.994235	2554.589588
517.357925	2549.908877
517.721558	2552.646223
518.085133	2553.127653
518.448651	2550.539021
518.812112	2551.096068
519.175516	2551.806871
519.538863	2549.230842
519.902152	2552.928528
520.265385	2551.174206
520.628560	2552.086655
520.991678	2553.382232
521.354739	2552.038764
521.717743	2553.215874
522.080690	2556.112017
522.443580	2554.408107
522.806413	2553.198230
523.169189	2552.873075
523.531908	2551.338044
523.894569	2553.243600
524.257174	2554.680329
524.619722	2554.271995
524.982213	2553.150339
525.344647	2553.840977
525.707025	2551.247303
526.069345	2553.591440
526.431608	2556.439692
526.793815	2552.862993
527.155964	2555.754095
527.518057	2555.595298
527.880093	2552.520194
528.242072	2555.287788
528.603995	2554.798796
528.965860	2555.451625
529.327669	2554.239228
529.689421	2552.305945
530.051117	2556.815258
530.412755	2556.711914
530.774337	2556.684188
531.135862	2555.217212
531.497331	2557.120247
531.858743	2556.293498
532.220098	2556.900957
532.581396	2555.567572
532.942638	2559.955896
533.303824	2556.638817
533.664953	2560.870866
534.026025	2558.594785
534.387040	2558.302398
534.747999	2563.116700
535.108902	2558.859445
535.469748	2559.950855
535.830537	2562.237018
536.191270	2564.664334
536.551947	2557.936914
536.912567	2556.043961
537.273131	2558.637635
537.633638	2557.460525
537.994089	2561.806000
538.354483	2561.780794
538.714821	2563.489745
539.075103	2564.747513
539.435328	2566.395970
539.795497	2565.370096
540.155609	2565.533933
540.515665	2567.505024
540.875665	2566.479149
541.235609	2565.453275
541.595496	2567.883111
541.955328	2568.412432
542.315102	2571.195149
542.674821	2571.611044
543.034483	2573.627506
543.394090	2570.408729
543.753640	2569.503842
544.113134	2572.442834
544.472571	2573.088102
544.831953	2574.877712
545.191278	2571.797567
545.550548	2574.292938
545.909761	2571.326219
546.268918	2574.318144
546.628019	2577.279822
546.987064	2576.269070
547.346053	2576.475757
547.704986	2575.666652
548.063863	2576.437949
548.422684	2575.747311
548.781449	2575.772517
549.140158	2576.498443
549.498811	2577.909966
549.857408	2575.749831
550.215949	2579.755028
550.574434	2578.567836
550.932864	2580.196129
551.291237	2581.015317
551.649555	2580.284349
552.007817	2581.882395
552.366022	2579.540779
552.724173	2581.045563
553.082267	2580.949782
553.440305	2584.085379
553.798288	2584.854155
554.156215	2583.787951
554.514086	2582.777200
554.871902	2577.710840
555.229661	2578.424163
555.587365	2577.839390
555.945014	2582.726788
556.302606	2584.017324
556.660143	2582.038671
557.017625	2585.486820
557.375050	2584.251737
557.732421	2582.338619
558.089735	2583.273753
558.446994	2587.843559
558.804197	2582.537745
559.161345	2590.412027
559.518437	2584.662591
559.875474	2586.341296
560.232455	2584.985225
560.589381	2584.912128
560.946251	2586.908425
561.303065	2586.679053
561.659825	2585.948086
562.016528	2586.636203
562.373177	2585.065884
562.729770	2585.607808
563.086307	2586.772314
563.442789	2585.882551
563.799216	2585.718713
564.155587	2583.079669
564.511904	2585.431367
564.868164	2584.360122
565.224370	2586.840370
565.580520	2585.413723
565.936615	2584.745770
566.292654	2584.748291
566.648638	2585.620411
567.004567	2585.522108
567.360441	2585.199474
567.716260	2582.686459
568.072023	2584.390369
568.427732	2586.109402
568.783385	2582.852817
569.138982	2585.708631
569.494525	2584.642427
569.850013	2585.754001
570.205445	2580.904411
570.560823	2585.227201
570.916145	2580.919535
571.271412	2582.406675
571.626625	2586.505133
571.981782	2582.822570
572.336884	2580.261664
572.691931	2578.860223
573.046923	2578.005748
573.401860	2575.810325
573.756743	2584.002200
574.111570	2579.245872
574.466342	2581.655543
574.821059	2580.017168
575.175722	2581.158989
575.530330	2581.922724
575.884882	2580.226376
576.239380	2580.604463
576.593823	2583.697210
576.948211	2581.768969
577.302544	2581.963053
577.656823	2579.197981
578.011047	2581.947930
578.365216	2578.116653
578.719330	2578.933320
579.073389	2581.186716
579.427394	2578.401478
579.781344	2579.334092
580.135239	2579.364339
580.489080	2576.889132
580.842866	2579.359298
581.196597	2578.101530
581.550273	2576.009451
581.903895	2579.124884
582.257463	2577.816704
582.610975	2577.887281
582.964434	2579.944071
583.317837	2578.540110
583.671186	2578.971129
584.024481	2577.834348
584.377721	2577.380645
584.730906	2576.614389
585.084037	2574.388720
585.437113	2577.191601
585.790135	2576.248906
586.143103	2576.276632
586.496016	2579.061869
586.848874	2578.535069
587.201679	2577.846951
587.554428	2576.687486
587.907124	2571.530386
588.259765	2576.337126
588.612352	2577.224369
588.964884	2577.206725
589.317362	2573.662794
589.669786	2576.727815
590.022155	2569.322360
590.374470	2569.987792
590.726731	2570.723801
591.078937	2569.105591
591.431090	2573.398133
591.783188	2572.165571
592.135232	2573.730849
592.487222	2576.485840
592.839157	2575.215469
593.191038	2572.957032
593.542866	2573.975345
593.894639	2571.565674
594.246358	2573.539285
594.598022	2571.127093
594.949633	2574.217321
595.301190	2570.317988
595.652692	2573.551888
596.004141	2570.098698
596.355535	2574.560119
596.706876	2569.324881
597.058162	2572.281517
597.409395	2572.710016
597.760573	2571.648853
598.111698	2571.583318
598.462768	2575.923751
598.813785	2571.769840
599.164748	2573.733370
599.515657	2568.457802
599.866511	2571.273287
600.217312	2572.861250
600.568060	2572.536096
600.918753	2575.482650
601.269392	2573.312433
601.619978	2572.702454
601.970510	2572.861250
602.320988	2572.203380
602.671412	2574.870150
603.021783	2573.866960
603.372100	2572.606672
603.722363	2574.350911
604.072572	2572.629357
604.422728	2573.042732
604.772830	2574.159347
605.122878	2573.559450
605.472872	2574.063565
605.822813	2574.610531
606.172701	2575.598597
606.522534	2573.614903
606.872314	2573.340160
607.222041	2574.683627
607.571714	2574.136662
607.921333	2572.258832
608.270899	2571.825293
608.620411	2572.248750
608.969870	2576.425346
609.319276	2581.721078
609.668627	2580.037333
610.017926	2587.967068
610.367171	2589.499578
610.716362	2589.900350
611.065500	2586.948755
611.414585	2585.607808
611.763616	2585.403641
612.112594	2583.356932
612.461518	2581.025399
612.810389	2579.727302
613.159207	2582.414237
613.507971	2582.908270
613.856682	2583.946748
614.205340	2582.053794
614.553945	2583.480441
614.902496	2581.320306
615.250994	2582.968764
615.599439	2583.099834
615.947830	2586.681573
616.296169	2582.746953
616.644454	2581.844586
616.992686	2582.356263
617.340864	2585.002869
617.688990	2584.612180
618.037063	2584.655030
618.385082	2585.050760
618.733048	2586.953796
619.080961	2586.656368
619.428821	2586.106882
619.776628	2588.418251
620.124382	2585.416244
620.472083	2589.277768
620.819731	2587.130236
621.167326	2588.776173
621.514868	2590.981678
621.862357	2588.841708
622.209793	2589.098807
622.557176	2588.652665
622.904506	2587.939341
623.251783	2586.048909
623.599007	2588.438416
623.946179	2587.478076
624.293297	2588.249372
624.640363	2587.251224
624.987376	2586.321131
625.334336	2583.470358
625.681243	2588.319948
626.028097	2586.089238
626.374899	2587.354567
626.721647	2589.338262
627.068343	2588.130905
627.414987	2587.107551
627.761577	2589.368508
628.108115	2593.527460
628.454600	2588.700556
628.801032	2592.158787
629.147412	2591.637028
629.493739	2592.990577
629.840014	2593.406473
630.186236	2593.996288
630.532405	2595.296905
630.878521	2593.754312
631.224585	2595.959817
631.570597	2593.615681
631.916556	2593.615681
632.262462	2593.882862
632.608316	2595.012080
632.954117	2598.004005
633.299866	2596.985692
633.645562	2598.498038
633.991206	2596.862184
634.336797	2597.121803
634.682336	2600.771598
635.027823	2595.826227
635.373257	2598.518203
635.718639	2596.327821
636.063968	2597.656165
636.409245	2596.781525
636.754470	2598.629108
637.099642	2597.842688
637.444762	2598.717328
637.789829	2598.160281
638.134845	2599.786053
638.479808	2598.629108
638.824719	2600.365786
639.169577	2601.308481
639.514383	2597.588110
639.859137	2603.811414
640.203839	2601.820158
640.548489	2599.463419
640.893086	2603.597165
641.237632	2599.811259
641.582125	2608.053545
641.926566	2606.286621
642.270955	2603.987855
642.615292	2604.660849
642.959576	2604.718822
643.303809	2604.655807
643.647990	2611.060593
643.992118	2609.107146
644.336195	2611.461365
