Dividing Wavelength (nm)	Counts (n)	Blue Motor Position (mm): 22.800000	Red Motor Position (mm): 0.000000	
326.493990	2192.377643
326.888308	2192.377643
327.282561	2192.377643
327.676750	2151.597229
328.070874	2148.837197
328.464933	2147.975160
328.858929	2152.512198
329.252859	2156.093938
329.646726	2165.629281
330.040528	2179.356343
330.434265	2188.566531
330.827938	2211.087886
331.221547	2225.003991
331.615091	2241.990159
332.008571	2262.767274
332.401986	2281.442229
332.795338	2300.051648
333.188625	2316.004379
333.581847	2336.088336
333.975006	2353.702128
334.368100	2375.857999
334.761129	2392.335010
335.154095	2407.108112
335.546996	2433.337235
335.939833	2467.730507
336.332606	2482.095275
336.725315	2495.966010
337.117960	2510.033350
337.510540	2520.710514
337.903056	2528.569672
338.295508	2541.926210
338.687896	2549.649257
339.080220	2555.998591
339.472480	2560.979251
339.864676	2569.017370
340.256807	2573.748493
340.648875	2576.677404
341.040879	2579.248392
341.432818	2580.362487
341.824694	2585.605287
342.216506	2586.989084
342.608253	2587.036975
342.999937	2587.377253
343.391557	2587.803230
343.783113	2588.582088
344.174605	2583.475400
344.566033	2583.883733
344.957397	2582.008424
345.348697	2584.229052
345.739934	2583.735019
346.131106	2579.971798
346.522215	2580.135635
346.913260	2577.317630
347.304241	2575.412074
347.695159	2571.588359
348.086012	2572.160530
348.476802	2570.171795
348.867528	2565.377657
349.258191	2559.781977
349.648789	2566.111145
350.039324	2556.651420
350.429796	2560.891030
350.820203	2558.493962
351.210548	2559.797100
351.600828	2556.714434
351.991045	2554.728220
352.381198	2557.662171
352.771288	2553.561193
353.161314	2557.768036
353.551276	2552.114382
353.941175	2551.053219
354.331010	2552.631100
354.720782	2551.867365
355.110490	2555.829712
355.500135	2550.738147
355.889717	2552.913404
356.279235	2551.557334
356.668689	2552.452139
357.058080	2550.014741
357.447408	2554.206460
357.836672	2552.696635
358.225873	2553.281409
358.615010	2552.638662
359.004084	2555.406255
359.393095	2555.174362
359.782043	2552.996583
360.170927	2555.786862
360.559748	2554.513971
360.948505	2558.680484
361.337199	2559.446740
361.725830	2559.106462
362.114398	2557.233673
362.502903	2557.379867
362.891344	2561.001936
363.279722	2559.474466
363.668037	2558.196534
364.056289	2560.480176
364.444478	2559.492110
364.832603	2561.866494
365.220665	2563.562842
365.608665	2562.821792
365.996601	2562.138716
366.384474	2563.923284
366.772284	2564.031669
367.160031	2564.576114
367.547715	2565.808676
367.935336	2564.992009
368.322893	2563.204920
368.710388	2560.651576
369.097820	2563.230126
369.485189	2561.901782
369.872495	2567.147102
370.259738	2566.320353
370.646918	2568.014181
371.034035	2567.510065
371.421090	2568.004098
371.808081	2566.206927
372.195010	2568.316650
372.581875	2569.065261
372.968678	2570.239850
373.355418	2568.588872
373.742096	2568.793039
374.128710	2570.295303
374.515262	2570.076013
374.901751	2569.040056
375.288177	2571.230437
375.674540	2569.801270
376.060841	2570.837227
376.447079	2569.564336
376.833254	2571.180025
377.219367	2573.362845
377.605417	2573.163719
377.991404	2570.295303
378.377329	2570.381003
378.763191	2572.697413
379.148991	2571.974007
379.534727	2573.372927
379.920402	2571.114490
380.306013	2574.328226
380.691563	2574.824780
381.077049	2573.919892
381.462474	2576.095150
381.847835	2574.653380
382.233134	2574.320664
382.618371	2573.594738
383.003545	2574.426528
383.388657	2574.481981
383.773706	2573.874522
384.158693	2574.711354
384.543618	2575.951477
384.928480	2575.628844
385.313280	2575.553226
385.698017	2578.252764
386.082692	2576.216138
386.467305	2578.411561
386.851856	2579.555902
387.236344	2577.741087
387.620770	2575.323854
388.005133	2577.483988
388.389435	2574.048442
388.773674	2574.789492
389.157851	2579.780234
389.541965	2579.283680
389.926018	2578.275449
390.310008	2581.005234
390.693936	2577.211766
391.077802	2580.501119
391.461606	2583.339288
391.845348	2580.743094
392.229027	2583.261151
392.612645	2583.956830
392.996200	2581.118660
393.379694	2581.539597
393.763125	2579.694534
394.146494	2585.126377
394.529801	2583.059504
394.913047	2583.177972
395.296230	2581.148907
395.679351	2583.382138
396.062410	2581.375759
396.445408	2584.236614
396.828343	2581.804257
397.211217	2584.549165
397.594028	2585.141501
397.976778	2584.899526
398.359466	2586.200143
398.742092	2586.545462
399.124656	2585.759042
399.507158	2587.354567
399.889598	2584.327355
400.271977	2585.736357
400.654294	2585.196954
401.036549	2586.437077
401.418742	2586.845411
401.800874	2588.861872
402.182944	2588.534197
402.564952	2587.241142
402.946898	2590.051585
403.328783	2588.395566
403.710606	2585.920359
404.092367	2587.548652
404.474067	2585.822057
404.855705	2589.779362
405.237282	2588.340113
405.618797	2587.757860
406.000250	2590.066708
406.381642	2588.849270
406.762972	2586.769794
407.144240	2587.425144
407.525447	2589.688622
407.906593	2585.023034
408.287677	2591.647110
408.668700	2585.832139
409.049661	2590.533015
409.430560	2588.130905
409.811399	2592.040320
410.192176	2589.902871
410.572891	2592.120978
410.953545	2593.615681
411.334138	2593.381267
411.714669	2591.589137
412.095139	2593.487131
412.475547	2593.277923
412.855894	2593.953438
413.236180	2591.931935
413.616405	2592.675505
413.996568	2594.465115
414.376670	2595.927050
414.756711	2593.577872
415.136691	2596.592482
415.516609	2596.279930
415.896466	2593.953438
416.276262	2593.973602
416.655997	2594.109714
417.035670	2597.121803
417.415283	2594.681885
417.794834	2596.579879
418.174324	2597.487287
418.553753	2596.118613
418.933121	2597.552822
419.312428	2594.891092
419.691674	2597.545260
420.070859	2597.351176
420.449983	2596.715990
420.829045	2596.625249
421.208047	2598.810590
421.586988	2599.781012
421.965867	2599.533995
422.344686	2602.200766
422.723444	2600.053234
423.102141	2599.798656
423.480777	2599.838985
423.859352	2597.767071
424.237866	2601.868049
424.616319	2599.165991
424.994712	2601.096753
425.373044	2603.748400
425.751314	2597.875456
426.129524	2596.723552
426.507673	2597.583069
426.885762	2598.795466
427.263789	2603.513986
427.641756	2603.201435
428.019662	2598.901330
428.397508	2602.062134
428.775292	2602.455344
429.153016	2601.580704
429.530679	2602.926692
429.908282	2605.480036
430.285824	2603.629933
430.663305	2604.796960
431.040726	2603.377875
431.418086	2602.689757
431.795385	2602.573811
432.172624	2603.667741
432.549802	2607.655294
432.926920	2603.057762
433.303977	2605.003647
433.680974	2605.853082
434.057910	2605.994234
434.434786	2604.181939
434.811601	2606.573967
435.188355	2605.401898
435.565050	2604.920468
435.941683	2607.781323
436.318257	2609.200408
436.694770	2607.819132
437.071222	2608.701333
437.447614	2607.403236
437.823946	2607.902311
438.200218	2605.933740
438.576429	2609.218052
438.952580	2607.748555
439.328670	2608.454317
439.704700	2611.113526
440.080670	2609.780140
440.456580	2609.938937
440.832429	2610.546396
441.208218	2611.640326
441.583947	2610.611931
441.959616	2612.772065
442.335224	2610.886674
442.710773	2612.764503
443.086261	2610.818618
443.461689	2610.039760
443.837057	2612.847682
444.212365	2613.765173
444.587612	2608.759307
444.962800	2608.988679
445.337927	2611.975563
445.712995	2608.139245
446.088002	2615.433794
446.462949	2617.336830
446.837837	2613.873557
447.212664	2614.304576
447.587431	2617.629217
447.962139	2616.943620
448.336786	2618.017386
448.711374	2619.446553
449.085901	2619.159207
449.460369	2619.070987
449.834776	2617.888836
450.209124	2620.364043
450.583412	2621.856224
450.957640	2622.090638
451.331808	2621.558796
451.705917	2622.115844
452.079965	2620.212808
452.453954	2622.642644
452.827883	2621.420165
453.201752	2626.287399
453.575562	2623.744137
453.949311	2624.596092
454.323001	2624.099538
454.696632	2623.262706
455.070202	2626.610033
455.443713	2627.363685
455.817164	2627.222533
456.190556	2630.872328
456.563888	2631.993985
456.937160	2631.499952
457.310373	2632.795528
457.683526	2631.976341
458.056619	2633.216465
458.429653	2634.446506
458.802628	2633.738224
459.175542	2635.810138
459.548398	2641.494039
459.921194	2642.041004
460.293930	2643.815491
460.666607	2650.709268
461.039224	2652.574495
461.411782	2657.862666
461.784280	2660.098417
462.156719	2662.273675
462.529099	2665.268121
462.901419	2663.919612
463.273680	2665.260559
463.645882	2665.865497
464.018024	2669.515293
464.390106	2675.302537
464.762130	2686.181347
465.134094	2696.566124
465.505999	2721.792058
465.877845	2758.915115
466.249631	2789.237656
466.621358	2790.306380
466.993026	2790.684467
467.364634	2798.417597
467.736184	2797.038841
468.107674	2803.985551
468.479105	2824.669405
468.850477	2839.540809
469.221790	2849.837366
469.593043	2858.246011
469.964238	2869.704553
470.335373	2887.683828
470.706449	2917.784558
471.077467	2931.214192
471.448425	3004.005933
471.819324	3144.442397
472.190164	3241.703898
472.560945	3184.688448
472.931667	3152.601504
473.302330	3172.967766
473.672934	3200.825182
474.043479	3259.685694
474.413965	3302.722025
474.784393	3339.517407
475.154761	3426.205088
475.525070	3484.465703
475.895321	3521.707227
476.265513	3624.173720
476.635645	3725.082497
477.005719	3783.396044
477.375734	3870.993654
477.745691	3991.905729
478.115588	4111.376034
478.485427	4246.347887
478.855207	4429.684570
479.224928	4714.968507
479.594591	5094.859779
479.964194	5197.139749
480.333739	5339.050750
480.703226	5367.762642
481.072653	5480.427389
481.442022	5712.388522
481.811333	5980.230067
482.180584	6128.455113
482.549777	6111.330314
482.918912	6225.467078
483.287988	6396.543675
483.657005	6500.497308
484.025964	6599.487926
484.394864	6738.679225
484.763706	6834.824111
485.132489	6918.955928
485.501213	7075.163641
485.869879	7251.094869
486.238487	7316.637431
486.607036	7575.760300
486.975527	7663.098291
487.343959	7902.845485
487.712333	8099.788243
488.080648	8152.685070
488.448905	8477.030388
488.817104	8580.134587
489.185244	8940.476264
489.553326	9162.649996
489.921350	9599.972613
490.289315	10505.832671
490.657222	11331.127529
491.025070	11716.896786
491.392861	11876.580375
491.760593	11828.235710
492.128267	11808.517236
492.495883	11624.101746
492.863440	11555.194214
493.230939	11426.148238
493.598380	11596.088054
493.965763	11630.851851
494.333088	11669.807368
494.700354	11839.033861
495.067563	12022.990606
495.434713	12128.454065
495.801805	12332.663646
496.168839	12519.957635
496.535815	12654.498469
496.902733	12963.659832
497.269593	12951.969396
497.636395	13296.474288
498.003139	13500.262932
498.369825	13618.392290
498.736453	13872.262277
499.103023	14009.086754
499.469535	14230.993306
499.835989	14545.735225
500.202385	14774.429690
500.568723	14698.005798
500.935003	15000.837992
501.301226	14990.871631
501.667390	15606.136896
502.033497	16020.676018
502.399546	15990.993704
502.765537	16016.171747
503.131470	16393.653347
503.497345	16695.482351
503.863163	16348.542582
504.228923	16972.869321
504.594625	17291.066952
504.960269	17108.667923
505.325856	17672.541145
505.691385	17462.874516
506.056856	18028.262605
506.422270	18245.864011
506.787625	18077.227332
507.152924	18609.197612
507.518164	18746.463190
507.883347	18769.274412
508.248472	18707.898363
508.613540	19453.278330
508.978550	19480.452670
509.343503	19614.454101
509.708398	19997.685137
510.073236	20262.602812
510.438016	20577.463199
510.802738	20497.626446
511.167403	20828.820171
511.532010	20722.492154
511.896561	21509.537257
512.261053	21650.266108
512.625488	21642.033904
512.989866	21682.673166
513.354186	21685.602076
513.718449	21909.515007
514.082655	22340.611798
514.446803	22252.648705
514.810894	22754.198142
515.174927	22419.349580
515.538904	22571.163928
515.902822	23086.415222
516.266684	23011.354962
516.630488	23006.656606
516.994235	23119.333956
517.357925	23455.314257
517.721558	23743.000304
518.085133	23913.781994
518.448651	23932.179685
518.812112	23762.461679
519.175516	23997.626465
519.538863	24256.545167
519.902152	24121.301092
520.265385	24497.487115
520.628560	24342.088507
520.991678	24437.757004
521.354739	24573.495112
521.717743	24699.927251
522.080690	24555.195724
522.443580	24943.914056
522.806413	24990.000284
523.169189	25143.047195
523.531908	25235.108746
523.894569	24910.125722
524.257174	25025.792477
524.619722	25268.352635
524.982213	25001.400854
525.344647	25135.440093
525.707025	25266.174857
526.069345	25321.793907
526.431608	25304.028881
526.793815	25529.534816
527.155964	25005.504353
527.518057	25196.707757
527.880093	25174.619941
528.242072	25412.738843
528.603995	25145.487113
528.965860	24975.360774
529.327669	25067.129938
529.689421	25067.548354
530.051117	24919.845067
530.412755	25125.488856
530.774337	24937.312665
531.135862	24821.600540
531.497331	25052.752567
531.858743	24596.240799
532.220098	25112.691887
532.581396	24794.746314
532.942638	24767.249340
533.303824	24856.873494
533.664953	24890.203082
534.026025	24559.067330
534.387040	24818.585930
534.747999	24896.186932
535.108902	25043.002976
535.469748	24546.860176
535.830537	24761.136941
536.191270	24877.191864
536.551947	24781.069663
536.912567	24467.404030
537.273131	24761.540233
537.633638	24493.668441
537.994089	24696.161509
538.354483	24270.461272
538.714821	24761.293217
539.075103	24814.094262
539.435328	24608.803354
539.795497	24154.267718
540.155609	24580.252779
540.515665	24849.934345
540.875665	24115.919660
541.235609	24377.008580
541.595496	24371.813671
541.955328	24716.013573
542.315102	24640.020699
542.674821	24217.279620
543.034483	24093.196659
543.394090	24241.973712
543.753640	24041.214801
544.113134	24673.279712
544.472571	24282.388642
544.831953	24567.801129
545.191278	24178.722355
545.550548	24111.491007
545.909761	24320.265352
546.268918	24557.189500
546.628019	24512.262737
546.987064	24216.498241
547.346053	23990.336956
547.704986	24129.003975
548.063863	24262.682772
548.422684	24247.050154
548.781449	23826.454086
549.140158	24221.846905
549.498811	23795.282111
549.857408	23531.596997
550.215949	23975.349606
550.574434	23651.906654
550.932864	23883.189752
551.291237	24013.821171
551.649555	23902.729264
552.007817	23941.127733
552.366022	23811.799452
552.724173	23862.647050
553.082267	23792.567450
553.440305	24260.595734
553.798288	23546.468401
554.156215	24077.611932
554.514086	24155.359127
554.871902	23521.731459
555.229661	23820.646677
555.587365	23675.476569
555.945014	23512.644779
556.302606	23775.692187
556.660143	23713.164235
557.017625	23978.759946
557.375050	23523.097612
557.732421	23899.414705
558.089735	23715.205903
558.446994	23776.259317
558.804197	23798.155569
559.161345	23760.624178
559.518437	23488.661490
559.875474	23705.360529
560.232455	23876.137178
560.589381	23715.034503
560.946251	23666.037009
561.303065	24005.518391
561.659825	24086.968314
562.016528	23683.660882
562.373177	23426.047839
562.729770	23783.604278
563.086307	23664.418798
563.442789	23834.530014
563.799216	23653.499659
564.155587	23669.807792
564.511904	23657.651049
564.868164	23581.539708
565.224370	23573.985539
565.580520	23473.921156
565.936615	23599.529066
566.292654	23270.707203
566.648638	23600.476803
567.004567	23419.600203
567.360441	23368.213201
567.716260	23086.899172
568.072023	23418.639863
568.427732	23181.493904
568.783385	22967.791831
569.138982	23192.927241
569.494525	23234.559610
569.850013	22980.926557
570.205445	23085.132248
570.560823	22881.688923
570.916145	22646.461123
571.271412	22823.347649
571.626625	22580.570721
571.981782	22684.693233
572.336884	22494.868585
572.691931	22629.500161
573.046923	22366.601467
573.401860	22249.192994
573.756743	22241.401891
574.111570	22171.954955
574.466342	22104.232094
574.821059	22196.891023
575.175722	21882.484340
575.530330	21878.849668
575.884882	21904.098287
576.239380	21808.409625
576.593823	21692.649609
576.948211	21683.081499
577.302544	21522.518229
577.656823	21394.946789
578.011047	21493.150987
578.365216	21374.063810
578.719330	21262.704721
579.073389	21159.736633
579.427394	21300.543622
579.781344	21080.088923
580.135239	20956.563010
580.489080	20944.376020
580.842866	20706.932633
581.196597	20872.443796
581.550273	20859.835870
581.903895	20760.396590
582.257463	21075.892163
582.610975	20610.578539
582.964434	20905.077706
583.317837	20621.694283
583.671186	20714.602749
584.024481	20677.320895
584.377721	20462.023297
584.730906	20503.832106
585.084037	20525.050323
585.437113	20436.003381
585.790135	20640.459978
586.143103	20109.210583
586.496016	20117.513364
586.848874	20371.295131
587.201679	20308.525203
587.554428	19968.413677
587.907124	20299.133534
588.259765	20079.087168
588.612352	20158.298819
588.964884	19726.259331
589.317362	19903.886908
589.669786	19949.461459
590.022155	20005.554378
590.374470	20181.561223
590.726731	19982.407920
591.078937	19731.040866
591.431090	19840.862402
591.783188	19585.530481
592.135232	19554.567714
592.487222	19659.975720
592.839157	19688.803558
593.191038	19576.305169
593.542866	19461.583631
593.894639	19178.691721
594.246358	19398.299506
594.598022	19319.806220
594.949633	19061.048834
595.301190	19016.837915
595.652692	19179.641979
596.004141	19428.551470
596.355535	18757.145395
596.706876	18764.755017
597.058162	18657.607813
597.409395	18878.604436
597.760573	18969.851841
598.111698	18750.256659
598.462768	18686.450774
598.813785	18641.695411
599.164748	18473.411613
599.515657	18498.486312
599.866511	18287.710629
600.217312	18651.044230
600.568060	18184.097273
600.918753	18490.700250
601.269392	18387.076812
601.619978	18167.010282
601.970510	18382.196975
602.320988	18332.508842
602.671412	18540.958033
603.021783	18433.157999
603.372100	18170.390376
603.722363	18305.238721
604.072572	18241.629441
604.422728	18378.837046
604.772830	18147.080080
605.122878	18095.405733
605.472872	18083.206141
605.822813	18066.903049
606.172701	18036.966157
606.522534	18238.917301
606.872314	18264.322195
607.222041	18093.109487
607.571714	18306.501530
607.921333	18129.695661
608.270899	18213.787149
608.620411	18402.729595
608.969870	18155.738262
609.319276	18170.806271
609.668627	18191.117080
610.017926	18333.207042
610.367171	18441.241490
610.716362	18484.166915
611.065500	18305.710068
611.414585	18436.855686
611.763616	18419.998067
612.112594	18379.134474
612.461518	18337.527311
612.810389	18543.198826
613.159207	18379.575575
613.507971	18296.603224
613.856682	18580.601667
614.205340	18514.186986
614.553945	18644.039547
614.902496	18393.037977
615.250994	18627.025653
615.599439	18570.191684
615.947830	18552.905568
616.296169	18598.190253
616.644454	18563.413853
616.992686	18540.637920
617.340864	18754.135827
617.688990	18522.822482
618.037063	18685.654272
618.385082	18531.667187
618.733048	18818.216454
619.080961	18679.819137
619.428821	18723.248677
619.776628	18612.136605
620.124382	18531.682310
620.472083	18565.768072
620.819731	18597.182022
621.167326	18294.387637
621.514868	18334.094285
621.862357	18095.627544
622.209793	18103.005272
622.557176	17937.698276
622.904506	17767.261906
623.251783	17673.282195
623.599007	17432.221780
623.946179	17387.393319
624.293297	17331.166810
624.640363	17078.988130
624.987376	17103.533508
625.334336	16899.686890
625.681243	16741.417345
626.028097	16743.670741
626.374899	16688.505394
626.721647	16544.540122
627.068343	16382.855195
627.414987	16312.435317
627.761577	16285.646626
628.108115	16333.706466
628.454600	16050.381017
628.801032	16145.391643
629.147412	16075.128041
629.493739	16099.691063
629.840014	15908.767443
630.186236	16008.158833
630.532405	15770.901968
630.878521	15976.933926
631.224585	15862.151894
631.570597	15685.159503
631.916556	15717.231324
632.262462	15700.083839
632.608316	15615.188288
632.954117	15560.073353
633.299866	15551.510953
633.645562	15480.813811
633.991206	15232.156377
634.336797	15098.381798
634.682336	15067.701336
635.027823	14960.697804
635.373257	14847.110526
635.718639	14741.445421
636.063968	14701.769019
636.409245	14447.836018
636.754470	14467.882166
637.099642	14323.221215
637.444762	14093.279065
637.789829	14134.409839
638.134845	13974.658194
