Dividing Wavelength (nm)	Counts (n)	Blue Motor Position (mm): 42.900000	Red Motor Position (mm): 0.000000	
326.493990	2258.046234
326.888308	2258.046234
327.282561	2258.046234
327.676750	2218.074925
328.070874	2213.643751
328.464933	2217.583412
328.858929	2220.212374
329.252859	2224.270503
329.646726	2234.703171
330.040528	2244.384707
330.434265	2257.607653
330.827938	2276.232196
331.221547	2292.472273
331.615091	2309.831487
332.008571	2328.758499
332.401986	2346.541169
332.795338	2369.128059
333.188625	2388.574310
333.581847	2404.035528
333.975006	2426.778694
334.368100	2444.730243
334.761129	2465.915692
335.154095	2478.120325
335.546996	2507.154851
335.939833	2547.537014
336.332606	2559.968499
336.725315	2576.281673
337.117960	2588.808940
337.510540	2599.203800
337.903056	2611.337857
338.295508	2620.043930
338.687896	2627.514920
339.080220	2637.693009
339.472480	2640.067393
339.864676	2649.695997
340.256807	2651.851090
340.648875	2657.325783
341.040879	2657.940804
341.432818	2657.582882
341.824694	2663.617143
342.216506	2663.251659
342.608253	2663.922133
342.999937	2664.655621
343.391557	2662.334169
343.783113	2663.612102
344.174605	2664.935405
344.566033	2662.868532
344.957397	2661.280568
345.348697	2659.916936
345.739934	2658.094559
346.131106	2658.432316
346.522215	2655.452994
346.913260	2656.395690
347.304241	2652.786224
347.695159	2647.482930
348.086012	2649.146511
348.476802	2646.822539
348.867528	2641.577218
349.258191	2640.286683
349.648789	2638.875160
350.039324	2635.096815
350.429796	2639.139820
350.820203	2638.658390
351.210548	2636.546147
351.600828	2637.259470
351.991045	2637.350211
352.381198	2635.815179
352.771288	2634.136475
353.161314	2633.952473
353.551276	2635.290899
353.941175	2633.183697
354.331010	2634.204531
354.720782	2632.036835
355.110490	2632.901392
355.500135	2631.603295
355.889717	2633.009777
356.279235	2633.029942
356.668689	2632.278810
357.058080	2632.777884
357.447408	2631.948614
357.836672	2633.713018
358.225873	2635.023718
358.615010	2632.896351
359.004084	2638.129069
359.393095	2633.110600
359.782043	2637.917341
360.170927	2636.906589
360.559748	2638.799542
360.948505	2640.989924
361.337199	2640.206024
361.725830	2638.847433
362.114398	2640.737866
362.502903	2643.354225
362.891344	2641.075623
363.279722	2642.106539
363.668037	2643.233237
364.056289	2645.093423
364.444478	2646.303300
364.832603	2645.186684
365.220665	2644.407826
365.608665	2643.938999
365.996601	2647.903866
366.384474	2648.554175
366.772284	2647.500574
367.160031	2648.223980
367.547715	2647.523259
367.935336	2650.641213
368.322893	2647.734988
368.710388	2648.080307
369.097820	2645.700882
369.485189	2645.438742
369.872495	2651.316727
370.259738	2653.544917
370.646918	2653.920483
371.034035	2652.990391
371.421090	2653.502068
371.808081	2654.366626
372.195010	2656.420896
372.581875	2654.187665
372.968678	2654.916111
373.355418	2655.647079
373.742096	2657.822337
374.128710	2656.884682
374.515262	2658.114723
374.901751	2657.532470
375.288177	2660.668068
375.674540	2660.073212
376.060841	2659.175886
376.447079	2661.925836
376.833254	2664.143943
377.219367	2665.598316
377.605417	2663.695281
377.991404	2663.208809
378.377329	2665.439520
378.763191	2667.798780
379.148991	2670.594100
379.534727	2670.641991
379.920402	2673.825479
380.306013	2678.574246
380.691563	2690.194106
381.077049	2694.179138
381.462474	2706.666076
381.847835	2721.570247
382.233134	2735.824110
382.618371	2754.599887
383.003545	2779.351953
383.388657	2807.063176
383.773706	2840.768330
384.158693	2874.418032
384.543618	2911.412540
384.928480	2955.555403
385.313280	2999.393277
385.698017	3041.262580
386.082692	3106.278342
386.467305	3137.132724
386.851856	3188.607946
387.236344	3261.893720
387.620770	3312.335505
388.005133	3373.167108
388.389435	3435.690019
388.773674	3482.222390
389.157851	3568.463929
389.541965	3643.214158
389.926018	3662.027744
390.310008	3768.731327
390.693936	3844.903162
391.077802	3909.462699
391.461606	3943.850930
391.845348	4032.023231
392.229027	4115.335860
392.612645	4147.795850
392.996200	4261.304990
393.379694	4348.539637
393.763125	4465.529694
394.146494	4517.483826
394.529801	4600.998101
394.913047	4701.828740
395.296230	4679.488866
395.679351	4810.132889
396.062410	4877.001274
396.445408	4876.895410
396.828343	4949.150268
397.211217	5022.678017
397.594028	4922.316206
397.976778	5046.578128
398.359466	5102.502168
398.742092	5137.694463
399.124656	5060.484151
399.507158	5186.323953
399.889598	5257.459675
400.271977	5381.247729
400.654294	5378.999374
401.036549	5428.627013
401.418742	5348.936453
401.800874	5558.749276
402.182944	5619.782526
402.564952	5726.682714
402.946898	5788.940964
403.328783	5631.871213
403.710606	5644.189272
404.092367	5968.269929
404.474067	5985.712322
404.855705	5892.110698
405.237282	5832.148693
405.618797	6078.746816
406.000250	6061.957253
406.381642	6264.457883
406.762972	6284.289782
407.144240	6345.224729
407.525447	6327.779816
407.906593	6354.724783
408.287677	6509.861252
408.668700	6418.896151
409.049661	6533.463934
409.430560	6568.235293
409.811399	6421.827582
410.192176	6697.432504
410.572891	6698.569284
410.953545	6908.233393
411.334138	6639.948227
411.714669	6806.581047
412.095139	6598.310817
412.475547	6846.713672
412.855894	6913.143477
413.236180	7093.510921
413.616405	6764.628564
413.996568	6986.635938
414.376670	7021.424941
414.756711	6922.724190
415.136691	7013.142325
415.516609	7219.028090
415.896466	7209.883437
416.276262	7408.978767
416.655997	7391.231384
417.035670	7577.224756
417.415283	7916.184378
417.794834	7972.219324
418.174324	7835.815783
418.553753	7752.488031
418.933121	8063.048313
419.312428	8164.274683
419.691674	7941.133049
420.070859	8413.731140
420.449983	8100.965352
420.829045	8465.042524
421.208047	8235.281855
421.586988	8537.241929
421.965867	8556.461328
422.344686	8662.857401
422.723444	8709.830872
423.102141	8067.373623
423.480777	8824.091145
423.859352	8349.148918
424.237866	8968.207651
424.616319	8835.136313
424.994712	9256.453266
425.373044	8806.061458
425.751314	9271.942212
426.129524	9146.356987
426.507673	9258.542825
426.885762	9409.822810
427.263789	9326.001025
427.641756	9258.661292
428.019662	9350.019602
428.397508	9601.426986
428.775292	9281.911093
429.153016	9661.610801
429.530679	9492.953958
429.908282	9521.116364
430.285824	9239.988858
430.663305	9930.296739
431.040726	9378.471875
431.418086	9365.737920
431.795385	9691.570378
432.172624	9786.182754
432.549802	9694.804278
432.926920	9767.805227
433.303977	9642.348552
433.680974	9850.855716
434.057910	9941.503224
434.434786	10011.361014
434.811601	9844.004788
435.188355	10406.655531
435.565050	10147.638526
435.941683	10066.591895
436.318257	10557.996010
436.694770	10707.907323
437.071222	10762.248441
437.447614	10601.337331
437.823946	10510.692343
438.200218	10621.965732
438.576429	10455.569847
438.952580	10699.181086
439.328670	10739.180121
439.704700	10535.736796
440.080670	10516.030925
440.456580	11053.705271
440.832429	10831.014820
441.208218	10424.418036
441.583947	10741.584751
441.959616	10906.891748
442.335224	10717.175484
442.710773	10837.291057
443.086261	11059.459748
443.461689	10328.608387
443.837057	11009.401090
444.212365	11260.490881
444.587612	10894.548482
444.962800	11116.359252
445.337927	10866.880109
445.712995	10503.468370
446.088002	11561.896428
446.462949	11244.276010
446.837837	11215.012112
447.212664	11166.251551
447.587431	11726.810215
447.962139	12465.198101
448.336786	14745.914403
448.711374	15261.193423
449.085901	13089.030807
449.460369	12719.113458
449.834776	12170.487206
450.209124	13076.125453
450.583412	13499.542047
450.957640	14431.679120
451.331808	13511.913039
451.705917	12547.255483
452.079965	11817.613998
452.453954	12743.537849
452.827883	12374.706869
453.201752	12670.103361
453.575562	12203.310159
453.949311	12622.814817
454.323001	12598.579470
454.696632	12828.456085
455.070202	13106.889095
455.443713	13317.558914
455.817164	13811.496209
456.190556	13779.051343
456.563888	14141.596004
456.937160	14303.270849
457.310373	13651.394204
457.683526	13747.034975
458.056619	13275.369497
458.429653	13469.257315
458.802628	12852.278058
459.175542	13246.904622
459.548398	14208.018247
459.921194	14563.669130
460.293930	14625.698008
460.666607	15477.756351
461.039224	16542.813527
461.411782	17255.622599
461.784280	17065.911377
462.156719	17161.295049
462.529099	16835.255903
462.901419	15774.856753
463.273680	15554.316355
463.645882	15447.653101
464.018024	15165.494679
464.390106	15387.476848
464.762130	16108.598782
465.134094	16899.046664
465.505999	18938.158107
465.877845	22195.918080
466.249631	25023.138309
466.621358	24651.917822
466.993026	23227.144072
467.364634	22646.685454
467.736184	21176.581649
468.107674	20372.694051
468.479105	20507.179432
468.850477	19962.286154
469.221790	19564.821421
469.593043	18874.453045
469.964238	18313.947314
470.335373	17960.559909
470.706449	18445.168548
471.077467	18013.580244
471.448425	19879.381859
471.819324	23983.773374
472.190164	25882.566820
472.560945	22238.467939
472.931667	19915.305121
473.302330	19303.500608
473.672934	18901.992869
474.043479	19169.315175
474.413965	18966.691037
474.784393	18567.376200
475.154761	19319.206323
475.525070	19261.495194
475.895321	18949.656978
476.265513	19561.368230
476.635645	20159.468367
477.005719	19919.133877
477.375734	20103.690520
477.745691	20584.293963
478.115588	21130.699587
478.485427	21679.678720
478.855207	22756.776692
479.224928	24550.368819
479.594591	26780.537472
479.964194	26725.833391
480.333739	26946.658615
480.703226	26512.272470
481.072653	26231.331487
481.442022	26834.477818
481.811333	27756.943437
482.180584	27644.634091
482.549777	26686.900560
482.918912	26366.736879
483.287988	26508.405905
483.657005	26134.150644
484.025964	25906.061117
484.394864	25791.591637
484.763706	25452.773166
485.132489	24915.975981
485.501213	25095.463743
485.869879	25009.907801
486.238487	24837.286090
486.607036	24968.666121
486.975527	24698.606469
487.343959	24999.139896
487.712333	24924.495531
488.080648	24581.790331
488.448905	25095.471305
488.817104	24848.185065
489.185244	25549.742281
489.553326	25489.702139
489.921350	26530.125717
490.289315	28868.187665
490.657222	30602.478178
491.025070	31104.325044
491.392861	30859.960152
491.760593	30000.690438
492.128267	29093.426418
492.495883	28037.680254
492.863440	27158.676943
493.230939	26293.340200
493.598380	26129.137216
493.965763	25751.711069
494.333088	25252.694811
494.700354	25231.098508
495.067563	25086.853453
495.434713	24816.821526
495.801805	24997.191490
496.168839	24775.897439
496.535815	24646.629652
496.902733	24857.181004
497.269593	24544.999990
497.636395	24711.063160
498.003139	24653.757843
498.369825	24399.209821
498.736453	24611.238231
499.103023	24486.056299
499.469535	24484.548994
499.835989	24704.602921
500.202385	24726.574790
500.568723	24249.154836
500.935003	24453.490445
501.301226	24123.637667
501.667390	24978.566948
502.033497	25175.043398
502.399546	24911.406175
502.765537	24454.806186
503.131470	24847.565003
503.497345	24984.487783
503.863163	24222.237595
504.228923	24781.835919
504.594625	25014.157494
504.960269	24561.976076
505.325856	25044.480034
505.691385	24439.370173
506.056856	25053.806169
506.422270	25032.494691
506.787625	24556.559356
507.152924	24984.530633
507.518164	25034.150710
507.883347	24840.182233
508.248472	24517.560990
508.613540	25309.498533
508.978550	25099.988179
509.343503	25111.545024
509.708398	25319.883310
510.073236	25488.928322
510.438016	25701.145775
510.802738	25356.686253
511.167403	25618.493537
511.532010	25362.407963
511.896561	26102.903052
512.261053	26067.511631
512.625488	25895.633491
512.989866	25798.029190
513.354186	25623.635514
513.718449	25754.841625
514.082655	26125.028676
514.446803	25853.015576
514.810894	26340.474988
515.174927	25820.416955
515.538904	25855.268972
515.902822	26340.177560
516.266684	26104.387671
516.630488	26005.583577
516.994235	25950.806399
517.357925	26288.089838
517.721558	26453.963964
518.085133	26573.025936
518.448651	26457.626362
518.812112	26227.013739
519.175516	26447.397861
519.538863	26597.185666
519.902152	26379.516204
520.265385	26642.682079
520.628560	26433.877487
520.991678	26428.087722
521.354739	26490.761867
521.717743	26573.734218
522.080690	26355.187596
522.443580	26683.066762
522.806413	26663.401221
523.169189	26773.048838
523.531908	26812.027040
523.894569	26442.686903
524.257174	26529.971961
524.619722	26677.949991
524.982213	26385.346299
525.344647	26430.086539
525.707025	26581.348881
526.069345	26544.523252
526.431608	26519.279674
526.793815	26680.067276
527.155964	26181.416502
527.518057	26349.632244
527.880093	26256.771670
528.242072	26491.933935
528.603995	26204.502466
528.965860	25992.658058
529.327669	26039.475254
529.689421	26020.581009
530.051117	25872.234975
530.412755	26038.441817
530.774337	25828.140002
531.135862	25711.366715
531.497331	25908.861478
531.858743	25486.518650
532.220098	25949.210874
532.581396	25647.139894
532.942638	25547.556941
533.303824	25664.710836
533.664953	25656.128271
534.026025	25308.611290
534.387040	25567.809777
534.747999	25608.842248
535.108902	25786.643744
535.469748	25278.475272
535.830537	25439.310765
536.191270	25586.071356
536.551947	25410.117443
536.912567	25047.661002
537.273131	25462.923530
537.633638	25133.756348
537.994089	25363.511976
538.354483	24860.233423
538.714821	25374.950354
539.075103	25415.960140
539.435328	25189.584606
539.795497	24783.151660
540.155609	25130.088909
540.515665	25445.713030
540.875665	24661.511138
541.235609	24987.157074
541.595496	24922.315232
541.955328	25296.278107
542.315102	25207.861310
542.674821	24727.923299
543.034483	24607.404434
543.394090	24774.622027
543.753640	24595.938329
544.113134	25216.844646
544.472571	24803.149917
544.831953	25109.989828
545.191278	24754.165025
545.550548	24640.040864
545.909761	24841.432439
546.268918	25074.784930
546.628019	25055.588217
546.987064	24736.906635
547.346053	24476.246214
547.704986	24585.034314
548.063863	24753.182000
548.422684	24778.982626
548.781449	24275.507467
549.140158	24690.094480
549.498811	24269.596715
549.857408	24013.299412
550.215949	24404.576129
550.574434	24107.987405
550.932864	24318.193438
551.291237	24491.162988
551.649555	24335.532486
552.007817	24403.530090
552.366022	24250.016873
552.724173	24277.360092
553.082267	24243.133177
553.440305	24725.732917
553.798288	23963.487771
554.156215	24457.604027
554.514086	24589.709984
554.871902	23977.212312
555.229661	24238.449946
555.587365	24088.813376
555.945014	24001.354398
556.302606	24212.051943
556.660143	24201.334450
557.017625	24428.582104
557.375050	23951.991419
557.732421	24329.069727
558.089735	24160.468337
558.446994	24207.877868
558.804197	24259.186732
559.161345	24145.004597
559.518437	23939.373411
559.875474	24127.526917
560.232455	24304.806654
560.589381	24106.633855
560.946251	24104.940027
561.303065	24411.996708
561.659825	24509.863148
562.016528	24107.790800
562.373177	23844.559390
562.729770	24210.506830
563.086307	24061.568460
563.442789	24235.994904
563.799216	24066.992742
564.155587	24063.295055
564.511904	24046.276120
564.868164	24007.739019
565.224370	23959.966525
565.580520	23895.288521
565.936615	24016.581203
566.292654	23712.249266
566.648638	23961.373007
567.004567	23795.710609
567.360441	23739.673143
567.716260	23466.218273
568.072023	23785.950935
568.427732	23560.417274
568.783385	23328.264578
569.138982	23579.946704
569.494525	23616.502631
569.850013	23364.656667
570.205445	23463.843890
570.560823	23283.978041
570.916145	23044.046844
571.271412	23231.950813
571.626625	22983.641218
571.981782	23077.457091
572.336884	22894.571592
572.691931	23035.275237
573.046923	22769.550976
573.401860	22640.104228
573.756743	22681.597965
574.111570	22565.046488
574.466342	22480.213951
574.821059	22566.163104
575.175722	22283.014095
575.530330	22240.953228
575.884882	22254.052666
576.239380	22173.421931
576.593823	22068.712124
576.948211	22046.566336
577.302544	21884.785626
577.656823	21750.295203
578.011047	21862.617152
578.365216	21731.688305
578.719330	21605.283892
579.073389	21494.093683
579.427394	21656.524701
579.781344	21401.817882
580.135239	21288.661622
580.489080	21242.467009
580.842866	21019.784120
581.196597	21230.390925
581.550273	21196.378260
581.903895	21067.183569
582.257463	21397.222870
582.610975	20908.848489
582.964434	21247.999675
583.317837	20920.226373
583.671186	21000.899958
584.024481	20987.334213
584.377721	20746.682131
584.730906	20837.238898
585.084037	20828.006025
585.437113	20759.564800
585.790135	20962.209102
586.143103	20417.189795
586.496016	20432.383833
586.848874	20675.455668
587.201679	20588.137843
587.554428	20291.082811
587.907124	20617.855445
588.259765	20380.570854
588.612352	20448.568457
588.964884	20025.076246
589.317362	20198.474294
589.669786	20255.968654
590.022155	20263.038872
590.374470	20489.434571
590.726731	20254.322717
591.078937	20043.267250
591.431090	20115.746439
591.783188	19890.096831
592.135232	19858.529126
592.487222	19949.393403
592.839157	19969.540375
593.191038	19838.218317
593.542866	19732.170084
593.894639	19438.878274
594.246358	19664.779940
594.598022	19551.658968
594.949633	19292.836047
595.301190	19280.767525
595.652692	19459.599937
596.004141	19683.636376
596.355535	19008.300721
596.706876	19034.696203
597.058162	18914.021062
597.409395	19163.515327
597.760573	19211.287822
598.111698	18984.072936
598.462768	18929.313402
598.813785	18902.605369
599.164748	18701.589359
599.515657	18756.048944
599.866511	18551.214261
600.217312	18902.139062
600.568060	18416.741482
600.918753	18742.374815
601.269392	18626.796280
601.619978	18415.405576
601.970510	18605.328527
602.320988	18561.919151
602.671412	18768.850955
603.021783	18694.486374
603.372100	18394.865395
603.722363	18555.166525
604.072572	18497.735180
604.422728	18643.845463
604.772830	18395.243481
605.122878	18358.251494
605.472872	18329.378286
605.822813	18317.597109
606.172701	18309.979926
606.522534	18483.751019
606.872314	18513.897119
607.222041	18351.604733
607.571714	18559.408656
607.921333	18391.729797
608.270899	18464.458524
608.620411	18631.681158
608.969870	18420.744158
609.319276	18416.459177
609.668627	18442.030430
610.017926	18581.317511
610.367171	18697.493422
610.716362	18749.392101
611.065500	18547.866935
611.414585	18703.406695
611.763616	18689.170477
612.112594	18614.644579
612.461518	18588.254139
612.810389	18777.264640
613.159207	18639.923445
613.507971	18548.529846
613.856682	18805.658939
614.205340	18722.525271
614.553945	18888.127175
614.902496	18645.912336
615.250994	18844.574127
615.599439	18800.469072
615.947830	18775.911091
616.296169	18858.359162
616.644454	18810.921904
616.992686	18791.543709
617.340864	19003.488940
617.688990	18748.235156
618.037063	18930.435059
618.385082	18774.943189
618.733048	19051.717659
619.080961	18938.480740
619.428821	18964.861098
619.776628	18848.090331
620.124382	18776.712634
620.472083	18831.068875
620.819731	18839.817798
621.167326	18538.051808
621.514868	18568.608762
621.862357	18358.387606
622.209793	18355.869549
622.557176	18193.804015
622.904506	18012.640069
623.251783	17949.237477
623.599007	17699.634827
623.946179	17632.658057
624.293297	17562.404537
624.640363	17306.311401
624.987376	17322.574163
625.334336	17126.669883
625.681243	16975.009291
626.028097	16988.975807
626.374899	16910.485042
626.721647	16775.029238
627.068343	16618.352697
627.414987	16549.639250
627.761577	16516.012233
628.108115	16544.492232
628.454600	16267.914367
628.801032	16373.120727
629.147412	16315.586038
629.493739	16321.688355
629.840014	16123.571009
630.186236	16229.909108
630.532405	15999.372102
630.878521	16203.642176
631.224585	16097.074704
631.570597	15905.752833
631.916556	15938.600992
632.262462	15916.936633
632.608316	15836.958728
632.954117	15770.541526
633.299866	15768.020949
633.645562	15682.853175
633.991206	15450.143431
634.336797	15328.165152
634.682336	15284.861641
635.027823	15154.837680
635.373257	15029.229770
635.718639	14943.641060
636.063968	14884.001690
