Dividing Wavelength (nm)	Counts (n)	Blue Motor Position (mm): 35.000000	Red Motor Position (mm): 0.000000	
326.493990	2230.123283
326.888308	2230.123283
327.282561	2230.123283
327.676750	2189.552076
328.070874	2185.493948
328.464933	2183.227949
328.858929	2188.763136
329.252859	2194.830164
329.646726	2202.396936
330.040528	2216.073587
330.434265	2229.034393
330.827938	2248.304204
331.221547	2261.348189
331.615091	2279.660181
332.008571	2301.198511
332.401986	2317.738536
332.795338	2333.010712
333.188625	2353.114833
333.581847	2374.726260
333.975006	2392.423231
334.368100	2414.725295
334.761129	2430.667944
335.154095	2448.876592
335.546996	2474.588997
335.939833	2513.249606
336.332606	2526.031452
336.725315	2539.655170
337.117960	2553.667057
337.510540	2564.250959
337.903056	2573.927454
338.295508	2584.229052
338.687896	2594.084508
339.080220	2601.275714
339.472480	2610.937085
339.864676	2615.017899
340.256807	2617.717437
340.648875	2623.756739
341.040879	2624.318828
341.432818	2629.067595
341.824694	2633.042545
342.216506	2631.469705
342.608253	2633.793677
342.999937	2630.960548
343.391557	2631.426855
343.783113	2632.200672
344.174605	2632.293933
344.566033	2630.607667
344.957397	2629.662451
345.348697	2629.370064
345.739934	2625.863942
346.131106	2626.186576
346.522215	2623.671040
346.913260	2622.481327
347.304241	2621.067284
347.695159	2620.316152
348.086012	2619.086110
348.476802	2615.166613
348.867528	2610.402723
349.258191	2607.955243
349.648789	2606.458020
350.039324	2604.645725
350.429796	2609.790223
350.820203	2604.953236
351.210548	2604.252515
351.600828	2602.979624
351.991045	2602.326794
352.381198	2601.658842
352.771288	2602.780498
353.161314	2600.557349
353.551276	2599.725559
353.941175	2598.286310
354.331010	2598.170363
354.720782	2599.619695
355.110490	2597.991402
355.500135	2597.530137
355.889717	2598.979468
356.279235	2602.271342
356.668689	2600.960642
357.058080	2600.068357
357.447408	2601.116917
357.836672	2599.385281
358.225873	2599.811259
358.615010	2602.354521
359.004084	2600.680858
359.393095	2601.807556
359.782043	2601.694130
360.170927	2601.497525
360.559748	2603.554315
360.948505	2605.109511
361.337199	2602.684716
361.725830	2606.190839
362.114398	2600.446444
362.502903	2605.296034
362.891344	2608.265274
363.279722	2606.533637
363.668037	2609.510439
364.056289	2606.619337
364.444478	2607.985490
364.832603	2609.810387
365.220665	2608.693772
365.608665	2609.820470
365.996601	2610.818618
366.384474	2612.630913
366.772284	2613.389607
367.160031	2610.896756
367.547715	2610.667383
367.935336	2612.290635
368.322893	2610.591766
368.710388	2609.386930
369.097820	2610.397682
369.485189	2612.509925
369.872495	2614.244082
370.259738	2612.930862
370.646918	2616.197529
371.034035	2615.143928
371.421090	2617.626696
371.808081	2614.022271
372.195010	2618.642489
372.581875	2615.857251
372.968678	2617.024278
373.355418	2614.657457
373.742096	2616.946141
374.128710	2617.215842
374.515262	2618.370267
374.901751	2617.054525
375.288177	2617.891357
375.674540	2620.490072
376.060841	2618.816409
376.447079	2618.178703
376.833254	2619.305401
377.219367	2619.580143
377.605417	2622.965278
377.991404	2621.059722
378.377329	2621.992336
378.763191	2621.321862
379.148991	2623.015690
379.534727	2623.464352
379.920402	2621.745319
380.306013	2625.233797
380.691563	2628.129940
381.077049	2625.453088
381.462474	2626.005094
381.847835	2625.692542
382.233134	2624.344034
382.618371	2625.569034
383.003545	2627.829992
383.388657	2627.588016
383.773706	2624.817902
384.158693	2630.642956
384.543618	2628.107255
384.928480	2629.566669
385.313280	2628.321504
385.698017	2630.768984
386.082692	2630.910137
386.467305	2634.265025
386.851856	2636.258801
387.236344	2634.043214
387.620770	2632.329222
388.005133	2630.337966
388.389435	2630.564818
388.773674	2631.472225
389.157851	2635.159829
389.541965	2634.938019
389.926018	2636.125210
390.310008	2636.561270
390.693936	2637.279635
391.077802	2639.429687
391.461606	2638.741569
391.845348	2641.481436
392.229027	2643.722229
392.612645	2641.362969
392.996200	2642.744245
393.379694	2642.774492
393.763125	2644.652322
394.146494	2642.396406
394.529801	2645.529483
394.913047	2643.676859
395.296230	2644.765748
395.679351	2647.475368
396.062410	2646.343629
396.445408	2648.639875
396.828343	2650.255565
397.211217	2649.690955
397.594028	2649.995945
397.976778	2651.064670
398.359466	2651.294042
398.742092	2652.413178
399.124656	2651.573826
399.507158	2653.817140
399.889598	2653.983498
400.271977	2655.208498
400.654294	2654.038951
401.036549	2658.008859
401.418742	2659.649755
401.800874	2660.030362
402.182944	2660.889879
402.564952	2663.957421
402.946898	2665.552946
403.328783	2671.874553
403.710606	2675.451252
404.092367	2682.846624
404.474067	2689.944569
404.855705	2699.474870
405.237282	2706.376210
405.618797	2726.084601
406.000250	2741.455079
406.381642	2765.640014
406.762972	2788.236987
407.144240	2815.048363
407.525447	2847.848631
407.906593	2880.235524
408.287677	2931.534305
408.668700	2971.170377
409.049661	3031.054244
409.430560	3087.421906
409.811399	3124.769294
410.192176	3216.939230
410.572891	3290.444294
410.953545	3391.685787
411.334138	3415.031371
411.714669	3522.773431
412.095139	3551.366856
412.475547	3680.493491
412.855894	3778.196094
413.236180	3914.851692
413.616405	3911.040580
413.996568	4060.301583
414.376670	4151.362466
414.756711	4205.708625
415.136691	4322.693641
415.516609	4492.043643
415.896466	4586.585442
416.276262	4764.155045
416.655997	4844.155636
417.035670	5033.516498
417.415283	5298.487106
417.794834	5420.203245
418.174324	5456.988545
418.553753	5514.450137
418.933121	5800.195340
419.312428	5951.412311
419.691674	5921.016674
420.070859	6316.442261
420.449983	6226.160237
420.829045	6550.797942
421.208047	6505.097361
421.586988	6805.524925
421.965867	6912.430154
422.344686	7086.644869
422.723444	7203.592077
423.102141	6809.804864
423.480777	7467.864485
423.859352	7174.030750
424.237866	7762.119155
424.616319	7724.713794
424.994712	8132.507852
425.373044	7854.568876
425.751314	8308.486971
426.129524	8258.065350
426.507673	8445.288763
426.885762	8635.723390
427.263789	8613.996017
427.641756	8595.512627
428.019662	8739.694668
428.397508	8996.813679
428.775292	8766.773226
429.153016	9158.516250
429.530679	9044.530720
429.908282	9122.472000
430.285824	8877.310606
430.663305	9559.025841
431.040726	9056.505981
431.418086	9077.835103
431.795385	9403.801152
432.172624	9499.212550
432.549802	9447.848234
432.926920	9545.099653
433.303977	9436.593858
433.680974	9653.950768
434.057910	9743.781609
434.434786	9816.933792
434.811601	9685.021919
435.188355	10247.148382
435.565050	9987.639864
435.941683	9922.934134
436.318257	10421.050546
436.694770	10547.563342
437.071222	10617.065731
437.447614	10472.712290
437.823946	10363.031906
438.200218	10520.983859
438.576429	10334.511578
438.952580	10575.897148
439.328670	10634.613987
439.704700	10416.105174
440.080670	10415.943857
440.456580	10980.830351
440.832429	10728.117309
441.208218	10335.605508
441.583947	10671.369040
441.959616	10804.659668
442.335224	10605.962589
442.710773	10759.828687
443.086261	10957.424274
443.461689	10254.460576
443.837057	10886.913655
444.212365	11174.040134
444.587612	10819.044601
444.962800	11059.502598
445.337927	10835.229225
445.712995	10411.137117
446.088002	11496.391675
446.462949	11144.062912
446.837837	11125.229162
447.212664	11124.851075
447.587431	11626.163578
447.962139	12331.405878
448.336786	14587.533953
448.711374	15154.560417
449.085901	13009.231862
449.460369	12614.007921
449.834776	12071.385683
450.209124	12933.057507
450.583412	13327.636180
450.957640	14293.619560
451.331808	13455.789873
451.705917	12431.039243
452.079965	11745.094480
452.453954	12650.016883
452.827883	12281.989967
453.201752	12562.247874
453.575562	12075.106055
453.949311	12499.926610
454.323001	12452.963221
454.696632	12680.253724
455.070202	12961.908031
455.443713	13219.400087
455.817164	13665.151513
456.190556	13667.495649
456.563888	14036.740004
456.937160	14210.929513
457.310373	13537.038149
457.683526	13613.424233
458.056619	13173.926358
458.429653	13311.849807
458.802628	12758.169798
459.175542	13120.452319
459.548398	14068.327874
459.921194	14395.839036
460.293930	14459.980157
460.666607	15352.077865
461.039224	16389.393572
461.411782	17085.279490
461.784280	16964.735419
462.156719	17014.340373
462.529099	16705.685646
462.901419	15628.335617
463.273680	15419.271405
463.645882	15285.282577
464.018024	15029.300346
464.390106	15237.298354
464.762130	15970.357741
465.134094	16723.929582
465.505999	18706.570019
465.877845	21967.296712
466.249631	24809.975639
466.621358	24497.663556
466.993026	23054.534965
467.364634	22500.058453
467.736184	21029.790811
468.107674	20222.588654
468.479105	20365.114676
468.850477	19828.693057
469.221790	19409.687473
469.593043	18733.736798
469.964238	18166.571702
470.335373	17825.232654
470.706449	18272.085572
471.077467	17812.831416
471.448425	19650.490789
471.819324	23666.006762
472.190164	25714.295625
472.560945	22162.593533
472.931667	19786.440626
473.302330	19143.131422
473.672934	18676.612963
474.043479	18996.769082
474.413965	18813.923911
474.784393	18432.341333
475.154761	19125.111818
475.525070	19127.246746
475.895321	18780.095248
476.265513	19365.695844
476.635645	19951.510688
477.005719	19735.832482
477.375734	19915.950389
477.745691	20399.250849
478.115588	20923.160324
478.485427	21444.009819
478.855207	22505.563393
479.224928	24262.284521
479.594591	26481.002193
479.964194	26531.015480
480.333739	26733.581645
480.703226	26292.853728
481.072653	25972.165768
481.442022	26543.555350
481.811333	27457.655174
482.180584	27369.306433
482.549777	26423.006238
482.918912	26077.014206
483.287988	26203.897528
483.657005	25866.997216
484.025964	25619.955472
484.394864	25534.094540
484.763706	25212.720982
485.132489	24651.353213
485.501213	24816.700539
485.869879	24742.845114
486.238487	24557.028183
486.607036	24694.384502
486.975527	24399.318206
487.343959	24729.445727
487.712333	24658.952752
488.080648	24327.448996
488.448905	24813.020496
488.817104	24557.696136
489.185244	25228.542643
489.553326	25204.226638
489.921350	26194.836054
490.289315	28478.042686
490.657222	30261.623082
491.025070	30752.273544
491.392861	30556.762475
491.760593	29691.771051
492.128267	28782.334294
492.495883	27747.947498
492.863440	26871.558025
493.230939	26000.421435
493.598380	25845.358063
493.965763	25450.597908
494.333088	24991.439534
494.700354	24930.363434
495.067563	24801.975328
495.434713	24549.320259
495.801805	24701.212745
496.168839	24511.110834
496.535815	24351.351627
496.902733	24567.095368
497.269593	24238.812909
497.636395	24407.590739
498.003139	24382.644590
498.369825	24149.735720
498.736453	24340.581202
499.103023	24209.332241
499.469535	24231.838472
499.835989	24433.121663
500.202385	24469.551561
500.568723	23979.664833
500.935003	24204.278484
501.301226	23829.667821
501.667390	24673.758621
502.033497	24906.198663
502.399546	24625.487053
502.765537	24194.589387
503.131470	24587.867442
503.497345	24724.681837
503.863163	23941.190747
504.228923	24531.479616
504.594625	24740.579116
504.960269	24272.462611
505.325856	24753.189562
505.691385	24163.787937
506.056856	24772.275370
506.422270	24749.393573
506.787625	24316.441637
507.152924	24725.586724
507.518164	24751.634366
507.883347	24570.785492
508.248472	24238.553289
508.613540	25032.469485
508.978550	24816.491331
509.343503	24814.938655
509.708398	25058.418824
510.073236	25223.488887
510.438016	25438.320178
510.802738	25105.614107
511.167403	25366.428283
511.532010	25069.471554
511.896561	25836.553688
512.261053	25806.218545
512.625488	25629.561391
512.989866	25535.916917
513.354186	25379.552927
513.718449	25480.706200
514.082655	25864.282555
514.446803	25597.456802
514.810894	26064.169346
515.174927	25558.960031
515.538904	25585.829381
515.902822	26078.793733
516.266684	25835.331208
516.630488	25741.318730
516.994235	25712.087600
517.357925	26003.622568
517.721558	26183.982449
518.085133	26294.028317
518.448651	26195.199017
518.812112	25940.789626
519.175516	26142.529041
519.538863	26301.456458
519.902152	26078.168630
520.265385	26358.182041
520.628560	26155.913305
520.991678	26150.771328
521.354739	26231.923823
521.717743	26302.426880
522.080690	26095.069098
522.443580	26416.961895
522.806413	26412.545844
523.169189	26516.363367
523.531908	26556.397690
523.894569	26159.006053
524.257174	26249.242707
524.619722	26417.486175
524.982213	26115.901667
525.344647	26166.237588
525.707025	26314.414743
526.069345	26286.451463
526.431608	26250.167758
526.793815	26427.656703
527.155964	25896.727421
527.518057	26072.056231
527.880093	25978.419319
528.242072	26215.963529
528.603995	25927.148264
528.965860	25726.162501
529.327669	25766.307730
529.689421	25755.272644
530.051117	25603.120539
530.412755	25779.757528
530.774337	25573.274387
531.135862	25441.574243
531.497331	25651.883620
531.858743	25206.626227
532.220098	25679.063001
532.581396	25366.791246
532.942638	25289.349041
533.303824	25396.070268
533.664953	25402.475054
534.026025	25072.826442
534.387040	25308.064325
534.747999	25358.453178
535.108902	25534.197883
535.469748	25023.221488
535.830537	25194.693816
536.191270	25336.894683
536.551947	25191.396901
536.912567	24843.337996
537.273131	25205.476844
537.633638	24887.271651
537.994089	25109.168120
538.354483	24636.723785
538.714821	25145.040971
539.075103	25182.930283
539.435328	24978.755991
539.795497	24530.229410
540.155609	24924.215747
540.515665	25221.033845
540.875665	24446.589106
541.235609	24767.740852
541.595496	24716.542894
541.955328	25060.387395
542.315102	25000.138045
542.674821	24527.424007
543.034483	24407.164762
543.394090	24569.563012
543.753640	24374.077149
544.113134	25012.967781
544.472571	24602.708599
544.831953	24907.728654
545.191278	24519.542163
545.550548	24436.794144
545.909761	24628.496622
546.268918	24880.942483
546.628019	24841.016544
546.987064	24541.289701
547.346053	24291.082112
547.704986	24412.687346
548.063863	24559.485746
548.422684	24577.344033
548.781449	24102.842907
549.140158	24513.903633
549.498811	24085.672737
549.857408	23840.022351
550.215949	24250.279013
550.574434	23941.447846
550.932864	24140.366736
551.291237	24307.349916
551.649555	24175.185985
552.007817	24229.385951
552.366022	24083.068981
552.724173	24131.837103
553.082267	24079.799793
553.440305	24562.180243
553.798288	23810.919770
554.156215	24321.772657
554.514086	24423.878707
554.871902	23789.109218
555.229661	24085.156019
555.587365	23943.895326
555.945014	23807.335510
556.302606	24056.658376
556.660143	24009.296736
557.017625	24254.876545
557.375050	23787.100318
557.732421	24172.418392
558.089735	23988.791842
558.446994	24036.047619
558.804197	24087.588376
559.161345	24023.054045
559.518437	23774.202526
559.875474	23964.261588
560.232455	24159.356762
560.589381	23982.240863
560.946251	23961.879643
561.303065	24275.691470
561.659825	24369.439287
562.016528	23965.511794
562.373177	23704.253996
562.729770	24059.957811
563.086307	23933.568523
563.442789	24095.223203
563.799216	23924.885135
564.155587	23924.615433
564.511904	23916.980606
564.868164	23844.529143
565.224370	23822.418642
565.580520	23737.281115
565.936615	23878.536767
566.292654	23566.386000
566.648638	23841.443957
567.004567	23672.015817
567.360441	23617.924236
567.716260	23352.167208
568.072023	23672.945910
568.427732	23438.663326
568.783385	23223.786664
569.138982	23464.781544
569.494525	23490.181398
569.850013	23243.048913
570.205445	23348.056147
570.560823	23142.737513
570.916145	22900.013517
571.271412	23085.759872
571.626625	22829.984328
571.981782	22953.477474
572.336884	22761.432198
572.691931	22900.484865
573.046923	22625.880612
573.401860	22514.980269
573.756743	22525.463348
574.111570	22425.308224
574.466342	22346.197397
574.821059	22437.379267
575.175722	22148.498466
575.530330	22126.050208
575.884882	22152.042398
576.239380	22065.203481
576.593823	21954.277932
576.948211	21938.340324
577.302544	21781.341149
577.656823	21635.099797
578.011047	21743.870253
578.365216	21614.267229
578.719330	21482.241930
579.073389	21380.188812
579.427394	21544.464892
579.781344	21298.943056
580.135239	21186.053977
580.489080	21147.731125
580.842866	20920.352402
581.196597	21118.915890
581.550273	21086.859193
581.903895	20976.266360
582.257463	21294.968106
582.610975	20818.574026
582.964434	21136.665793
583.317837	20830.516520
583.671186	20926.371539
584.024481	20891.020448
584.377721	20668.801345
584.730906	20729.166642
585.084037	20742.578632
585.437113	20650.645630
585.790135	20866.754854
586.143103	20321.344858
586.496016	20333.327680
586.848874	20573.843651
587.201679	20504.240440
587.554428	20193.780980
587.907124	20522.108810
588.259765	20286.500402
588.612352	20358.684684
588.964884	19930.015208
589.317362	20107.438618
589.669786	20153.844959
590.022155	20190.385763
590.374470	20394.542412
590.726731	20185.374856
591.078937	19953.839701
591.431090	20043.287414
591.783188	19792.563107
592.135232	19769.640981
592.487222	19869.375168
592.839157	19884.357478
593.191038	19768.458830
593.542866	19660.434465
593.894639	19367.684579
594.246358	19581.779862
594.598022	19486.479369
594.949633	19242.923583
595.301190	19208.442091
595.652692	19386.651920
596.004141	19615.732033
596.355535	18939.824208
596.706876	18960.162743
597.058162	18849.650568
597.409395	19084.026414
597.760573	19141.225866
598.111698	18927.183515
598.462768	18859.412763
598.813785	18833.221448
599.164748	18639.169793
599.515657	18687.668213
599.866511	18471.518660
600.217312	18842.902984
600.568060	18356.398870
600.918753	18662.994286
601.269392	18568.283608
601.619978	18350.339403
601.970510	18554.334735
602.320988	18502.622579
602.671412	18711.419609
603.021783	18634.952867
603.372100	18343.112909
603.722363	18491.209407
604.072572	18419.206606
604.422728	18576.140246
604.772830	18324.833686
605.122878	18292.865208
605.472872	18271.667157
605.822813	18261.070651
606.172701	18227.914982
606.522534	18426.642308
606.872314	18447.605946
607.222041	18283.511348
607.571714	18499.033277
607.921333	18334.343822
608.270899	18401.925531
608.620411	18574.814422
608.969870	18355.514148
609.319276	18347.067695
609.668627	18386.749137
610.017926	18511.948713
610.367171	18630.700654
610.716362	18677.404424
611.065500	18488.610692
611.414585	18640.571233
611.763616	18611.874465
612.112594	18547.458601
612.461518	18522.290641
612.810389	18707.021203
613.159207	18576.074711
613.507971	18482.490731
613.856682	18759.832330
614.205340	18680.711421
614.553945	18833.637343
614.902496	18570.151355
615.250994	18804.128949
615.599439	18746.732892
615.947830	18730.954081
616.296169	18793.660993
616.644454	18753.230939
616.992686	18726.666579
617.340864	18940.401420
617.688990	18694.214151
618.037063	18862.200521
618.385082	18717.736175
618.733048	18996.532148
619.080961	18871.332571
619.428821	18907.008817
619.776628	18790.308626
620.124382	18719.205672
620.472083	18765.206200
620.819731	18773.128374
621.167326	18481.369074
621.514868	18516.107665
621.862357	18285.910937
622.209793	18294.927040
622.557176	18123.797511
622.904506	17949.895348
623.251783	17865.934930
623.599007	17620.934853
623.946179	17568.998366
624.293297	17498.449938
624.640363	17252.781909
624.987376	17269.659692
625.334336	17070.723158
625.681243	16908.269455
626.028097	16926.568843
626.374899	16858.349429
626.721647	16710.832664
627.068343	16543.420986
627.414987	16481.830689
627.761577	16465.769573
628.108115	16489.362173
628.454600	16216.842437
628.801032	16318.255329
629.147412	16254.701503
629.493739	16262.384221
629.840014	16074.928915
630.186236	16165.672205
630.532405	15937.484376
630.878521	16136.042823
631.224585	16031.012904
631.570597	15855.071593
631.916556	15883.838938
632.262462	15857.572006
632.608316	15774.556805
632.954117	15717.374997
633.299866	15708.805035
633.645562	15632.557583
633.991206	15383.141455
634.336797	15254.990283
634.682336	15227.470625
635.027823	15107.642398
635.373257	14981.318644
635.718639	14895.629111
636.063968	14837.653321
