Dividing Wavelength (nm)	Counts (n)	Blue Motor Position (mm): 46.900000	Red Motor Position (mm): 0.000000	
326.493990	2272.753800
326.888308	2272.753800
327.282561	2272.753800
327.676750	2234.562018
328.070874	2232.568242
328.464933	2232.200238
328.858929	2235.774416
329.252859	2239.530076
329.646726	2249.229256
330.040528	2262.729466
330.434265	2274.485436
330.827938	2293.586368
331.221547	2309.871816
331.615091	2327.752788
332.008571	2345.175016
332.401986	2364.265866
332.795338	2385.068187
333.188625	2403.100394
333.581847	2422.715524
333.975006	2445.027671
334.368100	2462.528037
334.761129	2480.335913
335.154095	2495.938284
335.546996	2526.782583
335.939833	2564.056875
336.332606	2577.214287
336.725315	2591.442943
337.117960	2604.113883
337.510540	2616.860441
337.903056	2625.372429
338.295508	2635.298461
338.687896	2644.528814
339.080220	2649.549803
339.472480	2658.679333
339.864676	2662.402225
340.256807	2667.690395
340.648875	2670.382371
341.040879	2670.596620
341.432818	2678.685152
341.824694	2680.489885
342.216506	2679.169102
342.608253	2679.665656
342.999937	2680.938547
343.391557	2680.769669
343.783113	2680.557940
344.174605	2680.058866
344.566033	2678.407888
344.957397	2680.464679
345.348697	2674.344718
345.739934	2676.928310
346.131106	2672.701302
346.522215	2670.735252
346.913260	2670.536127
347.304241	2668.547391
347.695159	2665.994047
348.086012	2667.123265
348.476802	2663.596978
348.867528	2658.828047
349.258191	2655.823519
349.648789	2657.769404
350.039324	2655.483241
350.429796	2658.901143
350.820203	2654.976605
351.210548	2654.190185
351.600828	2650.492499
351.991045	2650.686583
352.381198	2653.996101
352.771288	2650.550472
353.161314	2651.805719
353.551276	2650.626089
353.941175	2648.861686
354.331010	2651.649444
354.720782	2652.090545
355.110490	2651.243631
355.500135	2649.943013
355.889717	2650.815133
356.279235	2652.279588
356.668689	2648.370173
357.058080	2649.025523
357.447408	2651.553662
357.836672	2652.012407
358.225873	2652.216573
358.615010	2652.763539
359.004084	2654.900988
359.393095	2654.132212
359.782043	2655.369815
360.170927	2653.416368
360.559748	2656.284785
360.948505	2656.660351
361.337199	2660.128664
361.725830	2659.682522
362.114398	2659.140598
362.502903	2657.328303
362.891344	2658.674292
363.279722	2658.011380
363.668037	2660.209323
364.056289	2662.084632
364.444478	2662.772750
364.832603	2660.078253
365.220665	2662.097235
365.608665	2664.038079
365.996601	2664.587565
366.384474	2663.032369
366.772284	2664.486742
367.160031	2668.842299
367.547715	2665.686537
367.935336	2666.125117
368.322893	2665.222750
368.710388	2665.058913
369.097820	2664.340548
369.485189	2665.888183
369.872495	2670.175684
370.259738	2668.867505
370.646918	2672.623164
371.034035	2673.764986
371.421090	2673.424708
371.808081	2675.552075
372.195010	2679.789164
372.581875	2685.072294
372.968678	2685.868796
373.355418	2693.342307
373.742096	2703.220447
374.128710	2713.123794
374.515262	2722.759960
374.901751	2736.527351
375.288177	2751.189547
375.674540	2770.502207
376.060841	2788.602470
376.447079	2807.171560
376.833254	2833.521672
377.219367	2853.008252
377.605417	2886.478993
377.991404	2909.874988
378.377329	2946.685493
378.763191	2967.439923
379.148991	3008.182529
379.534727	3048.204249
379.920402	3086.758994
380.306013	3114.112295
380.691563	3177.071265
381.077049	3204.709391
381.462474	3242.639032
381.847835	3304.675472
382.233134	3350.118953
382.618371	3378.538458
383.003545	3444.093623
383.388657	3470.597489
383.773706	3537.246584
384.158693	3565.020821
384.543618	3601.213785
384.928480	3664.520595
385.313280	3721.389852
385.698017	3744.720312
386.082692	3838.364785
386.467305	3840.976103
386.851856	3880.904562
387.236344	3959.402889
387.620770	3984.648988
388.005133	4038.659910
388.389435	4086.651695
388.773674	4093.527828
389.157851	4169.009025
389.541965	4240.822782
389.926018	4202.641083
390.310008	4309.014470
390.693936	4360.030947
391.077802	4392.241400
391.461606	4391.969177
391.845348	4457.892346
392.229027	4516.982231
392.612645	4521.365514
392.996200	4621.452583
393.379694	4678.871325
393.763125	4783.755051
394.146494	4812.154392
394.529801	4868.534656
394.913047	4950.942398
395.296230	4901.980191
395.679351	5010.836347
396.062410	5059.720416
396.445408	5032.006673
396.828343	5099.021251
397.211217	5149.084950
397.594028	5033.939955
397.976778	5152.984283
398.359466	5197.180078
398.742092	5217.954673
399.124656	5139.794103
399.507158	5260.033184
399.889598	5320.708512
400.271977	5442.583448
400.654294	5442.840546
401.036549	5484.155323
401.418742	5400.457045
401.800874	5610.872286
402.182944	5671.461914
402.564952	5775.075270
402.946898	5831.828580
403.328783	5670.665412
403.710606	5689.176529
404.092367	6013.118555
404.474067	6038.601587
404.855705	5932.828097
405.237282	5866.209249
405.618797	6126.211800
406.000250	6100.569971
406.381642	6304.338451
406.762972	6331.238047
407.144240	6381.246294
407.525447	6366.742894
407.906593	6384.661675
408.287677	6549.225102
408.668700	6468.523790
409.049661	6572.863072
409.430560	6604.503874
409.811399	6466.824921
410.192176	6728.538944
410.572891	6748.151553
410.953545	6940.327899
411.334138	6673.754204
411.714669	6842.363157
412.095139	6635.834645
412.475547	6876.653085
412.855894	6953.820547
413.236180	7141.013713
413.616405	6796.700385
413.996568	7016.555187
414.376670	7070.291366
414.756711	6957.067051
415.136691	7061.222330
415.516609	7265.104236
415.896466	7244.818633
416.276262	7453.761857
416.655997	7437.221831
417.035670	7609.939323
417.415283	7956.846325
417.794834	8019.727158
418.174324	7880.341775
418.553753	7803.756565
418.933121	8103.871577
419.312428	8205.438224
419.691674	7979.115622
420.070859	8458.368036
420.449983	8142.781723
420.829045	8504.545006
421.208047	8267.741845
421.586988	8580.931089
421.965867	8607.316488
422.344686	8700.570273
422.723444	8775.832179
423.102141	8105.623378
423.480777	8872.302220
423.859352	8394.753716
424.237866	9012.864712
424.616319	8878.490236
424.994712	9314.839910
425.373044	8842.783743
425.751314	9333.406480
426.129524	9217.996824
426.507673	9299.240060
426.885762	9449.516856
427.263789	9372.435093
427.641756	9313.816556
428.019662	9397.010718
428.397508	9664.948045
428.775292	9320.564140
429.153016	9712.523934
429.530679	9548.560405
429.908282	9559.628259
430.285824	9294.140933
430.663305	9972.597061
431.040726	9424.991642
431.418086	9400.484073
431.795385	9733.560669
432.172624	9833.463736
432.549802	9740.265404
432.926920	9810.531527
433.303977	9687.166930
433.680974	9890.645544
434.057910	9993.485082
434.434786	10065.518129
434.811601	9880.434687
435.188355	10443.518968
435.565050	10194.208705
435.941683	10115.163412
436.318257	10583.148848
436.694770	10763.629717
437.071222	10815.873715
437.447614	10629.976126
437.823946	10567.727958
438.200218	10650.095371
438.576429	10499.037196
438.952580	10748.193704
439.328670	10771.214133
439.704700	10572.433875
440.080670	10558.227903
440.456580	11073.935421
440.832429	10873.030317
441.208218	10470.272372
441.583947	10763.637279
441.959616	10945.688467
442.335224	10761.149469
442.710773	10862.892557
443.086261	11096.771848
443.461689	10352.180822
443.837057	11049.074971
444.212365	11280.894951
444.587612	10920.379355
444.962800	11132.574123
445.337927	10867.079235
445.712995	10549.960411
446.088002	11583.928791
446.462949	11287.637495
446.837837	11248.961762
447.212664	11169.334217
447.587431	11772.147832
447.962139	12519.440916
448.336786	14814.080886
448.711374	15300.632890
449.085901	13115.123819
449.460369	12762.767330
449.834776	12209.367105
450.209124	13145.852173
450.583412	13569.513262
450.957640	14494.360827
451.331808	13523.676571
451.705917	12604.986777
452.079965	11845.564676
452.453954	12766.167588
452.827883	12425.133531
453.201752	12714.115154
453.575562	12265.744849
453.949311	12671.545131
454.323001	12656.588027
454.696632	12902.188002
455.070202	13171.516687
455.443713	13359.032487
455.817164	13868.420918
456.190556	13822.059947
456.563888	14185.285164
456.937160	14325.945959
457.310373	13696.890617
457.683526	13807.869099
458.056619	13322.176611
458.429653	13538.681566
458.802628	12888.092935
459.175542	13311.806957
459.548398	14260.743675
459.921194	14619.434374
460.293930	14700.627198
460.666607	15535.313725
461.039224	16597.605828
461.411782	17321.041652
461.784280	17094.837517
462.156719	17210.776494
462.529099	16874.065226
462.901419	15834.438151
463.273680	15593.624752
463.645882	15494.918960
464.018024	15216.198605
464.390106	15441.298727
464.762130	16163.096176
465.134094	16955.724357
465.505999	19027.757054
465.877845	22308.396305
466.249631	25093.885862
466.621358	24699.392889
466.993026	23276.370940
467.364634	22686.250950
467.736184	21203.715659
468.107674	20423.118192
468.479105	20555.292205
468.850477	20005.723257
469.221790	19612.878740
469.593043	18920.390560
469.964238	18346.979474
470.335373	17984.165112
470.706449	18501.778186
471.077467	18082.976768
471.448425	19970.883842
471.819324	24107.122847
472.190164	25927.357472
472.560945	22230.618862
472.931667	19952.425657
473.302330	19355.248052
473.672934	18994.311519
474.043479	19205.135094
474.413965	19016.411938
474.784393	18604.695862
475.154761	19383.914574
475.525070	19292.228588
475.895321	19021.548873
476.265513	19630.958838
476.635645	20211.525842
477.005719	19961.963521
477.375734	20144.455810
477.745691	20631.390943
478.115588	21193.199813
478.485427	21743.436714
478.855207	22846.141227
479.224928	24647.126206
479.594591	26885.643009
479.964194	26772.186801
480.333739	26993.662333
480.703226	26585.046567
481.072653	26303.213300
481.442022	26926.700687
481.811333	27860.206432
482.180584	27729.678357
482.549777	26773.129497
482.918912	26459.186600
483.287988	26596.658865
483.657005	26207.703599
484.025964	26017.591605
484.394864	25874.178340
484.763706	25521.247159
485.132489	24997.788867
485.501213	25174.549365
485.869879	25086.825726
486.238487	24937.458858
486.607036	25065.869650
486.975527	24823.760675
487.343959	25107.970846
487.712333	25012.453584
488.080648	24676.306925
488.448905	25191.462436
488.817104	24967.839372
489.185244	25656.166080
489.553326	25601.041063
489.921350	26661.261252
490.289315	29010.146557
490.657222	30718.243235
491.025070	31233.504611
491.392861	30975.117750
491.760593	30109.788569
492.128267	29179.443627
492.495883	28127.382545
492.863440	27258.695956
493.230939	26393.170169
493.598380	26231.374337
493.965763	25848.324782
494.333088	25347.402969
494.700354	25328.886811
495.067563	25162.826162
495.434713	24927.825213
495.801805	25098.921975
496.168839	24874.041143
496.535815	24751.828450
496.902733	24959.483660
497.269593	24665.110522
497.636395	24829.900800
498.003139	24751.054633
498.369825	24482.056143
498.736453	24715.832091
499.103023	24572.789351
499.469535	24577.530556
499.835989	24801.118332
500.202385	24820.340252
500.568723	24348.694939
500.935003	24535.898187
501.301226	24242.805502
501.667390	25088.229688
502.033497	25280.506857
502.399546	25014.775035
502.765537	24554.295878
503.131470	24931.855616
503.497345	25068.743107
503.863163	24323.544622
504.228923	24855.557753
504.594625	25124.536078
504.960269	24677.642830
505.325856	25144.317565
505.691385	24538.017992
506.056856	25149.154553
506.422270	25149.394007
506.787625	24658.438555
507.152924	25085.512506
507.518164	25141.348326
507.883347	24947.515960
508.248472	24625.527382
508.613540	25400.682924
508.978550	25195.671800
509.343503	25210.376845
509.708398	25409.857824
510.073236	25582.257723
510.438016	25789.214733
510.802738	25453.184020
511.167403	25710.630706
511.532010	25454.255266
511.896561	26190.293974
512.261053	26164.309347
512.625488	26009.336716
512.989866	25893.622070
513.354186	25715.432405
513.718449	25854.626225
514.082655	26209.858692
514.446803	25938.032115
514.810894	26429.390860
515.174927	25921.741626
515.538904	25965.400539
515.902822	26461.119882
516.266684	26203.080861
516.630488	26116.632634
516.994235	26046.981532
517.357925	26399.262404
517.721558	26546.030557
518.085133	26670.567222
518.448651	26562.462198
518.812112	26336.573135
519.175516	26560.332310
519.538863	26709.394188
519.902152	26499.835944
520.265385	26742.111277
520.628560	26556.107823
520.991678	26539.043518
521.354739	26584.088748
521.717743	26686.908122
522.080690	26466.708001
522.443580	26789.036858
522.806413	26759.082321
523.169189	26873.337553
523.531908	26917.336743
523.894569	26554.812247
524.257174	26652.638358
524.619722	26779.317513
524.982213	26488.458059
525.344647	26505.560174
525.707025	26690.013472
526.069345	26618.285415
526.431608	26619.109644
526.793815	26778.248788
527.155964	26280.487778
527.518057	26445.809898
527.880093	26362.290582
528.242072	26594.430675
528.603995	26307.004247
528.965860	26100.339625
529.327669	26131.640149
529.689421	26123.412986
530.051117	25989.431720
530.412755	26142.350080
530.774337	25909.468937
531.135862	25813.918907
531.497331	25995.912123
531.858743	25598.336484
532.220098	26041.161520
532.581396	25746.984987
532.942638	25640.611600
533.303824	25757.677274
533.664953	25739.324954
534.026025	25423.857108
534.387040	25662.570866
534.747999	25705.367742
535.108902	25872.224893
535.469748	25360.593148
535.830537	25516.836149
536.191270	25664.756206
536.551947	25485.117209
536.912567	25103.300217
537.273131	25566.289869
537.633638	25213.096548
537.994089	25446.396107
538.354483	24923.749441
538.714821	25450.358454
539.075103	25481.807692
539.435328	25257.982982
539.795497	24867.636357
540.155609	25188.031931
540.515665	25510.784244
540.875665	24721.420210
541.235609	25080.491517
541.595496	24995.817776
541.955328	25359.045513
542.315102	25281.386538
542.674821	24790.927640
543.034483	24678.295660
543.394090	24847.512071
543.753640	24666.630430
544.113134	25282.490551
544.472571	24865.140986
544.831953	25183.315932
545.191278	24826.248484
545.550548	24715.874941
545.909761	24918.393215
546.268918	25154.379708
546.628019	25141.701207
546.987064	24807.656709
547.346053	24548.876638
547.704986	24635.670183
548.063863	24805.665453
548.422684	24827.428114
548.781449	24326.891949
549.140158	24750.051444
549.498811	24319.496576
549.857408	24093.050466
550.215949	24463.978566
550.574434	24180.708569
550.932864	24369.424164
551.291237	24559.480705
551.649555	24388.323449
552.007817	24456.706701
552.366022	24297.867505
552.724173	24321.336597
553.082267	24299.468072
553.440305	24791.726662
553.798288	24005.324307
554.156215	24494.394367
554.514086	24642.011955
554.871902	24048.605133
555.229661	24300.020078
555.587365	24151.684126
555.945014	24065.001486
556.302606	24268.308700
556.660143	24255.751186
557.017625	24483.755012
557.375050	23998.332226
557.732421	24385.817996
558.089735	24220.815989
558.446994	24271.295583
558.804197	24305.462004
559.161345	24192.096536
559.518437	23991.259487
559.875474	24158.651001
560.232455	24334.110881
560.589381	24149.486183
560.946251	24160.460775
561.303065	24457.241064
561.659825	24551.092225
562.016528	24153.055320
562.373177	23876.822774
562.729770	24250.014353
563.086307	24099.425005
563.442789	24265.241158
563.799216	24127.524396
564.155587	24099.500622
564.511904	24085.652572
564.868164	24050.246028
565.224370	24010.181458
565.580520	23954.670793
565.936615	24072.595984
566.292654	23775.987095
566.648638	23984.796728
567.004567	23833.214273
567.360441	23774.434419
567.716260	23503.278316
568.072023	23800.971053
568.427732	23604.209777
568.783385	23356.598383
569.138982	23613.112455
569.494525	23641.960458
569.850013	23400.920207
570.205445	23510.162011
570.560823	23328.383045
570.916145	23096.920986
571.271412	23285.147589
571.626625	23038.345299
571.981782	23139.732985
572.336884	22939.732768
572.691931	23083.168719
573.046923	22834.788548
573.401860	22704.452036
573.756743	22743.142892
574.111570	22636.320842
574.466342	22550.225496
574.821059	22621.182257
575.175722	22336.374708
575.530330	22276.321963
575.884882	22280.589300
576.239380	22217.887428
576.593823	22104.907609
576.948211	22076.382240
577.302544	21934.249428
577.656823	21800.626083
578.011047	21912.569946
578.365216	21785.883229
578.719330	21648.053042
579.073389	21532.348479
579.427394	21689.549300
579.781344	21441.990837
580.135239	21339.789005
580.489080	21273.273500
580.842866	21054.086652
581.196597	21277.747524
581.550273	21230.678271
581.903895	21114.734253
582.257463	21417.994945
582.610975	20963.562652
582.964434	21297.193775
583.317837	20953.129984
583.671186	21033.178466
584.024481	21024.716889
584.377721	20784.289139
584.730906	20884.739170
585.084037	20861.975840
585.437113	20793.431271
585.790135	21002.036738
586.143103	20448.936462
586.496016	20477.028291
586.848874	20711.608303
587.201679	20610.437387
587.554428	20325.776032
587.907124	20668.471150
588.259765	20408.196377
588.612352	20485.159673
588.964884	20057.551359
589.317362	20224.002698
589.669786	20295.002308
590.022155	20275.291397
590.374470	20534.313443
590.726731	20275.677045
591.078937	20089.693756
591.431090	20153.567696
591.783188	19928.006308
592.135232	19888.831502
592.487222	19984.578137
592.839157	19990.123406
593.191038	19866.302585
593.542866	19763.475650
593.894639	19462.606985
594.246358	19685.373053
594.598022	19567.664631
594.949633	19321.026179
595.301190	19316.831939
595.652692	19484.331838
596.004141	19691.578713
596.355535	19032.818373
596.706876	19053.265293
597.058162	18946.823850
597.409395	19187.549028
597.760573	19226.176870
598.111698	18996.214555
598.462768	18954.050344
598.813785	18932.751469
599.164748	18720.710456
599.515657	18786.653789
599.866511	18580.047140
600.217312	18930.031767
600.568060	18437.253937
600.918753	18750.430578
601.269392	18648.818561
601.619978	18451.928736
601.970510	18626.355179
602.320988	18587.261031
602.671412	18776.584085
603.021783	18726.764882
603.372100	18423.519313
603.722363	18583.132326
604.072572	18521.668058
604.422728	18680.497172
604.772830	18420.945804
605.122878	18374.887302
605.472872	18356.030866
605.822813	18342.911263
606.172701	18334.558071
606.522534	18502.022682
606.872314	18546.773004
607.222041	18383.918529
607.571714	18585.186597
607.921333	18421.512934
608.270899	18495.658225
608.620411	18639.361356
608.969870	18456.957287
609.319276	18430.055169
609.668627	18460.314695
610.017926	18593.418801
610.367171	18707.278302
610.716362	18760.749820
611.065500	18584.934539
611.414585	18729.411488
611.763616	18714.706442
612.112594	18645.937542
612.461518	18620.250342
612.810389	18815.342996
613.159207	18672.244803
613.507971	18584.412779
613.856682	18826.244491
614.205340	18747.804137
614.553945	18903.926151
614.902496	18645.985433
615.250994	18853.557463
615.599439	18801.066448
615.947830	18793.232495
616.296169	18874.712665
616.644454	18838.423919
616.992686	18801.424370
617.340864	19024.175315
617.688990	18774.786913
618.037063	18948.038768
618.385082	18819.370878
618.733048	19077.132636
619.080961	18975.656729
619.428821	19005.495319
619.776628	18874.795844
620.124382	18805.580802
620.472083	18860.226909
620.819731	18861.222537
621.167326	18546.934321
621.514868	18593.078523
621.862357	18387.701915
622.209793	18380.092293
622.557176	18212.168938
622.904506	18044.230460
623.251783	17991.323550
623.599007	17714.549080
623.946179	17670.733892
624.293297	17600.727388
624.640363	17322.624575
624.987376	17350.741610
625.334336	17147.719221
625.681243	17003.577509
626.028097	17022.123914
626.374899	16927.687979
626.721647	16804.865307
627.068343	16646.031152
627.414987	16576.448106
627.761577	16534.750202
628.108115	16560.712144
628.454600	16291.212059
628.801032	16399.170890
629.147412	16334.611353
629.493739	16336.206878
629.840014	16151.574618
630.186236	16249.771254
630.532405	16011.503638
630.878521	16211.009822
631.224585	16121.466327
631.570597	15946.613906
631.916556	15968.195086
632.262462	15947.130624
632.608316	15858.184506
632.954117	15802.888089
633.299866	15785.932168
633.645562	15702.579210
633.991206	15481.968235
634.336797	15348.599469
634.682336	15316.257947
635.027823	15176.849878
635.373257	15043.614703
635.718639	14974.079547
636.063968	14901.764195
