Dividing Wavelength (nm)	Counts (n)	Blue Motor Position (mm): 30.100000	Red Motor Position (mm): 0.000000	
326.493990	2212.461600
326.888308	2212.461600
327.282561	2212.461600
327.676750	2171.792091
328.070874	2169.647080
328.464933	2171.393840
328.858929	2173.329643
329.252859	2180.193174
329.646726	2186.192147
330.040528	2199.092460
330.434265	2213.280788
330.827938	2229.422562
331.221547	2249.640110
331.615091	2264.214085
332.008571	2282.856272
332.401986	2302.244550
332.795338	2322.169711
333.188625	2340.242247
333.581847	2359.963241
333.975006	2378.691128
334.368100	2398.414642
334.761129	2414.377456
335.154095	2431.935794
335.546996	2457.915381
335.939833	2496.936432
336.332606	2512.458145
336.725315	2525.492048
337.117960	2538.997299
337.510540	2548.474668
337.903056	2561.672409
338.295508	2566.519479
338.687896	2574.938206
339.080220	2583.235945
339.472480	2590.863211
339.864676	2594.938983
340.256807	2599.539036
340.648875	2607.766199
341.040879	2607.622527
341.432818	2611.536982
341.824694	2613.588732
342.216506	2613.871037
342.608253	2615.809360
342.999937	2616.507560
343.391557	2617.150307
343.783113	2614.922117
344.174605	2615.259875
344.566033	2614.261726
344.957397	2614.654936
345.348697	2610.798453
345.739934	2610.337188
346.131106	2609.646550
346.522215	2605.076744
346.913260	2605.079264
347.304241	2601.076588
347.695159	2601.520210
348.086012	2599.818820
348.476802	2598.198089
348.867528	2591.319435
349.258191	2589.151739
349.648789	2586.641244
350.039324	2589.156780
350.429796	2589.489496
350.820203	2587.157962
351.210548	2589.557552
351.600828	2584.523960
351.991045	2584.274422
352.381198	2584.075297
352.771288	2584.309711
353.161314	2582.825091
353.551276	2582.003383
353.941175	2582.194947
354.331010	2579.777713
354.720782	2581.153948
355.110490	2583.117478
355.500135	2580.763259
355.889717	2580.808629
356.279235	2579.792837
356.668689	2582.691500
357.058080	2581.529514
357.447408	2581.113619
357.836672	2581.101016
358.225873	2583.266192
358.615010	2580.985070
359.004084	2583.288877
359.393095	2584.168558
359.782043	2584.092941
360.170927	2585.602767
360.559748	2585.290215
360.948505	2585.297777
361.337199	2586.603436
361.725830	2587.964547
362.114398	2583.989597
362.502903	2587.752819
362.891344	2589.078642
363.279722	2590.974116
363.668037	2591.526122
364.056289	2587.072263
364.444478	2590.696852
364.832603	2588.272057
365.220665	2591.306832
365.608665	2592.453695
365.996601	2593.315732
366.384474	2592.572162
366.772284	2591.886565
367.160031	2593.535022
367.547715	2594.787749
367.935336	2594.369333
368.322893	2591.821030
368.710388	2592.126020
369.097820	2592.138623
369.485189	2588.521595
369.872495	2596.489138
370.259738	2595.395208
370.646918	2595.339755
371.034035	2597.388984
371.421090	2595.841350
371.808081	2595.173397
372.195010	2598.031731
372.581875	2594.691967
372.968678	2597.706577
373.355418	2597.633480
373.742096	2599.995261
374.128710	2600.113728
374.515262	2597.603233
374.901751	2600.217072
375.288177	2599.160950
375.674540	2600.426279
376.060841	2602.241095
376.447079	2600.632967
376.833254	2602.319233
377.219367	2602.480550
377.605417	2605.119594
377.991404	2600.290168
378.377329	2601.898296
378.763191	2602.389809
379.148991	2602.946856
379.534727	2601.893255
379.920402	2600.879983
380.306013	2605.096908
380.691563	2601.873091
381.077049	2604.955756
381.462474	2605.119594
381.847835	2602.888883
382.233134	2604.809563
382.618371	2603.632453
383.003545	2606.851230
383.388657	2605.943822
383.773706	2606.352156
384.158693	2609.674276
384.543618	2608.824842
384.928480	2607.536827
385.313280	2606.521034
385.698017	2609.444904
386.082692	2605.651435
386.467305	2610.130501
386.851856	2610.669904
387.236344	2611.637806
387.620770	2605.757300
388.005133	2609.144955
388.389435	2606.657146
388.773674	2607.620006
389.157851	2610.556478
389.541965	2611.289966
389.926018	2610.503546
390.310008	2613.654267
390.693936	2613.339195
391.077802	2611.907507
391.461606	2611.685697
391.845348	2612.577981
392.229027	2610.790892
392.612645	2613.762652
392.996200	2614.692745
393.379694	2614.503702
393.763125	2615.554782
394.146494	2611.534462
394.529801	2615.148969
394.913047	2617.538476
395.296230	2616.409258
395.679351	2616.890688
396.062410	2616.936058
396.445408	2618.438322
396.828343	2618.234155
397.211217	2618.675256
397.594028	2618.985287
397.976778	2619.565020
398.359466	2618.980246
398.742092	2620.777417
399.124656	2619.103754
399.507158	2620.394290
399.889598	2620.026286
400.271977	2620.512757
400.654294	2622.864455
401.036549	2619.045781
401.418742	2619.612911
401.800874	2622.950155
402.182944	2622.360340
402.564952	2621.372274
402.946898	2625.831174
403.328783	2625.011987
403.710606	2623.290433
404.092367	2624.679271
404.474067	2624.770011
404.855705	2625.712707
405.237282	2624.341513
405.618797	2627.893006
406.000250	2627.502317
406.381642	2625.059878
406.762972	2626.509209
407.144240	2627.305712
407.525447	2625.354785
407.906593	2625.667337
408.287677	2632.349386
408.668700	2632.024232
409.049661	2631.966258
409.430560	2632.997174
409.811399	2633.707977
410.192176	2634.002885
410.572891	2632.982051
410.953545	2634.199490
411.334138	2632.220837
411.714669	2635.979017
412.095139	2634.191928
412.475547	2634.353245
412.855894	2637.017495
413.236180	2636.752834
413.616405	2638.610499
413.996568	2638.290386
414.376670	2640.868936
414.756711	2640.816004
415.136691	2641.698206
415.516609	2643.742394
415.896466	2642.529996
416.276262	2642.537558
416.655997	2644.662404
417.035670	2643.933958
417.415283	2646.043681
417.794834	2646.956129
418.174324	2647.145173
418.553753	2644.987559
418.933121	2649.816984
419.312428	2649.345636
419.691674	2649.597694
420.070859	2653.126502
420.449983	2653.484424
420.829045	2653.895278
421.208047	2653.804537
421.586988	2658.346617
421.965867	2664.640497
422.344686	2666.984634
422.723444	2670.523524
423.102141	2667.352638
423.480777	2678.460820
423.859352	2680.724298
424.237866	2691.451874
424.616319	2698.174252
424.994712	2713.030533
425.373044	2717.512119
425.751314	2733.653893
426.129524	2748.225348
426.507673	2768.153030
426.885762	2790.129940
427.263789	2815.839824
427.641756	2840.889318
428.019662	2872.446941
428.397508	2913.965884
428.775292	2941.835903
429.153016	2995.864469
429.530679	3030.981147
429.908282	3082.169023
430.285824	3113.464506
430.663305	3221.133470
431.040726	3235.369689
431.418086	3295.215747
431.795385	3390.359964
432.172624	3472.112356
432.549802	3535.288096
432.926920	3620.710447
433.303977	3671.323632
433.680974	3784.149696
434.057910	3889.572826
434.434786	3985.337105
434.811601	4051.356056
435.188355	4247.323350
435.565050	4291.451090
435.941683	4371.368502
436.318257	4597.688583
436.694770	4725.310434
437.071222	4859.634499
437.447614	4926.699489
437.823946	5006.591695
438.200218	5173.300133
438.576429	5221.687648
438.952580	5413.251494
439.328670	5553.415735
439.704700	5588.343370
440.080670	5704.297470
440.456580	6049.147681
440.832429	6077.426034
441.208218	6023.639443
441.583947	6282.548063
441.959616	6476.642568
442.335224	6518.481625
442.710773	6709.241407
443.086261	6937.207425
443.461689	6687.624939
443.837057	7138.646892
444.212365	7434.860050
444.587612	7363.905810
444.962800	7634.804815
445.337927	7620.051878
445.712995	7464.824669
446.088002	8280.130480
446.462949	8174.891353
446.837837	8279.797764
447.212664	8417.113754
447.587431	8859.593471
447.962139	9460.529256
448.336786	11109.326842
448.711374	11714.320756
449.085901	10333.725158
449.460369	10164.528912
449.834776	9876.432010
450.209124	10626.220466
450.583412	11032.134174
450.957640	11903.636248
451.331808	11395.089689
451.705917	10674.640749
452.079965	10220.218538
452.453954	11056.908924
452.827883	10832.280150
453.201752	11162.296766
453.575562	10823.448048
453.949311	11264.342323
454.323001	11296.986314
454.696632	11563.585215
455.070202	11877.462577
455.443713	12166.043429
455.817164	12653.833037
456.190556	12729.339439
456.563888	13130.678300
456.937160	13368.351059
457.310373	12790.473512
457.683526	12920.063933
458.056619	12542.481510
458.429653	12710.944269
458.802628	12251.417890
459.175542	12607.472065
459.548398	13572.038881
459.921194	13911.144697
460.293930	13996.340197
460.666607	14882.781730
461.039224	15886.251130
461.411782	16593.212463
461.784280	16553.268880
462.156719	16629.375180
462.529099	16361.694952
462.901419	15328.384442
463.273680	15149.025230
463.645882	15028.614749
464.018024	14788.615497
464.390106	15016.420198
464.762130	15748.307517
465.134094	16481.079557
465.505999	18411.962468
465.877845	21631.520578
466.249631	24465.306910
466.621358	24237.474482
466.993026	22808.188900
467.364634	22282.343622
467.736184	20848.518480
468.107674	20056.333921
468.479105	20189.584220
468.850477	19661.238529
469.221790	19246.003728
469.593043	18566.415860
469.964238	18027.579528
470.335373	17694.644084
470.706449	18114.970451
471.077467	17657.866347
471.448425	19466.350042
471.819324	23418.486108
472.190164	25543.524018
472.560945	22074.519534
472.931667	19664.853036
473.302330	19022.584831
473.672934	18501.803391
474.043479	18875.592346
474.413965	18680.033386
474.784393	18334.263164
475.154761	18985.038317
475.525070	19014.902112
475.895321	18651.124889
476.265513	19225.342559
476.635645	19796.076792
477.005719	19597.780484
477.375734	19792.890782
477.745691	20282.958992
478.115588	20771.749269
478.485427	21286.277157
478.855207	22331.182320
479.224928	24072.633793
479.594591	26280.782686
479.964194	26379.576698
480.333739	26577.595742
480.703226	26138.365048
481.072653	25804.496991
481.442022	26357.597267
481.811333	27265.312470
482.180584	27214.157361
482.549777	26257.484993
482.918912	25890.526802
483.287988	26008.096592
483.657005	25714.467024
484.025964	25423.723517
484.394864	25363.655649
484.763706	25074.021196
485.132489	24492.161136
485.501213	24654.493852
485.869879	24574.427726
486.238487	24371.579257
486.607036	24529.190932
486.975527	24202.698083
487.343959	24544.634507
487.712333	24493.643236
488.080648	24168.209028
488.448905	24635.017354
488.817104	24387.302616
489.185244	25041.518356
489.553326	25025.313567
489.921350	25977.930327
490.289315	28227.882988
490.657222	30053.599868
491.025070	30543.925176
491.392861	30340.754073
491.760593	29500.822225
492.128267	28609.286606
492.495883	27578.181601
492.863440	26709.356380
493.230939	25825.914333
493.598380	25667.077657
493.965763	25270.139724
494.333088	24836.134187
494.700354	24748.032462
495.067563	24638.417612
495.434713	24380.827254
495.801805	24523.597772
496.168839	24347.147305
496.535815	24159.981865
496.902733	24382.828592
497.269593	24059.073089
497.636395	24252.860084
498.003139	24229.683379
498.369825	23975.054698
498.736453	24169.325644
499.103023	24052.605288
499.469535	24076.255862
499.835989	24282.345793
500.202385	24313.968951
500.568723	23808.235356
500.935003	24080.268620
501.301226	23664.275125
501.667390	24495.992413
502.033497	24751.478090
502.399546	24462.662825
502.765537	24043.165728
503.131470	24432.567136
503.497345	24562.155037
503.863163	23785.290544
504.228923	24396.515324
504.594625	24589.722587
504.960269	24100.108081
505.325856	24610.340906
505.691385	24014.428630
506.056856	24614.633448
506.422270	24587.186886
506.787625	24172.330172
507.152924	24572.749022
507.518164	24598.249698
507.883347	24407.222735
508.248472	24104.539255
508.613540	24875.818150
508.978550	24665.380224
509.343503	24653.082329
509.708398	24925.292034
510.073236	25054.892537
510.438016	25282.908967
510.802738	24960.370903
511.167403	25216.968154
511.532010	24910.105558
511.896561	25682.611973
512.261053	25650.729196
512.625488	25487.461346
512.989866	25386.653392
513.354186	25236.570681
513.718449	25332.203890
514.082655	25718.898198
514.446803	25456.188548
514.810894	25907.364256
515.174927	25399.800722
515.538904	25432.744662
515.902822	25922.873365
516.266684	25665.454406
516.630488	25566.829272
516.994235	25558.770988
517.357925	25851.425092
517.721558	26034.595417
518.085133	26123.221422
518.448651	26050.454887
518.812112	25782.394052
519.175516	25970.393802
519.538863	26136.179708
519.902152	25908.748052
520.265385	26196.159357
520.628560	25983.067263
520.991678	26000.207186
521.354739	26076.873054
521.717743	26140.605841
522.080690	25925.935866
522.443580	26258.891475
522.806413	26250.558448
523.169189	26354.111309
523.531908	26400.086632
523.894569	26001.412022
524.257174	26079.441522
524.619722	26264.996312
524.982213	25962.758975
525.344647	26029.521496
525.707025	26146.446018
526.069345	26143.144062
526.431608	26093.350065
526.793815	26286.050691
527.155964	25740.827218
527.518057	25912.246613
527.880093	25828.197976
528.242072	26072.693937
528.603995	25773.007423
528.965860	25572.092237
529.327669	25624.152233
529.689421	25602.732370
530.051117	25434.284735
530.412755	25630.297399
530.774337	25425.422386
531.135862	25281.033658
531.497331	25493.178014
531.858743	25045.286619
532.220098	25535.387596
532.581396	25203.049528
532.942638	25149.134388
533.303824	25223.995523
533.664953	25251.610963
534.026025	24921.037300
534.387040	25159.766181
534.747999	25219.682815
535.108902	25379.646189
535.469748	24860.833320
535.830537	25062.333280
536.191270	25168.109291
536.551947	25059.260697
536.912567	24714.357554
537.273131	25046.967843
537.633638	24750.245528
537.994089	24967.390709
538.354483	24512.045968
538.714821	25004.407902
539.075103	25048.036568
539.435328	24833.389278
539.795497	24392.457196
540.155609	24778.564210
540.515665	25080.824233
540.875665	24320.966072
541.235609	24611.195382
541.595496	24577.142387
541.955328	24943.856083
542.315102	24847.872513
542.674821	24394.130859
543.034483	24275.474700
543.394090	24440.156593
543.753640	24242.787858
544.113134	24876.914601
544.472571	24462.251971
544.831953	24763.992755
545.191278	24373.164700
545.550548	24300.758607
545.909761	24505.187478
546.268918	24736.432767
546.628019	24699.009761
546.987064	24406.627879
547.346053	24161.317771
547.704986	24279.245483
548.063863	24444.829743
548.422684	24447.110865
548.781449	23980.438651
549.140158	24391.075919
549.498811	23966.441887
549.857408	23706.489748
550.215949	24137.614266
550.574434	23814.917405
550.932864	24046.550863
551.291237	24182.886348
551.649555	24063.128697
552.007817	24109.202323
552.366022	23971.876251
552.724173	24027.162585
553.082267	23944.127219
553.440305	24438.777838
553.798288	23695.678993
554.156215	24211.817530
554.514086	24301.194667
554.871902	23671.065560
555.229661	23961.935095
555.587365	23826.759076
555.945014	23671.972967
556.302606	23940.762249
556.660143	23876.086766
557.017625	24134.140911
557.375050	23666.210928
557.732421	24054.835999
558.089735	23865.923800
558.446994	23928.666001
558.804197	23955.129538
559.161345	23913.023300
559.518437	23655.569053
559.875474	23866.455642
560.232455	24025.123438
560.589381	23859.990362
560.946251	23834.235107
561.303065	24168.103164
561.659825	24249.419496
562.016528	23849.880328
562.373177	23588.778805
562.729770	23942.624956
563.086307	23808.857938
563.442789	23977.333300
563.799216	23802.387617
564.155587	23815.333300
564.511904	23797.381752
564.868164	23735.355395
565.224370	23723.876687
565.580520	23624.268528
565.936615	23751.590431
566.292654	23434.703500
566.648638	23731.390527
567.004567	23554.423342
567.360441	23510.885417
567.716260	23252.261622
568.072023	23579.518206
568.427732	23329.328261
568.783385	23118.285396
569.138982	23336.995856
569.494525	23379.631415
569.850013	23132.627479
570.205445	23222.624678
570.560823	23028.469679
570.916145	22791.573257
571.271412	22966.713024
571.626625	22723.477351
571.981782	22833.515657
572.336884	22634.803454
572.691931	22769.878651
573.046923	22507.471470
573.401860	22385.848592
573.756743	22394.405951
574.111570	22291.924334
574.466342	22238.246128
574.821059	22333.407989
575.175722	22040.680788
575.530330	22006.610150
575.884882	22043.881921
576.239380	21951.709464
576.593823	21839.304336
576.948211	21822.058549
577.302544	21653.578146
577.656823	21525.560565
578.011047	21629.557048
578.365216	21497.556955
578.719330	21388.920090
579.073389	21277.674428
579.427394	21431.802665
579.781344	21197.900688
580.135239	21096.180286
580.489080	21052.813760
580.842866	20822.987556
581.196597	21014.269098
581.550273	20993.943166
581.903895	20880.209694
582.257463	21202.470494
582.610975	20722.494675
582.964434	21034.766429
583.317837	20740.945298
583.671186	20828.653813
584.024481	20800.294802
584.377721	20571.325595
584.730906	20642.121039
585.084037	20657.057978
585.437113	20557.606094
585.790135	20769.528640
586.143103	20229.865559
586.496016	20238.876622
586.848874	20477.444187
587.201679	20417.018396
587.554428	20091.654765
587.907124	20425.225394
588.259765	20198.053358
588.612352	20274.545306
588.964884	19844.187043
589.317362	20011.873464
589.669786	20064.346835
590.022155	20122.667943
590.374470	20293.086670
590.726731	20093.646021
591.078937	19863.832420
591.431090	19957.426482
591.783188	19704.985662
592.135232	19678.078503
592.487222	19767.518655
592.839157	19798.630136
593.191038	19666.738428
593.542866	19564.861750
593.894639	19280.850704
594.246358	19503.384879
594.598022	19412.772659
594.949633	19159.091715
595.301190	19126.299009
595.652692	19292.463002
596.004141	19526.342293
596.355535	18860.531899
596.706876	18869.714361
597.058162	18763.204862
597.409395	18994.601386
597.760573	19066.936902
598.111698	18837.730760
598.462768	18776.871430
598.813785	18740.839783
599.164748	18560.066527
599.515657	18601.335933
599.866511	18396.584428
600.217312	18754.718080
600.568060	18277.197302
600.918753	18582.769363
601.269392	18487.547008
601.619978	18271.483154
601.970510	18488.189755
602.320988	18430.360159
602.671412	18633.712743
603.021783	18535.599287
603.372100	18263.649201
603.722363	18400.345129
604.072572	18340.194081
604.422728	18492.507504
604.772830	18245.425430
605.122878	18197.310137
605.472872	18188.762861
605.822813	18175.045881
606.172701	18146.664185
606.522534	18340.912446
606.872314	18367.355818
607.222041	18205.126446
607.571714	18409.280574
607.921333	18235.670798
608.270899	18321.204055
608.620411	18500.046549
608.969870	18261.605013
609.319276	18267.062062
609.668627	18300.409295
610.017926	18436.896015
610.367171	18551.438592
610.716362	18596.521631
611.065500	18402.701868
611.414585	18547.133447
611.763616	18529.184418
612.112594	18466.043967
612.461518	18433.715047
612.810389	18633.357342
613.159207	18491.083378
613.507971	18403.982322
613.856682	18678.027006
614.205340	18611.599722
614.553945	18754.387884
614.902496	18489.646649
615.250994	18725.350838
615.599439	18680.852573
615.947830	18654.477256
616.296169	18700.336633
616.644454	18661.088729
616.992686	18638.184247
617.340864	18851.644345
617.688990	18614.606770
618.037063	18782.300753
618.385082	18636.661818
618.733048	18909.877233
619.080961	18782.769580
619.428821	18820.293409
619.776628	18706.774186
620.124382	18629.203431
620.472083	18670.460234
620.819731	18694.211631
621.167326	18387.679230
621.514868	18427.464016
621.862357	18199.162761
622.209793	18210.200368
622.557176	18033.293676
622.904506	17871.371815
623.251783	17772.416485
623.599007	17536.435033
623.946179	17486.426787
624.293297	17426.469823
624.640363	17184.275148
624.987376	17197.445163
625.334336	16987.415570
625.681243	16833.733475
626.028097	16848.728387
626.374899	16772.054957
626.721647	16637.158722
627.068343	16477.638970
627.414987	16411.451140
627.761577	16381.030297
628.108115	16422.047646
628.454600	16145.721839
628.801032	16249.461223
629.147412	16173.274265
629.493739	16182.262643
629.840014	15994.431771
630.186236	16098.342554
630.532405	15858.431522
630.878521	16054.940740
631.224585	15944.980572
631.570597	15773.561177
631.916556	15800.460774
632.262462	15786.857220
632.608316	15702.833788
632.954117	15652.449976
633.299866	15647.197094
633.645562	15563.609722
633.991206	15321.223483
634.336797	15191.214646
634.682336	15154.898174
635.027823	15046.563778
635.373257	14922.286733
635.718639	14823.107072
636.063968	14774.205359
636.409245	14525.237894
636.754470	14549.064907
