Dividing Wavelength (nm)	Counts (n)	Blue Motor Position (mm): 38.300000	Red Motor Position (mm): 0.000000	
326.493990	2241.077710
326.888308	2241.077710
327.282561	2241.077710
327.676750	2203.385003
328.070874	2199.677234
328.464933	2198.379137
328.858929	2202.956504
329.252859	2207.473378
329.646726	2214.341950
330.040528	2230.337532
330.434265	2241.959912
330.827938	2260.115627
331.221547	2277.152207
331.615091	2292.331121
332.008571	2313.902218
332.401986	2330.845536
332.795338	2351.123578
333.188625	2369.722915
333.581847	2390.847870
333.975006	2407.874367
334.368100	2426.700556
334.761129	2445.196550
335.154095	2462.550722
335.546996	2491.857470
335.939833	2526.754857
336.332606	2544.436704
336.725315	2556.159908
337.117960	2566.353121
337.510540	2581.988259
337.903056	2590.585947
338.295508	2600.552308
338.687896	2610.271653
339.080220	2617.987139
339.472480	2623.461832
339.864676	2626.610032
340.256807	2633.443317
340.648875	2640.972280
341.040879	2640.016981
341.432818	2643.986890
341.824694	2647.200625
342.216506	2647.737508
342.608253	2646.930924
342.999937	2645.796664
343.391557	2648.455873
343.783113	2649.131387
344.174605	2645.829432
344.566033	2647.525780
344.957397	2647.661891
345.348697	2643.981849
345.739934	2642.905562
346.131106	2641.544451
346.522215	2640.148051
346.913260	2636.200828
347.304241	2637.433390
347.695159	2632.578759
348.086012	2631.631022
348.476802	2629.465846
348.867528	2626.068108
349.258191	2621.589043
349.648789	2621.004269
350.039324	2621.241204
350.429796	2621.135339
350.820203	2619.013014
351.210548	2620.774897
351.600828	2617.263733
351.991045	2620.323714
352.381198	2615.247272
352.771288	2619.441512
353.161314	2617.430091
353.551276	2612.857765
353.941175	2615.685852
354.331010	2617.737602
354.720782	2616.426902
355.110490	2615.005296
355.500135	2614.034874
355.889717	2614.541510
356.279235	2612.020933
356.668689	2615.983280
357.058080	2614.874226
357.447408	2615.877416
357.836672	2617.155348
358.225873	2614.899432
358.615010	2615.746346
359.004084	2614.695265
359.393095	2614.775924
359.782043	2616.689042
360.170927	2618.864300
360.559748	2617.871192
360.948505	2622.451081
361.337199	2620.099382
361.725830	2623.154322
362.114398	2617.563682
362.502903	2622.231790
362.891344	2621.712552
363.279722	2620.840432
363.668037	2622.191461
364.056289	2623.277830
364.444478	2623.713890
364.832603	2625.347223
365.220665	2625.858901
365.608665	2627.146915
365.996601	2625.735392
366.384474	2627.966103
366.772284	2627.121710
367.160031	2626.829323
367.547715	2630.751340
367.935336	2630.955507
368.322893	2626.567183
368.710388	2625.574075
369.097820	2628.210599
369.485189	2622.887140
369.872495	2631.053810
370.259738	2632.183028
370.646918	2632.351907
371.034035	2631.930970
371.421090	2631.033645
371.808081	2630.816875
372.195010	2632.591362
372.581875	2637.347690
372.968678	2633.544140
373.355418	2635.863070
373.742096	2634.678399
374.128710	2636.296610
374.515262	2635.454737
374.901751	2636.437762
375.288177	2637.506487
375.674540	2638.560088
376.060841	2638.124028
376.447079	2639.994296
376.833254	2640.042187
377.219367	2640.011940
377.605417	2642.141827
377.991404	2643.535707
378.377329	2640.642084
378.763191	2641.368010
379.148991	2643.593680
379.534727	2642.199801
379.920402	2644.881695
380.306013	2644.385141
380.691563	2647.074597
381.077049	2646.134421
381.462474	2647.568630
381.847835	2648.012251
382.233134	2647.858496
382.618371	2649.227169
383.003545	2648.223980
383.388657	2651.102478
383.773706	2650.850421
384.158693	2650.684063
384.543618	2650.076604
384.928480	2650.585760
385.313280	2654.953920
385.698017	2650.353867
386.082692	2651.969557
386.467305	2651.495688
386.851856	2653.849907
387.236344	2654.245638
387.620770	2653.091214
388.005133	2653.149187
388.389435	2655.337048
388.773674	2648.612148
389.157851	2655.947027
389.541965	2658.495331
389.926018	2659.674961
390.310008	2658.301246
390.693936	2662.455157
391.077802	2661.235198
391.461606	2664.280055
391.845348	2667.972700
392.229027	2668.867505
392.612645	2672.991168
392.996200	2679.849658
393.379694	2684.931141
393.763125	2694.889941
394.146494	2703.268338
394.529801	2714.815101
394.913047	2731.201372
395.296230	2744.734349
395.679351	2770.938267
396.062410	2796.007925
396.445408	2825.697801
396.828343	2859.960003
397.211217	2902.774523
397.594028	2936.623350
397.976778	2993.303563
398.359466	3049.850186
398.742092	3107.372272
399.124656	3145.959784
399.507158	3229.622773
399.889598	3309.144455
400.271977	3406.738673
400.654294	3464.074236
401.036549	3545.347718
401.418742	3591.388576
401.800874	3732.709762
402.182944	3821.653360
402.564952	3946.822690
402.946898	4050.799008
403.328783	4055.603228
403.710606	4139.193121
404.092367	4375.671127
404.474067	4467.427689
404.855705	4495.401051
405.237282	4533.428995
405.618797	4755.532152
406.000250	4822.881967
406.381642	5023.051063
406.762972	5109.627839
407.144240	5225.987752
407.525447	5281.919354
407.906593	5379.138006
408.287677	5565.443928
408.668700	5564.965019
409.049661	5724.877981
409.430560	5804.308921
409.811399	5739.557821
410.192176	6026.298651
410.572891	6079.737403
410.953545	6315.691129
411.334138	6129.405371
411.714669	6328.941802
412.095139	6185.934350
412.475547	6444.243073
412.855894	6545.456839
413.236180	6740.098310
413.616405	6489.265618
413.996568	6712.399690
414.376670	6765.210818
414.756711	6697.868564
415.136691	6806.586088
415.516609	7022.715477
415.896466	7037.470934
416.276262	7233.576860
416.655997	7230.602579
417.035670	7444.377749
417.415283	7781.663709
417.794834	7831.104825
418.174324	7708.410702
418.553753	7637.035525
418.933121	7963.097356
419.312428	8068.875887
419.691674	7860.565328
420.070859	8330.370620
420.449983	8022.187241
420.829045	8379.181592
421.208047	8166.540681
421.586988	8459.681257
421.965867	8482.512643
422.344686	8603.933874
422.723444	8628.401114
423.102141	8006.824325
423.480777	8755.544056
423.859352	8277.194008
424.237866	8894.505982
424.616319	8766.551415
424.994712	9170.746089
425.373044	8746.517870
425.751314	9203.122900
426.129524	9063.132578
426.507673	9193.010345
426.885762	9350.546403
427.263789	9268.836861
427.641756	9184.188326
428.019662	9283.209190
428.397508	9530.119865
428.775292	9216.073624
429.153016	9595.349875
429.530679	9424.187578
429.908282	9472.955701
430.285824	9187.802833
430.663305	9866.579075
431.040726	9315.586001
431.418086	9306.040576
431.795385	9630.642993
432.172624	9714.928565
432.549802	9636.437799
432.926920	9715.374707
433.303977	9592.219318
433.680974	9791.407910
434.057910	9877.346980
434.434786	9950.995717
434.811601	9793.915884
435.188355	10363.624242
435.565050	10087.923538
435.941683	10011.635757
436.318257	10505.242856
436.694770	10631.979984
437.071222	10698.371980
437.447614	10549.967973
437.823946	10441.189955
438.200218	10580.257746
438.576429	10400.243183
438.952580	10641.351489
439.328670	10691.833604
439.704700	10474.638011
440.080670	10461.478079
440.456580	11018.341577
440.832429	10777.976841
441.208218	10377.260563
441.583947	10700.869872
441.959616	10850.347645
442.335224	10660.502833
442.710773	10796.722371
443.086261	11000.778197
443.461689	10282.736407
443.837057	10937.776377
444.212365	11216.806762
444.587612	10851.227327
444.962800	11081.660990
445.337927	10853.553819
445.712995	10440.027969
446.088002	11526.212621
446.462949	11183.673779
446.837837	11159.004893
447.212664	11141.547377
447.587431	11671.475990
447.962139	12385.885628
448.336786	14649.638447
448.711374	15198.602457
449.085901	13053.248697
449.460369	12664.306034
449.834776	12103.190323
450.209124	12986.077843
450.583412	13396.831058
450.957640	14347.017982
451.331808	13478.051608
451.705917	12471.998618
452.079965	11773.571958
452.453954	12682.882686
452.827883	12311.052219
453.201752	12599.381013
453.575562	12121.935853
453.949311	12545.412941
454.323001	12508.310049
454.696632	12741.531470
455.070202	13021.524716
455.443713	13253.511054
455.817164	13720.377353
456.190556	13707.421588
456.563888	14066.303851
456.937160	14234.849788
457.310373	13573.442842
457.683526	13661.925174
458.056619	13206.308210
458.429653	13367.730998
458.802628	12791.685909
459.175542	13168.073579
459.548398	14111.770017
459.921194	14454.281133
460.293930	14526.379715
460.666607	15403.842954
461.039224	16446.393898
461.411782	17144.538253
461.784280	17002.992736
462.156719	17067.065801
462.529099	16752.719612
462.901419	15688.849627
463.273680	15470.519775
463.645882	15344.276680
464.018024	15070.544547
464.390106	15297.081397
464.762130	16017.936151
465.134094	16786.918799
465.505999	18787.528430
465.877845	22051.340308
466.249631	24879.420054
466.621358	24548.727924
466.993026	23113.917237
467.364634	22554.981824
467.736184	21083.048080
468.107674	20285.227511
468.479105	20415.032181
468.850477	19884.448218
469.221790	19469.440269
469.593043	18780.808572
469.964238	18220.902737
470.335373	17874.827526
470.706449	18330.820056
471.077467	17897.331237
471.448425	19732.999354
471.819324	23784.839361
472.190164	25760.903613
472.560945	22188.585722
472.931667	19828.516617
473.302330	19194.518424
473.672934	18750.034848
474.043479	19054.639007
474.413965	18869.999186
474.784393	18483.932501
475.154761	19192.728814
475.525070	19165.199073
475.895321	18849.930352
476.265513	19428.755637
476.635645	20021.537356
477.005719	19804.369490
477.375734	19988.490072
477.745691	20467.182918
478.115588	20993.925522
478.485427	21542.508924
478.855207	22597.400613
479.224928	24365.262691
479.594591	26590.077639
479.964194	26594.057630
480.333739	26824.324934
480.703226	26382.767748
481.072653	26080.036378
481.442022	26664.008680
481.811333	27575.908041
482.180584	27487.960071
482.549777	26540.228189
482.918912	26182.800299
483.287988	26308.851830
483.657005	25966.176877
484.025964	25727.150567
484.394864	25629.624405
484.763706	25316.601519
485.132489	24755.269038
485.501213	24923.877990
485.869879	24837.394475
486.238487	24668.689741
486.607036	24800.901562
486.975527	24525.089953
487.343959	24837.281049
487.712333	24763.954946
488.080648	24430.510345
488.448905	24927.575676
488.817104	24680.236504
489.185244	25367.887697
489.553326	25327.313971
489.921350	26333.203124
490.289315	28627.986766
490.657222	30408.502140
491.025070	30893.471222
491.392861	30669.273467
491.760593	29802.293308
492.128267	28911.965045
492.495883	27863.271454
492.863440	26981.119943
493.230939	26112.372859
493.598380	25958.761340
493.965763	25567.194756
494.333088	25104.510094
494.700354	25056.044441
495.067563	24911.688480
495.434713	24662.116077
495.801805	24828.373330
496.168839	24624.057886
496.535815	24478.328210
496.902733	24688.627505
497.269593	24371.876685
497.636395	24540.306676
498.003139	24495.553833
498.369825	24231.747732
498.736453	24439.193733
499.103023	24323.431197
499.469535	24331.842362
499.835989	24553.857298
500.202385	24570.427570
500.568723	24079.020935
500.935003	24312.822088
501.301226	23941.354585
501.667390	24792.321519
502.033497	25016.980540
502.399546	24740.531225
502.765537	24299.442866
503.131470	24694.828124
503.497345	24823.753113
503.863163	24054.341966
504.228923	24629.220027
504.594625	24852.522978
504.960269	24384.867738
505.325856	24869.662901
505.691385	24274.685759
506.056856	24888.113524
506.422270	24850.428378
506.787625	24426.192597
507.152924	24836.824825
507.518164	24857.806107
507.883347	24673.728374
508.248472	24354.948490
508.613540	25135.235927
508.978550	24937.436173
509.343503	24937.219404
509.708398	25169.384703
510.073236	25339.405178
510.438016	25551.811675
510.802738	25207.024478
511.167403	25464.524096
511.532010	25179.099006
511.896561	25946.143332
512.261053	25910.620841
512.625488	25743.746046
512.989866	25630.655321
513.354186	25478.046991
513.718449	25600.451248
514.082655	25976.528886
514.446803	25704.563677
514.810894	26174.799988
515.174927	25659.226060
515.538904	25698.206783
515.902822	26178.001120
516.266684	25935.917351
516.630488	25857.393818
516.994235	25807.562012
517.357925	26125.066484
517.721558	26301.711036
518.085133	26412.664311
518.448651	26308.869474
518.812112	26046.409361
519.175516	26265.845747
519.538863	26409.909321
519.902152	26202.576745
520.265385	26472.273435
520.628560	26270.665090
520.991678	26268.426818
521.354739	26326.248852
521.717743	26415.182368
522.080690	26179.780648
522.443580	26514.646854
522.806413	26499.964493
523.169189	26607.721677
523.531908	26660.686560
523.894569	26260.176969
524.257174	26355.790014
524.619722	26516.814550
524.982213	26217.135598
525.344647	26258.397442
525.707025	26413.644816
526.069345	26381.293211
526.431608	26349.120567
526.793815	26533.404987
527.155964	25996.847257
527.518057	26174.905852
527.880093	26081.405051
528.242072	26316.736195
528.603995	26034.678596
528.965860	25835.658883
529.327669	25873.981735
529.689421	25871.325047
530.051117	25694.924991
530.412755	25876.464503
530.774337	25668.975652
531.135862	25546.271447
531.497331	25745.880974
531.858743	25313.791075
532.220098	25781.443794
532.581396	25463.228519
532.942638	25389.655400
533.303824	25500.588511
533.664953	25502.398285
534.026025	25170.216493
534.387040	25403.989921
534.747999	25462.910927
535.108902	25620.053774
535.469748	25118.640448
535.830537	25289.916171
536.191270	25418.200933
536.551947	25267.772903
536.912567	24902.972325
537.273131	25296.867922
537.633638	25002.267932
537.994089	25195.853281
538.354483	24715.867379
538.714821	25234.324847
539.075103	25262.290648
539.435328	25042.367791
539.795497	24617.764005
540.155609	25008.213973
540.515665	25313.967516
540.875665	24523.736403
541.235609	24849.911660
541.595496	24793.549040
541.955328	25149.023483
542.315102	25073.474230
542.674821	24604.858651
543.034483	24482.923222
543.394090	24652.205168
543.753640	24450.793428
544.113134	25078.192750
544.472571	24687.946949
544.831953	24968.719053
545.191278	24611.223108
545.550548	24514.674929
545.909761	24709.760022
546.268918	24948.551917
546.628019	24917.069912
546.987064	24621.111331
547.346053	24354.918243
547.704986	24473.397962
548.063863	24631.675069
548.422684	24638.793178
548.781449	24153.897193
549.140158	24579.970475
549.498811	24144.369412
549.857408	23899.628954
550.215949	24304.156345
550.574434	23996.925744
550.932864	24200.207753
551.291237	24380.224836
551.649555	24224.566608
552.007817	24281.564414
552.366022	24145.412931
552.724173	24174.225646
553.082267	24139.073680
553.440305	24620.413131
553.798288	23859.382903
554.156215	24350.981102
554.514086	24479.021369
554.871902	23865.921279
555.229661	24142.768846
555.587365	23997.339119
555.945014	23876.076684
556.302606	24107.909267
556.660143	24076.603701
557.017625	24318.831144
557.375050	23839.997146
557.732421	24234.941303
558.089735	24050.959352
558.446994	24104.423309
558.804197	24142.620132
559.161345	24056.459251
559.518437	23830.781916
559.875474	24013.397714
560.232455	24192.552760
560.589381	24010.481407
560.946251	24006.491334
561.303065	24307.629700
561.659825	24408.871192
562.016528	24003.643082
562.373177	23742.128185
562.729770	24101.857362
563.086307	23957.793788
563.442789	24129.946671
563.799216	23968.627227
564.155587	23965.962977
564.511904	23952.268683
564.868164	23901.506784
565.224370	23865.003789
565.580520	23788.085864
565.936615	23920.511934
566.292654	23607.761270
566.648638	23869.528225
567.004567	23707.492937
567.360441	23645.484224
567.716260	23379.346589
568.072023	23694.242264
568.427732	23486.017405
568.783385	23243.832812
569.138982	23492.076872
569.494525	23526.114743
569.850013	23270.797944
570.205445	23384.057548
570.560823	23193.786757
570.916145	22950.104942
571.271412	23136.287357
571.626625	22883.286969
571.981782	22981.534016
572.336884	22800.501140
572.691931	22938.366616
573.046923	22667.230677
573.401860	22562.261251
573.756743	22575.446388
574.111570	22469.922436
574.466342	22392.041650
574.821059	22478.505000
575.175722	22185.492974
575.530330	22157.670846
575.884882	22173.457219
576.239380	22095.815888
576.593823	21989.893684
576.948211	21954.290535
577.302544	21811.081437
577.656823	21675.373575
578.011047	21782.293927
578.365216	21643.316878
578.719330	21527.859331
579.073389	21418.161303
579.427394	21570.033624
579.781344	21321.698824
580.135239	21217.898946
580.489080	21174.847492
580.842866	20939.574321
581.196597	21159.517343
581.550273	21118.384048
581.903895	21003.823827
582.257463	21306.270373
582.610975	20842.222079
582.964434	21169.128303
583.317837	20845.924806
583.671186	20943.072882
584.024481	20922.855335
584.377721	20686.100065
584.730906	20764.076632
585.084037	20756.209912
585.437113	20676.194197
585.790135	20887.993235
586.143103	20342.910914
586.496016	20365.036538
586.848874	20604.879515
587.201679	20522.552431
587.554428	20212.377797
587.907124	20549.555372
588.259765	20305.828186
588.612352	20383.507326
588.964884	19955.841039
589.317362	20122.554517
589.669786	20185.188333
590.022155	20193.541525
590.374470	20427.756054
590.726731	20207.681962
591.078937	19977.041612
591.431090	20069.214069
591.783188	19818.023455
592.135232	19788.842736
592.487222	19892.095649
592.839157	19901.562936
593.191038	19779.637589
593.542866	19677.861734
593.894639	19389.089318
594.246358	19601.052193
594.598022	19494.467077
594.949633	19257.137116
595.301190	19223.278206
595.652692	19392.529906
596.004141	19626.008425
596.355535	18951.711249
596.706876	18977.658068
597.058162	18865.568012
597.409395	19109.098592
597.760573	19158.728752
598.111698	18934.099978
598.462768	18873.268374
598.813785	18847.571092
599.164748	18652.168408
599.515657	18709.695535
599.866511	18504.308845
600.217312	18855.147947
600.568060	18360.656125
600.918753	18676.376028
601.269392	18571.933403
601.619978	18373.226242
601.970510	18570.685718
602.320988	18508.855966
602.671412	18715.565958
603.021783	18635.840110
603.372100	18354.594137
603.722363	18503.666098
604.072572	18448.651986
604.422728	18589.612730
604.772830	18339.029575
605.122878	18312.200554
605.472872	18285.285834
605.822813	18277.194782
606.172701	18258.832379
606.522534	18433.581456
606.872314	18455.452502
607.222041	18296.598183
607.571714	18509.770935
607.921333	18336.292228
608.270899	18413.071522
608.620411	18583.001256
608.969870	18367.628041
609.319276	18362.692751
609.668627	18391.507986
610.017926	18530.154841
610.367171	18635.749370
610.716362	18697.480819
611.065500	18507.444443
611.414585	18637.060070
611.763616	18634.962950
612.112594	18565.631961
612.461518	18539.571716
612.810389	18730.349142
613.159207	18596.577084
613.507971	18500.222990
613.856682	18758.125900
614.205340	18684.235187
614.553945	18839.258230
614.902496	18584.770701
615.250994	18813.099682
615.599439	18755.282689
615.947830	18741.807685
616.296169	18810.044743
616.644454	18776.911760
616.992686	18732.360563
617.340864	18950.392987
617.688990	18705.322334
618.037063	18870.962046
618.385082	18735.891891
618.733048	19010.297018
619.080961	18887.307988
619.428821	18912.531401
619.776628	18794.003792
620.124382	18722.111897
620.472083	18776.228683
620.819731	18792.239388
621.167326	18484.890320
621.514868	18525.882463
621.862357	18304.447259
622.209793	18304.991704
622.557176	18135.666908
622.904506	17968.782031
623.251783	17888.136172
623.599007	17633.825084
623.946179	17580.877845
624.293297	17512.729007
624.640363	17254.705109
624.987376	17282.862474
625.334336	17086.728822
625.681243	16931.587312
626.028097	16941.231039
626.374899	16867.408382
626.721647	16728.491826
627.068343	16564.835808
627.414987	16497.606980
627.761577	16461.552648
628.108115	16497.680077
628.454600	16229.077318
628.801032	16331.594222
629.147412	16259.472955
629.493739	16280.688651
629.840014	16095.027996
630.186236	16187.407140
630.532405	15950.311592
630.878521	16143.430634
631.224585	16050.318002
631.570597	15868.092894
631.916556	15897.956689
632.262462	15880.254677
632.608316	15787.943589
632.954117	15737.471556
633.299866	15739.409880
633.645562	15638.942204
633.991206	15408.931998
634.336797	15283.137566
634.682336	15245.878398
635.027823	15117.389469
635.373257	14996.610984
635.718639	14911.009671
636.063968	14855.330127
