Dividing Wavelength (nm)	Counts (n)	Blue Motor Position (mm): 46.600000	Red Motor Position (mm): 0.000000	
326.493990	2272.605086
326.888308	2272.605086
327.282561	2272.605086
327.676750	2230.776112
328.070874	2228.406770
328.464933	2231.406256
328.858929	2233.248798
329.252859	2237.075034
329.646726	2244.636764
330.040528	2260.188724
330.434265	2271.508635
330.827938	2292.217695
331.221547	2309.145890
331.615091	2324.486121
332.008571	2344.670901
332.401986	2363.721421
332.795338	2382.207332
333.188625	2401.948491
333.581847	2422.483631
333.975006	2442.118925
334.368100	2461.126596
334.761129	2478.074955
335.154095	2495.978613
335.546996	2523.120185
335.939833	2562.098387
336.332606	2576.475757
336.725315	2590.646441
337.117960	2601.999119
337.510540	2613.039246
337.903056	2624.820423
338.295508	2633.148409
338.687896	2641.206693
339.080220	2649.023002
339.472480	2654.331337
339.864676	2659.881648
340.256807	2667.163595
340.648875	2671.725839
341.040879	2673.454955
341.432818	2675.683145
341.824694	2675.733556
342.216506	2679.451407
342.608253	2679.935358
342.999937	2677.064421
343.391557	2680.812519
343.783113	2680.744463
344.174605	2677.077024
344.566033	2679.345543
344.957397	2678.173475
345.348697	2674.347239
345.739934	2674.584173
346.131106	2674.503515
346.522215	2670.788184
346.913260	2670.873884
347.304241	2667.186280
347.695159	2666.714932
348.086012	2663.428100
348.476802	2662.573624
348.867528	2659.685043
349.258191	2656.488951
349.648789	2656.060453
350.039324	2651.208343
350.429796	2656.052892
350.820203	2653.917963
351.210548	2654.840494
351.600828	2648.234062
351.991045	2650.845380
352.381198	2648.634834
352.771288	2651.599032
353.161314	2648.687766
353.551276	2648.113074
353.941175	2648.085348
354.331010	2649.154072
354.720782	2648.526449
355.110490	2647.467807
355.500135	2648.047539
355.889717	2649.375883
356.279235	2648.823877
356.668689	2649.448980
357.058080	2648.420585
357.447408	2650.782365
357.836672	2648.801192
358.225873	2649.181799
358.615010	2651.886378
359.004084	2650.399237
359.393095	2648.647437
359.782043	2652.032571
360.170927	2653.633138
360.559748	2651.987201
360.948505	2655.321924
361.337199	2656.942655
361.725830	2655.972233
362.114398	2657.532470
362.502903	2656.476348
362.891344	2657.255207
363.279722	2655.357212
363.668037	2659.896771
364.056289	2657.950886
364.444478	2661.404076
364.832603	2659.853922
365.220665	2661.502379
365.608665	2662.296361
365.996601	2659.357368
366.384474	2661.580517
366.772284	2665.000940
367.160031	2666.241063
367.547715	2664.476660
367.935336	2663.029848
368.322893	2661.648572
368.710388	2662.719817
369.097820	2665.971362
369.485189	2663.758295
369.872495	2666.672082
370.259738	2669.132165
370.646918	2667.453461
371.034035	2670.931857
371.421090	2670.377330
371.808081	2671.834224
372.195010	2676.961077
372.581875	2680.875533
372.968678	2681.356963
373.355418	2686.705627
373.742096	2695.719211
374.128710	2703.101980
374.515262	2714.784854
374.901751	2723.243911
375.288177	2735.478791
375.674540	2755.522419
376.060841	2770.676127
376.447079	2790.838222
376.833254	2816.341419
377.219367	2834.134172
377.605417	2867.304964
377.991404	2889.531411
378.377329	2924.075918
378.763191	2945.843620
379.148991	2987.609580
379.534727	3028.876465
379.920402	3064.482135
380.306013	3090.091197
380.691563	3154.809530
381.077049	3181.046215
381.462474	3219.059035
381.847835	3281.897018
382.233134	3325.697083
382.618371	3353.776310
383.003545	3426.174841
383.388657	3453.190385
383.773706	3515.068027
384.158693	3550.787123
384.543618	3585.586208
384.928480	3650.755724
385.313280	3708.219837
385.698017	3732.944176
386.082692	3824.156293
386.467305	3830.729958
386.851856	3869.577089
387.236344	3949.413843
387.620770	3980.346363
388.005133	4034.919374
388.389435	4077.315478
388.773674	4089.429370
389.157851	4163.630114
389.541965	4233.835743
389.926018	4200.264179
390.310008	4299.882420
390.693936	4356.388713
391.077802	4388.468096
391.461606	4388.546234
391.845348	4458.051142
392.229027	4517.428373
392.612645	4515.452241
392.996200	4616.945791
393.379694	4678.432745
393.763125	4783.296306
394.146494	4808.156757
394.529801	4869.552969
394.913047	4948.845278
395.296230	4898.320314
395.679351	5004.786962
396.062410	5062.674532
396.445408	5030.040623
396.828343	5093.649902
397.211217	5149.662162
397.594028	5031.767218
397.976778	5147.761647
398.359466	5192.968194
398.742092	5219.756886
399.124656	5137.381911
399.507158	5252.703347
399.889598	5319.354962
400.271977	5438.152273
400.654294	5438.101862
401.036549	5482.214478
401.418742	5399.789093
401.800874	5607.139312
402.182944	5664.600904
402.564952	5772.020331
402.946898	5831.672304
403.328783	5671.295556
403.710606	5687.245767
404.092367	6014.131827
404.474067	6036.262492
404.855705	5931.164517
405.237282	5870.098499
405.618797	6128.210618
406.000250	6099.909580
406.381642	6309.765253
406.762972	6328.561195
407.144240	6385.846347
407.525447	6365.686772
407.906593	6381.871397
408.287677	6547.647220
408.668700	6460.888963
409.049661	6575.106385
409.430560	6602.580674
409.811399	6466.998841
410.192176	6728.354942
410.572891	6750.137768
410.953545	6940.133815
411.334138	6665.211969
411.714669	6842.761408
412.095139	6634.075283
412.475547	6882.455453
412.855894	6951.728469
413.236180	7135.463403
413.616405	6795.850951
413.996568	7014.339599
414.376670	7069.449493
414.756711	6963.509645
415.136691	7061.537402
415.516609	7266.493074
415.896466	7242.262768
416.276262	7454.681867
416.655997	7438.666122
417.035670	7611.189530
417.415283	7961.295144
417.794834	8021.534412
418.174324	7879.378914
418.553753	7805.604148
418.933121	8101.761854
419.312428	8201.611989
419.691674	7979.418092
420.070859	8458.105896
420.449983	8137.107905
420.829045	8504.754213
421.208047	8273.297196
421.586988	8586.985515
421.965867	8615.057180
422.344686	8703.910037
422.723444	8773.523331
423.102141	8109.860468
423.480777	8874.313640
423.859352	8398.789160
424.237866	9019.932410
424.616319	8881.398982
424.994712	9312.808325
425.373044	8847.920679
425.751314	9337.328497
426.129524	9219.050425
426.507673	9302.723497
426.885762	9459.190830
427.263789	9372.172953
427.641756	9318.036002
428.019662	9399.301922
428.397508	9672.356020
428.775292	9328.839194
429.153016	9713.998472
429.530679	9546.130569
429.908282	9560.361747
430.285824	9293.389801
430.663305	9979.793308
431.040726	9424.094317
431.418086	9405.812573
431.795385	9741.760106
432.172624	9841.078398
432.549802	9740.509900
432.926920	9813.682248
433.303977	9685.284059
433.680974	9885.811077
434.057910	9990.147838
434.434786	10063.365557
434.811601	9876.870591
435.188355	10447.768661
435.565050	10190.498416
435.941683	10110.031518
436.318257	10589.599004
436.694770	10770.669688
437.071222	10816.329939
437.447614	10639.866869
437.823946	10567.276775
438.200218	10658.614921
438.576429	10505.205047
438.952580	10749.390978
439.328670	10774.846284
439.704700	10575.473691
440.080670	10562.306197
440.456580	11082.245763
440.832429	10875.397139
441.208218	10471.968720
441.583947	10766.908988
441.959616	10952.935126
442.335224	10769.104410
442.710773	10866.267609
443.086261	11103.295101
443.461689	10372.945335
443.837057	11054.277442
444.212365	11287.145982
444.587612	10929.697928
444.962800	11138.182407
445.337927	10880.178673
445.712995	10558.089272
446.088002	11590.346180
446.462949	11287.488781
446.837837	11250.375806
447.212664	11171.849752
447.587431	11775.159921
447.962139	12526.576670
448.336786	14824.165714
448.711374	15308.335773
449.085901	13125.143113
449.460369	12776.310390
449.834776	12219.245246
450.209124	13153.484480
450.583412	13583.565479
450.957640	14497.418286
451.331808	13544.413357
451.705917	12612.271244
452.079965	11855.069772
452.453954	12774.414916
452.827883	12434.981425
453.201752	12715.498951
453.575562	12274.075356
453.949311	12680.614167
454.323001	12667.136642
454.696632	12907.985328
455.070202	13177.429960
455.443713	13373.142676
455.817164	13878.004152
456.190556	13830.458509
456.563888	14197.850240
456.937160	14344.348691
457.310373	13705.505949
457.683526	13813.323627
458.056619	13340.120598
458.429653	13542.490157
458.802628	12907.773600
459.175542	13320.336590
459.548398	14264.496814
459.921194	14633.400891
460.293930	14704.892014
460.666607	15540.145671
461.039224	16611.254752
461.411782	17333.841142
461.784280	17103.339423
462.156719	17215.023666
462.529099	16891.210190
462.901419	15850.375758
463.273680	15605.859632
463.645882	15517.440314
464.018024	15237.033693
464.390106	15463.999043
464.762130	16172.404666
465.134094	16977.444168
465.505999	19040.133087
465.877845	22320.134631
466.249631	25120.936694
466.621358	24720.956424
466.993026	23302.403458
467.364634	22708.253066
467.736184	21232.525854
468.107674	20452.334199
468.479105	20576.202911
468.850477	20032.895076
469.221790	19640.786568
469.593043	18945.737481
469.964238	18363.247278
470.335373	18005.166558
470.706449	18524.977576
471.077467	18109.397455
471.448425	19982.254165
471.819324	24141.601818
472.190164	25956.749919
472.560945	22264.046754
472.931667	19975.468772
473.302330	19368.307161
473.672934	19011.935393
474.043479	19227.290965
474.413965	19043.092244
474.784393	18624.983986
475.154761	19407.116484
475.525070	19326.853753
475.895321	19036.064876
476.265513	19647.178751
476.635645	20241.321582
477.005719	19996.550877
477.375734	20170.304327
477.745691	20660.745582
478.115588	21211.937781
478.485427	21771.198348
478.855207	22877.991237
479.224928	24672.553786
479.594591	26903.889466
479.964194	26792.787476
480.333739	27028.806737
480.703226	26619.197864
481.072653	26322.034447
481.442022	26965.174773
481.811333	27892.137101
482.180584	27758.917049
482.549777	26802.675699
482.918912	26487.349006
483.287988	26630.467363
483.657005	26233.801652
484.025964	26030.688523
484.394864	25905.337712
484.763706	25545.530397
485.132489	25025.396746
485.501213	25198.116759
485.869879	25110.698110
486.238487	24964.731501
486.607036	25085.320942
486.975527	24847.650703
487.343959	25138.681555
487.712333	25038.670104
488.080648	24696.166550
488.448905	25211.231321
488.817104	24980.190199
489.185244	25684.134402
489.553326	25630.267152
489.921350	26692.851642
490.289315	29055.922754
490.657222	30739.728633
491.025070	31272.908790
491.392861	31008.195281
491.760593	30143.307201
492.128267	29226.253261
492.495883	28157.672318
492.863440	27294.730123
493.230939	26425.748626
493.598380	26253.999035
493.965763	25879.088424
494.333088	25375.585539
494.700354	25353.359092
495.067563	25194.678692
495.434713	24940.841473
495.801805	25145.194726
496.168839	24889.978751
496.535815	24776.149497
496.902733	24995.001109
497.269593	24690.217989
497.636395	24853.190931
498.003139	24778.198726
498.369825	24511.156204
498.736453	24736.710030
499.103023	24601.140800
499.469535	24604.026861
499.835989	24821.514841
500.202385	24847.799417
500.568723	24392.210179
500.935003	24560.231837
501.301226	24270.390696
501.667390	25101.929023
502.033497	25297.251050
502.399546	25047.759305
502.765537	24578.596760
503.131470	24956.552229
503.497345	25110.183913
503.863163	24347.089332
504.228923	24878.368974
504.594625	25132.715350
504.960269	24701.782396
505.325856	25176.414592
505.691385	24561.779471
506.056856	25176.996845
506.422270	25166.281873
506.787625	24686.157339
507.152924	25116.427382
507.518164	25153.827702
507.883347	24974.377749
508.248472	24656.878318
508.613540	25427.496821
508.978550	25228.847633
509.343503	25249.072742
509.708398	25441.453255
510.073236	25605.595745
510.438016	25813.402189
510.802738	25469.351001
511.167403	25733.434366
511.532010	25477.956250
511.896561	26227.976599
512.261053	26193.825302
512.625488	26020.296184
512.989866	25916.387921
513.354186	25746.203608
513.718449	25881.717385
514.082655	26244.020071
514.446803	25961.110517
514.810894	26459.693236
515.174927	25961.327287
515.538904	25993.567986
515.902822	26487.051578
516.266684	26232.503555
516.630488	26144.447200
516.994235	26084.848159
517.357925	26429.106035
517.721558	26562.119399
518.085133	26713.323768
518.448651	26584.547493
518.812112	26357.667843
519.175516	26582.780568
519.538863	26727.595274
519.902152	26522.188420
520.265385	26776.771730
520.628560	26579.385351
520.991678	26555.240745
521.354739	26608.770237
521.717743	26724.903298
522.080690	26477.493550
522.443580	26810.986041
522.806413	26772.653107
523.169189	26899.349907
523.531908	26945.927648
523.894569	26578.137666
524.257174	26676.795567
524.619722	26806.131410
524.982213	26528.663782
525.344647	26542.418570
525.707025	26717.870889
526.069345	26646.299107
526.431608	26634.197817
526.793815	26806.917830
527.155964	26318.082183
527.518057	26493.975602
527.880093	26391.582206
528.242072	26613.503881
528.603995	26333.636663
528.965860	26119.551462
529.327669	26153.359960
529.689421	26150.496585
530.051117	26003.126014
530.412755	26176.332498
530.774337	25943.426150
531.135862	25849.022982
531.497331	26019.587902
531.858743	25630.710774
532.220098	26075.824494
532.581396	25780.228876
532.942638	25664.504148
533.303824	25788.380422
533.664953	25774.814677
534.026025	25445.244203
534.387040	25687.829567
534.747999	25724.488838
535.108902	25900.553657
535.469748	25406.439921
535.830537	25546.803288
536.191270	25686.977612
536.551947	25512.780541
536.912567	25130.943384
537.273131	25586.308291
537.633638	25244.152576
537.994089	25477.799975
538.354483	24959.191273
538.714821	25472.335364
539.075103	25520.816140
539.435328	25288.096314
539.795497	24888.259717
540.155609	25220.086108
540.515665	25540.728698
540.875665	24749.940538
541.235609	25092.955769
541.595496	25018.616394
541.955328	25387.896037
542.315102	25303.229858
542.674821	24817.005528
543.034483	24702.215935
543.394090	24879.392328
543.753640	24700.736356
544.113134	25318.597816
544.472571	24899.803960
544.831953	25210.059253
545.191278	24863.658887
545.550548	24742.895526
545.909761	24937.111019
546.268918	25178.610014
546.628019	25162.047303
546.987064	24840.335988
547.346053	24572.121398
547.704986	24670.900287
548.063863	24846.667678
548.422684	24870.683735
548.781449	24352.987482
549.140158	24769.227993
549.498811	24346.575134
549.857408	24115.813796
550.215949	24489.716177
550.574434	24204.122208
550.932864	24391.443924
551.291237	24581.056843
551.649555	24418.719087
552.007817	24494.936292
552.366022	24340.324103
552.724173	24340.762683
553.082267	24319.615043
553.440305	24815.031917
553.798288	24035.152814
554.156215	24527.552557
554.514086	24668.367107
554.871902	24062.712802
555.229661	24337.553989
555.587365	24168.458566
555.945014	24092.506021
556.302606	24292.377689
556.660143	24284.183293
557.017625	24519.832030
557.375050	24032.944788
557.732421	24424.387864
558.089735	24246.568724
558.446994	24290.204952
558.804197	24341.760832
559.161345	24217.531678
559.518437	24027.202914
559.875474	24198.549213
560.232455	24363.011816
560.589381	24174.676829
560.946251	24198.304717
561.303065	24481.816689
561.659825	24568.844648
562.016528	24179.395349
562.373177	23904.755808
562.729770	24279.492500
563.086307	24126.223779
563.442789	24295.510766
563.799216	24143.638445
564.155587	24130.659994
564.511904	24121.033911
564.868164	24074.108330
565.224370	24046.510533
565.580520	23977.229956
565.936615	24085.536626
566.292654	23793.661380
566.648638	24025.602348
567.004567	23875.534760
567.360441	23800.663543
567.716260	23522.621223
568.072023	23826.512059
568.427732	23615.849802
568.783385	23371.815106
569.138982	23638.877792
569.494525	23668.635723
569.850013	23428.691924
570.205445	23528.098437
570.560823	23365.369990
570.916145	23117.730869
571.271412	23310.083656
571.626625	23055.954050
571.981782	23172.041740
572.336884	22966.092962
572.691931	23097.374690
573.046923	22859.008772
573.401860	22728.541190
573.756743	22755.405498
574.111570	22652.772647
574.466342	22567.554462
574.821059	22645.823417
575.175722	22343.341583
575.530330	22304.499493
575.884882	22307.617446
576.239380	22232.088359
576.593823	22127.862503
576.948211	22105.189914
577.302544	21966.026341
577.656823	21816.800626
578.011047	21937.458122
578.365216	21797.954272
578.719330	21659.138539
579.073389	21551.925800
579.427394	21716.378320
579.781344	21463.481276
580.135239	21347.907783
580.489080	21297.627314
580.842866	21078.599262
581.196597	21302.708797
581.550273	21246.691496
581.903895	21125.572734
582.257463	21442.252977
582.610975	20975.986576
582.964434	21314.472330
583.317837	20974.423818
583.671186	21074.170608
584.024481	21050.784696
584.377721	20821.820529
584.730906	20908.120042
585.084037	20880.207173
585.437113	20819.625107
585.790135	21013.003768
586.143103	20470.159719
586.496016	20494.947073
586.848874	20729.663196
587.201679	20634.718104
587.554428	20347.034578
587.907124	20681.003458
588.259765	20432.625808
588.612352	20500.820017
588.964884	20073.551982
589.317362	20229.414376
589.669786	20307.007816
590.022155	20290.114910
590.374470	20551.181144
590.726731	20294.558687
591.078937	20108.814853
591.431090	20175.496715
591.783188	19947.639082
592.135232	19901.676362
592.487222	19999.855353
592.839157	20007.225520
593.191038	19886.809999
593.542866	19788.613363
593.894639	19478.695828
594.246358	19702.873419
594.598022	19581.447146
594.949633	19346.163893
595.301190	19335.083437
595.652692	19496.584362
596.004141	19712.577640
596.355535	19039.787768
596.706876	19074.488551
597.058162	18959.157033
597.409395	19204.774651
597.760573	19248.612525
598.111698	19022.410911
598.462768	18973.015165
598.813785	18942.019630
599.164748	18742.563858
599.515657	18793.545047
599.866511	18601.885419
600.217312	18943.519374
600.568060	18454.141802
600.918753	18767.061345
601.269392	18664.874636
601.619978	18468.156210
601.970510	18643.381677
602.320988	18594.452237
602.671412	18798.845820
603.021783	18734.487929
603.372100	18438.610007
603.722363	18591.757741
604.072572	18543.864258
604.422728	18686.513789
604.772830	18439.966078
605.122878	18399.974604
605.472872	18380.271254
605.822813	18358.856433
606.172701	18359.763841
606.522534	18522.998923
606.872314	18553.621412
607.222041	18397.055776
607.571714	18605.953630
607.921333	18433.034491
608.270899	18503.754318
608.620411	18656.783584
608.969870	18458.855281
609.319276	18455.558367
609.668627	18475.037385
610.017926	18606.034288
610.367171	18713.952789
610.716362	18783.412328
611.065500	18594.921065
611.414585	18744.681142
611.763616	18731.513649
612.112594	18664.766251
612.461518	18633.135531
612.810389	18823.663420
613.159207	18680.083797
613.507971	18596.143544
613.856682	18843.548252
614.205340	18760.843082
614.553945	18923.604295
614.902496	18664.183998
615.250994	18863.818731
615.599439	18817.107400
615.947830	18813.205547
616.296169	18888.013749
616.644454	18840.268981
616.992686	18816.310897
617.340864	19033.423311
617.688990	18773.768600
618.037063	18963.409246
618.385082	18822.768616
618.733048	19083.154294
619.080961	18975.535742
619.428821	19014.219036
619.776628	18869.694196
620.124382	18813.838212
620.472083	18872.212252
620.819731	18874.304331
621.167326	18570.920131
621.514868	18610.561244
621.862357	18393.431187
622.209793	18385.826606
622.557176	18223.750989
622.904506	18048.933856
623.251783	17996.992327
623.599007	17729.017192
623.946179	17672.730189
624.293297	17602.622862
624.640363	17334.970360
624.987376	17358.943568
625.334336	17155.850603
625.681243	17005.331831
626.028097	17029.456273
626.374899	16937.702232
626.721647	16811.323025
627.068343	16653.484498
627.414987	16579.379537
627.761577	16540.209771
628.108115	16566.176755
628.454600	16302.922660
628.801032	16408.239925
629.147412	16334.185375
629.493739	16346.321953
629.840014	16160.943603
630.186236	16257.738798
630.532405	16018.281470
630.878521	16203.594285
631.224585	16122.961029
631.570597	15942.535612
631.916556	15971.948225
632.262462	15940.047803
632.608316	15865.751278
632.954117	15804.274407
633.299866	15798.973633
633.645562	15712.931219
633.991206	15488.604914
634.336797	15350.691548
634.682336	15318.592001
635.027823	15187.970664
635.373257	15053.707093
635.718639	14978.850999
636.063968	14909.459517
