Dividing Wavelength (nm)	Counts (n)	Blue Motor Position (mm): 21.200000	Red Motor Position (mm): 0.000000	
326.493990	2186.865141
326.888308	2186.865141
327.282561	2186.865141
327.676750	2146.876188
328.070874	2141.933337
328.464933	2144.189253
328.858929	2148.328041
329.252859	2150.717548
329.646726	2159.138795
330.040528	2174.952895
330.434265	2183.744667
330.827938	2203.372400
331.221547	2221.376881
331.615091	2238.491598
332.008571	2255.089597
332.401986	2277.999121
332.795338	2291.262396
333.188625	2312.215952
333.581847	2331.644559
333.975006	2348.204750
334.368100	2367.739221
334.761129	2386.202447
335.154095	2405.867988
335.546996	2427.297933
335.939833	2456.193827
336.332606	2474.780561
336.725315	2485.941676
337.117960	2502.874911
337.510540	2512.616941
337.903056	2522.026255
338.295508	2532.169056
338.687896	2540.986034
339.080220	2547.710934
339.472480	2555.534804
339.864676	2559.524878
340.256807	2563.880435
340.648875	2570.570046
341.040879	2570.801939
341.432818	2574.910479
341.824694	2577.133628
342.216506	2578.154462
342.608253	2582.923393
342.999937	2579.936510
343.391557	2579.404668
343.783113	2577.065572
344.174605	2582.817529
344.566033	2577.557085
344.957397	2575.903587
345.348697	2574.618092
345.739934	2571.260684
346.131106	2573.299831
346.522215	2571.230437
346.913260	2569.213975
347.304241	2567.285734
347.695159	2563.562842
348.086012	2560.830537
348.476802	2562.254662
348.867528	2553.593960
349.258191	2554.445915
349.648789	2553.490617
350.039324	2549.674463
350.429796	2553.294012
350.820203	2552.701676
351.210548	2551.305276
351.600828	2549.835780
351.991045	2548.273022
352.381198	2548.514998
352.771288	2548.023485
353.161314	2543.995603
353.551276	2545.845707
353.941175	2543.798998
354.331010	2545.742363
354.720782	2543.839327
355.110490	2544.900490
355.500135	2543.025181
355.889717	2544.376210
356.279235	2544.517363
356.668689	2545.747404
357.058080	2546.322096
357.447408	2543.809081
357.836672	2544.756817
358.225873	2543.859492
358.615010	2545.371838
359.004084	2547.398382
359.393095	2545.880995
359.782043	2549.303938
360.170927	2546.715306
360.559748	2549.087169
360.948505	2549.132539
361.337199	2550.654968
361.725830	2550.992725
362.114398	2551.567416
362.502903	2551.343085
362.891344	2552.656306
363.279722	2546.226314
363.668037	2554.032541
364.056289	2550.334854
364.444478	2554.990360
364.832603	2552.547921
365.220665	2555.537325
365.608665	2554.307283
365.996601	2556.971533
366.384474	2556.422047
366.772284	2556.220401
367.160031	2556.238045
367.547715	2554.665205
367.935336	2556.177552
368.322893	2551.706048
368.710388	2555.917932
369.097820	2553.722510
369.485189	2553.304094
369.872495	2558.796431
370.259738	2558.541853
370.646918	2559.292985
371.034035	2559.960938
371.421090	2560.079405
371.808081	2560.303736
372.195010	2557.107644
372.581875	2558.529250
372.968678	2558.821637
373.355418	2560.253324
373.742096	2561.213664
374.128710	2559.350958
374.515262	2564.417317
374.901751	2562.481514
375.288177	2564.049313
375.674540	2560.424724
376.060841	2560.460012
376.447079	2561.170814
376.833254	2562.635270
377.219367	2563.232646
377.605417	2564.434962
377.991404	2562.786504
378.377329	2563.915723
378.763191	2564.056875
379.148991	2564.802966
379.534727	2561.944632
379.920402	2562.196689
380.306013	2563.958572
380.691563	2568.140210
381.077049	2564.442523
381.462474	2565.821279
381.847835	2563.073850
382.233134	2566.232133
382.618371	2568.452761
383.003545	2570.096177
383.388657	2568.858574
383.773706	2567.429407
384.158693	2567.857905
384.543618	2568.972000
384.928480	2567.510065
385.313280	2567.537792
385.698017	2568.553584
386.082692	2568.389747
386.467305	2567.958728
386.851856	2572.170612
387.236344	2569.702967
387.620770	2569.370251
388.005133	2565.337328
388.389435	2568.356979
388.773674	2566.675754
389.157851	2571.285890
389.541965	2569.584500
389.926018	2572.468040
390.310008	2572.299162
390.693936	2573.786302
391.077802	2570.383523
391.461606	2569.103070
391.845348	2572.289079
392.229027	2572.631878
392.612645	2573.866960
392.996200	2572.180694
393.379694	2570.902762
393.763125	2574.665983
394.146494	2573.272104
394.529801	2574.897876
394.913047	2573.350242
395.296230	2574.610531
395.679351	2574.923082
396.062410	2575.555747
396.445408	2576.596745
396.828343	2577.426015
397.211217	2577.297466
397.594028	2574.870150
397.976778	2576.954667
398.359466	2577.123546
398.742092	2577.153793
399.124656	2575.885942
399.507158	2575.956519
399.889598	2579.291242
400.271977	2576.599266
400.654294	2577.617579
401.036549	2579.145048
401.418742	2576.626992
401.800874	2578.464493
402.182944	2579.082034
402.564952	2576.455593
402.946898	2576.949626
403.328783	2577.375603
403.710606	2578.981211
404.092367	2579.765110
404.474067	2579.182857
404.855705	2580.647312
405.237282	2577.972980
405.618797	2579.515573
406.000250	2581.456417
406.381642	2579.692014
406.762972	2577.967939
407.144240	2578.373752
407.525447	2580.299473
407.906593	2575.492732
408.287677	2583.324165
408.668700	2584.022365
409.049661	2581.431212
409.430560	2582.119329
409.811399	2584.465986
410.192176	2585.169227
410.572891	2582.162179
410.953545	2583.661922
411.334138	2582.883064
411.714669	2584.486151
412.095139	2584.085379
412.475547	2584.173599
412.855894	2582.520101
413.236180	2583.982036
413.616405	2584.344999
413.996568	2584.488672
414.376670	2584.294587
414.756711	2586.142170
415.136691	2585.784248
415.516609	2586.421954
415.896466	2587.183168
416.276262	2586.787438
416.655997	2588.103179
417.035670	2586.452201
417.415283	2587.634352
417.794834	2586.106882
418.174324	2588.037644
418.553753	2586.628641
418.933121	2585.302818
419.312428	2588.004876
419.691674	2589.018148
420.070859	2588.869434
420.449983	2591.042172
420.829045	2588.884558
421.208047	2587.180648
421.586988	2590.898499
421.965867	2588.960175
422.344686	2589.587799
422.723444	2588.950093
423.102141	2589.386153
423.480777	2588.652665
423.859352	2589.247521
424.237866	2589.476893
424.616319	2587.155442
424.994712	2591.200968
425.373044	2590.124682
425.751314	2587.866245
426.129524	2586.686615
426.507673	2589.169383
426.885762	2586.840370
427.263789	2591.059816
427.641756	2591.206009
428.019662	2592.302460
428.397508	2591.614343
428.775292	2596.292533
429.153016	2590.464959
429.530679	2593.300608
429.908282	2592.804055
430.285824	2595.196082
430.663305	2592.057964
431.040726	2593.035948
431.418086	2593.943356
431.795385	2592.481421
432.172624	2592.851946
432.549802	2593.708942
432.926920	2595.322111
433.303977	2595.294385
433.680974	2596.468974
434.057910	2594.414703
434.434786	2594.573500
434.811601	2596.030393
435.188355	2594.008891
435.565050	2594.865887
435.941683	2595.942173
436.318257	2598.001484
436.694770	2594.717173
437.071222	2597.338573
437.447614	2596.388315
437.823946	2598.470312
438.200218	2595.806062
438.576429	2597.971238
438.952580	2597.346134
439.328670	2598.200610
439.704700	2596.282451
440.080670	2597.978799
440.456580	2597.078953
440.832429	2598.994592
441.208218	2598.198089
441.583947	2597.154571
441.959616	2598.717328
442.335224	2598.140116
442.710773	2599.939808
443.086261	2598.503079
443.461689	2596.549632
443.837057	2602.833430
444.212365	2598.934098
444.587612	2597.585589
444.962800	2595.727924
445.337927	2596.970568
445.712995	2596.612647
446.088002	2601.847885
446.462949	2602.213368
446.837837	2600.620364
447.212664	2599.581886
447.587431	2599.944849
447.962139	2603.932402
448.336786	2603.965169
448.711374	2605.028853
449.085901	2605.152361
449.460369	2604.459203
449.834776	2607.002465
450.209124	2604.865015
450.583412	2608.527414
450.957640	2607.519183
451.331808	2605.190170
451.705917	2606.818463
452.079965	2607.068000
452.453954	2608.744183
452.827883	2603.899634
453.201752	2606.747886
453.575562	2608.492126
453.949311	2606.684872
454.323001	2608.792074
454.696632	2608.857609
455.070202	2609.518000
455.443713	2607.216714
455.817164	2611.736108
456.190556	2611.529421
456.563888	2610.886674
456.937160	2609.621344
457.310373	2613.142590
457.683526	2612.421705
458.056619	2612.146962
458.429653	2610.732918
458.802628	2610.944647
459.175542	2611.264760
459.548398	2612.272991
459.921194	2615.355657
460.293930	2613.558485
460.666607	2615.567385
461.039224	2618.173662
461.411782	2618.292129
461.784280	2619.973353
462.156719	2619.930504
462.529099	2622.219187
462.901419	2616.678959
463.273680	2617.523353
463.645882	2615.791716
464.018024	2617.362036
464.390106	2613.445059
464.762130	2621.218518
465.134094	2622.798920
465.505999	2627.872842
465.877845	2632.029273
466.249631	2636.795684
466.621358	2637.788791
466.993026	2635.847947
467.364634	2638.807104
467.736184	2635.517751
468.107674	2631.875518
468.479105	2633.196300
468.850477	2634.509521
469.221790	2635.414408
469.593043	2636.372227
469.964238	2634.426342
470.335373	2637.211579
470.706449	2640.944553
471.077467	2638.844913
471.448425	2645.282466
471.819324	2653.910401
472.190164	2664.206958
472.560945	2656.103303
472.931667	2654.190185
473.302330	2653.625576
473.672934	2657.691267
474.043479	2660.859632
474.413965	2664.338028
474.784393	2665.525220
475.154761	2671.178874
475.525070	2676.076355
475.895321	2677.893691
476.265513	2685.321831
476.635645	2693.488500
477.005719	2698.559901
477.375734	2708.057435
477.745691	2715.362067
478.115588	2726.828171
478.485427	2736.325705
478.855207	2754.940165
479.224928	2782.870678
479.594591	2816.230514
479.964194	2830.935560
480.333739	2839.863443
480.703226	2851.077490
481.072653	2867.133565
481.442022	2894.615415
481.811333	2936.618309
482.180584	2949.206070
482.549777	2963.165025
482.918912	2978.827890
483.287988	3017.654857
483.657005	3045.207283
484.025964	3067.337949
484.394864	3097.272320
484.763706	3122.369705
485.132489	3149.216369
485.501213	3184.632996
485.869879	3230.073957
486.238487	3263.579986
486.607036	3318.392451
486.975527	3349.776155
487.343959	3414.040784
487.712333	3467.580358
488.080648	3508.688447
488.448905	3589.052001
488.817104	3637.618477
489.185244	3740.321905
489.553326	3817.479285
489.921350	3939.548305
490.289315	4182.552085
490.657222	4406.840581
491.025070	4528.292060
491.392861	4614.989823
491.760593	4647.492663
492.128267	4679.186397
492.495883	4676.786808
492.863440	4709.337538
493.230939	4720.218869
493.598380	4822.960105
493.965763	4881.687027
494.333088	4934.694759
494.700354	5031.225294
495.067563	5137.480214
495.434713	5223.545313
495.801805	5326.649512
496.168839	5445.535043
496.535815	5547.646135
496.902733	5684.339542
497.269593	5734.960288
497.636395	5903.758284
498.003139	6028.060535
498.369825	6137.877030
498.736453	6274.194871
499.103023	6374.506271
499.469535	6519.787284
499.835989	6696.111722
500.202385	6860.483584
500.568723	6897.888946
500.935003	7056.975158
501.301226	7143.589743
501.667390	7435.424660
502.033497	7692.067281
502.399546	7740.928665
502.765537	7844.539500
503.131470	8064.550577
503.497345	8254.453363
503.863163	8208.503246
504.228923	8530.302781
504.594625	8743.357066
504.960269	8752.743695
505.325856	9067.893948
505.691385	9088.267771
506.056856	9394.311180
506.422270	9602.473025
506.787625	9604.373540
507.152924	9960.762952
507.518164	10098.976268
507.883347	10202.234222
508.248472	10254.957129
508.613540	10704.784328
508.978550	10846.690288
509.343503	11017.345949
509.708398	11300.283229
510.073236	11524.382682
510.438016	11789.028136
510.802738	11868.690969
511.167403	12147.837302
511.532010	12196.489478
511.896561	12738.221952
512.261053	12968.781644
512.625488	13058.562073
512.989866	13195.696581
513.354186	13299.529227
513.718449	13581.060025
514.082655	13907.318461
514.446803	14012.224873
514.810894	14408.527621
515.174927	14341.500439
515.538904	14546.940061
515.902822	14964.206447
516.266684	15066.604885
516.630488	15184.094016
516.994235	15378.150713
517.357925	15710.211517
517.721558	16032.661361
518.085133	16269.462001
518.448651	16408.892755
518.812112	16451.248529
519.175516	16703.812858
519.538863	17034.154628
519.902152	17061.979277
520.265385	17464.081872
520.628560	17494.391810
520.991678	17709.442392
521.354739	17938.565354
521.717743	18177.208536
522.080690	18191.822841
522.443580	18633.992528
522.806413	18769.004710
523.169189	19038.151914
523.531908	19215.834943
523.894569	19145.956989
524.257174	19349.581795
524.619722	19663.844806
524.982213	19582.982177
525.344647	19829.461833
525.707025	20044.514935
526.069345	20226.752647
526.431608	20352.229487
526.793815	20661.027886
527.155964	20344.090544
527.518057	20635.577621
527.880093	20747.750856
528.242072	21028.424658
528.603995	20944.693613
528.965860	20929.486973
529.327669	21139.176287
529.689421	21215.970704
530.051117	21209.225641
530.412755	21520.650481
530.774337	21445.189449
531.135862	21465.883386
531.497331	21758.540011
531.858743	21488.866006
532.220098	22025.176720
532.581396	21817.466058
532.942638	21943.575563
533.303824	22084.490936
533.664953	22213.645298
534.026025	22038.089635
534.387040	22315.897542
534.747999	22500.615501
535.108902	22706.350030
535.469748	22363.491075
535.830537	22629.749698
536.191270	22799.649185
536.551947	22809.570176
536.912567	22569.444895
537.273131	22913.664962
537.633638	22735.510585
537.994089	23015.352597
538.354483	22670.134381
538.714821	23197.345812
539.075103	23308.296567
539.435328	23169.725330
539.795497	22799.838228
540.155609	23262.926183
540.515665	23600.489406
540.875665	22930.956119
541.235609	23244.720055
541.595496	23291.451552
541.955328	23657.094002
542.315102	23630.663232
542.674821	23278.382360
543.034483	23203.427964
543.394090	23401.515063
543.753640	23231.673549
544.113134	23880.170101
544.472571	23537.351474
544.831953	23869.185426
545.191278	23516.695347
545.550548	23495.109126
545.909761	23720.688157
546.268918	23980.544515
546.628019	23958.209683
546.987064	23719.654721
547.346053	23504.639427
547.704986	23675.751312
548.063863	23844.506458
548.422684	23844.821530
548.781449	23459.072438
549.140158	23854.067006
549.498811	23461.751811
549.857408	23213.480025
550.215949	23680.953783
550.574434	23377.158729
550.932864	23603.526701
551.291237	23750.899793
551.649555	23665.109436
552.007817	23720.390729
552.366022	23616.452219
552.724173	23666.646988
553.082267	23606.546352
553.440305	24082.874897
553.798288	23380.458164
554.156215	23915.165791
554.514086	24000.278112
554.871902	23380.059913
555.229661	23686.541902
555.587365	23549.178021
555.945014	23396.960381
556.302606	23688.568446
556.660143	23604.834880
557.017625	23883.719073
557.375050	23434.592594
557.732421	23822.685823
558.089735	23634.814622
558.446994	23702.272822
558.804197	23721.887952
559.161345	23698.489437
559.518437	23426.403240
559.875474	23648.687878
560.232455	23834.035981
560.589381	23673.334079
560.946251	23628.084682
561.303065	23966.794768
561.659825	24040.710686
562.016528	23652.206603
562.373177	23401.079004
562.729770	23747.141612
563.086307	23630.799343
563.442789	23806.967506
563.799216	23630.391010
564.155587	23650.890862
564.511904	23633.672801
564.868164	23561.934661
565.224370	23562.290063
565.580520	23452.150933
565.936615	23601.742133
566.292654	23263.049691
566.648638	23593.865330
567.004567	23400.945413
567.360441	23357.503270
567.716260	23084.061003
568.072023	23417.671962
568.427732	23161.752745
568.783385	22965.551038
569.138982	23189.867260
569.494525	23241.990271
569.850013	22984.803204
570.205445	23084.751641
570.560823	22882.268656
570.916145	22648.696874
571.271412	22822.331857
571.626625	22583.292944
571.981782	22690.997196
572.336884	22503.665399
572.691931	22630.251292
573.046923	22371.705635
573.401860	22254.708016
573.756743	22245.656624
574.111570	22161.529849
574.466342	22108.471705
574.821059	22197.301877
575.175722	21886.484495
575.530330	21885.193960
575.884882	21906.918812
576.239380	21811.215027
576.593823	21706.258204
576.948211	21693.350330
577.302544	21534.753109
577.656823	21409.704767
578.011047	21500.322028
578.365216	21382.235520
578.719330	21261.320924
579.073389	21166.143940
579.427394	21296.742592
579.781344	21102.174218
580.135239	20976.392388
580.489080	20955.582505
580.842866	20700.016170
581.196597	20893.520860
581.550273	20880.348325
581.903895	20778.385948
582.257463	21088.016138
582.610975	20612.632809
582.964434	20907.081564
583.317837	20634.521499
583.671186	20717.138449
584.024481	20682.447749
584.377721	20472.201387
584.730906	20499.282465
585.084037	20556.313038
585.437113	20449.397727
585.790135	20641.425359
586.143103	20128.195569
586.496016	20137.194028
586.848874	20378.148579
587.201679	20318.229425
587.554428	19975.493978
587.907124	20310.604679
588.259765	20095.218861
588.612352	20173.059317
588.964884	19744.949409
589.317362	19916.197405
589.669786	19971.519028
590.022155	20031.173522
590.374470	20187.729075
590.726731	20013.814308
591.078937	19754.963661
591.431090	19865.904334
591.783188	19598.730742
592.135232	19573.837524
592.487222	19671.976187
592.839157	19705.683862
593.191038	19584.562579
593.542866	19469.115115
593.894639	19191.080357
594.246358	19407.272760
594.598022	19328.098918
594.949633	19072.608200
595.301190	19033.778713
595.652692	19194.049596
596.004141	19443.019582
596.355535	18772.377242
596.706876	18771.479916
597.058162	18679.708231
597.409395	18885.205827
597.760573	18980.017327
598.111698	18756.686650
598.462768	18700.482826
598.813785	18667.427980
599.164748	18489.366865
599.515657	18509.171038
599.866511	18301.629254
600.217312	18662.613678
600.568060	18199.830714
600.918753	18497.604110
601.269392	18410.591274
601.619978	18174.314914
601.970510	18410.951717
602.320988	18338.517898
602.671412	18559.557370
603.021783	18453.925033
603.372100	18194.285445
603.722363	18320.659610
604.072572	18258.300537
604.422728	18395.987052
604.772830	18157.565680
605.122878	18118.917674
605.472872	18106.024923
605.822813	18092.071010
606.172701	18053.455771
606.522534	18253.188807
606.872314	18275.379966
607.222041	18102.556610
607.571714	18337.189554
607.921333	18149.925812
608.270899	18228.696361
608.620411	18411.508764
608.969870	18173.410027
609.319276	18178.851952
609.668627	18205.396148
610.017926	18351.201441
610.367171	18461.141444
610.716362	18503.260285
611.065500	18326.383840
611.414585	18458.333522
611.763616	18430.798739
612.112594	18392.327174
612.461518	18358.957256
612.810389	18556.073933
613.159207	18405.030882
613.507971	18303.249985
613.856682	18596.622454
614.205340	18523.258542
614.553945	18659.420107
614.902496	18417.971523
615.250994	18653.574890
615.599439	18579.893385
615.947830	18577.166121
616.296169	18614.609291
616.644454	18587.598789
616.992686	18562.952587
617.340864	18776.669784
617.688990	18528.992855
618.037063	18705.443322
618.385082	18548.822233
618.733048	18839.684207
619.080961	18695.018215
619.428821	18740.575123
619.776628	18635.078896
620.124382	18546.188230
620.472083	18580.253827
620.819731	18611.546790
621.167326	18302.758473
621.514868	18348.940483
621.862357	18103.668184
622.209793	18122.073437
622.557176	17954.520606
622.904506	17785.465512
623.251783	17689.955811
623.599007	17465.349722
623.946179	17411.119510
624.293297	17348.271445
624.640363	17100.281964
624.987376	17123.683000
625.334336	16910.850526
625.681243	16754.428563
626.028097	16769.420954
626.374899	16709.499279
626.721647	16573.937611
627.068343	16397.419089
627.414987	16320.186091
627.761577	16294.324972
628.108115	16351.584918
628.454600	16061.408541
628.801032	16159.229611
629.147412	16096.232832
629.493739	16115.164885
629.840014	15927.903663
630.186236	16028.494847
630.532405	15791.096830
630.878521	15994.951010
631.224585	15875.241250
631.570597	15699.100814
631.916556	15735.528192
632.262462	15716.470109
632.608316	15630.067253
632.954117	15578.012298
633.299866	15571.836885
633.645562	15495.816285
633.991206	15248.817391
634.336797	15115.367966
634.682336	15090.830150
635.027823	14974.445031
635.373257	14863.499317
635.718639	14755.825312
636.063968	14709.799577
636.409245	14457.860352
636.754470	14482.602335
637.099642	14334.059696
637.444762	14100.845837
637.789829	14150.080266
638.134845	13979.147342
638.479808	14003.836393
638.824719	13965.712667
