Dividing Wavelength (nm)	Counts (n)	Blue Motor Position (mm): 46.400000	Red Motor Position (mm): 0.000000	
326.493990	2271.203645
326.888308	2271.203645
327.282561	2271.203645
327.676750	2233.314333
328.070874	2228.762171
328.464933	2228.890720
328.858929	2234.030177
329.252859	2236.651577
329.646726	2246.675911
330.040528	2257.647983
330.434265	2272.549633
330.827938	2291.494289
331.221547	2308.195632
331.615091	2327.682212
332.008571	2342.654439
332.401986	2362.546832
332.795338	2381.945192
333.188625	2401.575445
333.581847	2422.438261
333.975006	2442.716302
334.368100	2460.037707
334.761129	2479.746098
335.154095	2495.287975
335.546996	2518.129443
335.939833	2562.904971
336.332606	2577.748649
336.725315	2592.269693
337.117960	2601.545416
337.510540	2616.096706
337.903056	2624.318828
338.295508	2631.542802
338.687896	2641.539410
339.080220	2649.327992
339.472480	2654.190185
339.864676	2661.940959
340.256807	2666.924140
340.648875	2669.343894
341.040879	2668.960766
341.432818	2675.274811
341.824694	2678.163392
342.216506	2678.528876
342.608253	2678.375121
342.999937	2678.501150
343.391557	2680.497447
343.783113	2679.728671
344.174605	2678.362518
344.566033	2678.894360
344.957397	2674.329595
345.348697	2672.174502
345.739934	2671.841785
346.131106	2674.170798
346.522215	2671.234326
346.913260	2667.030004
347.304241	2668.595282
347.695159	2665.847853
348.086012	2665.356341
348.476802	2662.505568
348.867528	2659.478356
349.258191	2656.390649
349.648789	2654.104486
350.039324	2652.481234
350.429796	2654.260761
350.820203	2651.430153
351.210548	2653.920483
351.600828	2650.568116
351.991045	2652.854279
352.381198	2653.560041
352.771288	2650.152221
353.161314	2649.030564
353.551276	2648.102992
353.941175	2648.125677
354.331010	2647.296407
354.720782	2648.705410
355.110490	2649.017961
355.500135	2648.705410
355.889717	2648.319762
356.279235	2649.179278
356.668689	2645.411016
357.058080	2649.973260
357.447408	2649.532159
357.836672	2649.396048
358.225873	2649.461583
358.615010	2648.032416
359.004084	2649.874957
359.393095	2652.279588
359.782043	2651.160452
360.170927	2653.600370
360.559748	2652.934938
360.948505	2655.581544
361.337199	2656.604898
361.725830	2658.984322
362.114398	2657.139260
362.502903	2657.973571
362.891344	2658.326452
363.279722	2656.458704
363.668037	2658.583551
364.056289	2657.663540
364.444478	2662.074550
364.832603	2662.636638
365.220665	2660.042965
365.608665	2661.033552
365.996601	2661.814930
366.384474	2663.375168
366.772284	2663.254180
367.160031	2662.487924
367.547715	2665.096722
367.935336	2666.609068
368.322893	2664.312822
368.710388	2662.878614
369.097820	2664.239725
369.485189	2661.779642
369.872495	2668.005467
370.259738	2668.343225
370.646918	2671.761127
371.034035	2671.793894
371.421090	2670.200890
371.808081	2673.243226
372.195010	2674.538803
372.581875	2675.988134
372.968678	2680.169772
373.355418	2683.083558
373.742096	2691.688808
374.128710	2697.776001
374.515262	2707.639019
374.901751	2716.667725
375.288177	2727.821278
375.674540	2744.779720
376.060841	2760.089704
376.447079	2778.631068
376.833254	2805.674338
377.219367	2820.903663
377.605417	2852.420957
377.991404	2872.875439
378.377329	2910.726943
378.763191	2931.430962
379.148991	2972.586942
379.534727	3010.715709
379.920402	3047.395144
380.306013	3075.587797
380.691563	3138.882004
381.077049	3163.818072
381.462474	3208.225596
381.847835	3265.019235
382.233134	3307.422901
382.618371	3341.753158
383.003545	3406.695823
383.388657	3439.060030
383.773706	3503.914475
384.158693	3538.821944
384.543618	3574.104980
384.928480	3635.367602
385.313280	3699.337324
385.698017	3724.235583
386.082692	3815.515756
386.467305	3821.524811
386.851856	3860.646685
387.236344	3946.719346
387.620770	3971.700784
388.005133	4026.568702
388.389435	4074.878080
388.773674	4086.581118
389.157851	4163.519208
389.541965	4232.514961
389.926018	4193.302345
390.310008	4300.222698
390.693936	4349.888146
391.077802	4389.350298
391.461606	4385.012385
391.845348	4454.870174
392.229027	4515.429556
392.612645	4515.883259
392.996200	4615.783805
393.379694	4676.617929
393.763125	4781.912510
394.146494	4807.677847
394.529801	4867.060119
394.913047	4949.102377
395.296230	4896.863420
395.679351	5007.294936
396.062410	5061.121857
396.445408	5030.963154
396.828343	5089.677473
397.211217	5144.227798
397.594028	5030.257392
397.976778	5147.123941
398.359466	5189.343605
398.742092	5218.473912
399.124656	5138.664885
399.507158	5253.242750
399.889598	5316.700795
400.271977	5439.556235
400.654294	5435.946768
401.036549	5478.864632
401.418742	5401.394700
401.800874	5605.321976
402.182944	5666.098127
402.564952	5769.351040
402.946898	5830.349001
403.328783	5664.386655
403.710606	5688.501014
404.092367	6010.229973
404.474067	6030.727305
404.855705	5933.206184
405.237282	5871.038675
405.618797	6120.205265
406.000250	6096.655515
406.381642	6302.206042
406.762972	6325.380227
407.144240	6384.908692
407.525447	6367.078131
407.906593	6383.056068
408.287677	6543.417692
408.668700	6462.033305
409.049661	6575.068577
409.430560	6595.704540
409.811399	6461.100691
410.192176	6730.008440
410.572891	6744.035451
410.953545	6936.947806
411.334138	6670.086765
411.714669	6842.325348
412.095139	6636.673997
412.475547	6879.231635
412.855894	6947.526667
413.236180	7137.570605
413.616405	6793.620240
413.996568	7017.258428
414.376670	7067.279277
414.756711	6962.854295
415.136691	7054.026083
415.516609	7264.242198
415.896466	7243.671770
416.276262	7451.500899
416.655997	7434.013137
417.035670	7612.716999
417.415283	7952.536139
417.794834	8021.020214
418.174324	7878.189202
418.553753	7796.850185
418.933121	8103.317050
419.312428	8200.250877
419.691674	7976.222000
420.070859	8460.238304
420.449983	8137.211248
420.829045	8504.212289
421.208047	8266.194211
421.586988	8581.800688
421.965867	8603.477650
422.344686	8700.192186
422.723444	8768.474615
423.102141	8109.958771
423.480777	8872.796253
423.859352	8392.981750
424.237866	9010.376903
424.616319	8880.179023
424.994712	9309.125762
425.373044	8854.325465
425.751314	9333.383795
426.129524	9216.348367
426.507673	9296.210326
426.885762	9454.799985
427.263789	9370.234629
427.641756	9312.097523
428.019662	9397.494669
428.397508	9668.829733
428.775292	9320.841404
429.153016	9710.129386
429.530679	9545.586125
429.908282	9557.957116
430.285824	9290.624728
430.663305	9974.905910
431.040726	9426.801417
431.418086	9397.648424
431.795385	9735.254497
432.172624	9834.164456
432.549802	9741.261032
432.926920	9814.261981
433.303977	9688.230614
433.680974	9886.607579
434.057910	9987.155913
434.434786	10065.616432
434.811601	9878.587104
435.188355	10444.806983
435.565050	10195.204333
435.941683	10110.873391
436.318257	10586.128169
436.694770	10759.795919
437.071222	10813.700977
437.447614	10639.705553
437.823946	10567.536394
438.200218	10653.586370
438.576429	10503.985088
438.952580	10755.105126
439.328670	10770.132805
439.704700	10569.081508
440.080670	10559.901567
440.456580	11081.769374
440.832429	10876.735565
441.208218	10466.128543
441.583947	10764.529563
441.959616	10952.133583
442.335224	10763.344892
442.710773	10866.736437
443.086261	11097.434760
443.461689	10366.195230
443.837057	11053.264170
444.212365	11285.459716
444.587612	10922.549571
444.962800	11136.460852
445.337927	10881.063396
445.712995	10551.301358
446.088002	11587.717218
446.462949	11286.989706
446.837837	11251.419325
447.212664	11175.711276
447.587431	11769.385280
447.962139	12534.329964
448.336786	14822.212267
448.711374	15308.650846
449.085901	13124.122279
449.460369	12764.032660
449.834776	12213.873897
450.209124	13147.246052
450.583412	13572.600969
450.957640	14496.833512
451.331808	13534.671328
451.705917	12611.482303
452.079965	11857.418949
452.453954	12771.662446
452.827883	12431.593769
453.201752	12715.456101
453.575562	12268.459510
453.949311	12688.697657
454.323001	12669.531190
454.696632	12903.667580
455.070202	13180.376515
455.443713	13369.767624
455.817164	13865.494528
456.190556	13829.354496
456.563888	14204.522207
456.937160	14336.746631
457.310373	13701.803222
457.683526	13813.787413
458.056619	13334.741687
458.429653	13542.349005
458.802628	12897.154409
459.175542	13311.602791
459.548398	14262.308953
459.921194	14633.468946
460.293930	14703.314133
460.666607	15537.264652
461.039224	16608.051099
461.411782	17336.812902
461.784280	17108.032738
462.156719	17221.589769
462.529099	16879.124024
462.901419	15845.891652
463.273680	15603.258397
463.645882	15507.683161
464.018024	15222.091713
464.390106	15459.817405
464.762130	16162.382852
465.134094	16978.207903
465.505999	19036.838693
465.877845	22310.316984
466.249631	25094.838640
466.621358	24710.680032
466.993026	23295.272746
467.364634	22706.954969
467.736184	21227.772046
468.107674	20446.063004
468.479105	20577.198539
468.850477	20031.047493
469.221790	19634.923706
469.593043	18945.855948
469.964238	18370.690542
470.335373	18016.821706
470.706449	18515.288478
471.077467	18104.036188
471.448425	19984.187447
471.819324	24123.574652
472.190164	25950.970236
472.560945	22261.604315
472.931667	19961.749272
473.302330	19370.195073
473.672934	19006.188478
474.043479	19219.731755
474.413965	19038.507315
474.784393	18627.323081
475.154761	19403.164220
475.525070	19302.966246
475.895321	19034.912972
476.265513	19645.477362
476.635645	20229.832792
477.005719	19982.488578
477.375734	20168.625622
477.745691	20655.850621
478.115588	21203.549301
478.485427	21771.178183
478.855207	22871.289023
479.224928	24662.103474
479.594591	26882.693934
479.964194	26781.853213
480.333739	27033.918467
480.703226	26610.582532
481.072653	26308.733363
481.442022	26959.896685
481.811333	27887.143838
482.180584	27753.759948
482.549777	26801.112942
482.918912	26482.514539
483.287988	26630.096838
483.657005	26231.467598
484.025964	26035.102053
484.394864	25898.827062
484.763706	25543.541662
485.132489	25024.882548
485.501213	25190.567631
485.869879	25103.907676
486.238487	24964.814680
486.607036	25086.283802
486.975527	24838.201060
487.343959	25124.783094
487.712333	25041.475506
488.080648	24696.859709
488.448905	25204.829056
488.817104	24975.121319
489.185244	25685.593816
489.553326	25624.036286
489.921350	26694.361468
490.289315	29039.385249
490.657222	30744.210219
491.025070	31261.407397
491.392861	31011.650992
491.760593	30133.240017
492.128267	29224.577077
492.495883	28171.681685
492.863440	27286.571016
493.230939	26421.481289
493.598380	26256.892657
493.965763	25878.596911
494.333088	25377.624686
494.700354	25345.502454
495.067563	25193.667941
495.434713	24944.705517
495.801805	25127.563291
496.168839	24899.914865
496.535815	24779.098572
496.902733	24981.223636
497.269593	24694.034142
497.636395	24859.759554
498.003139	24774.075062
498.369825	24519.685836
498.736453	24727.056220
499.103023	24604.780513
499.469535	24603.714309
499.835989	24819.841177
500.202385	24848.485014
500.568723	24396.321240
500.935003	24569.222735
501.301226	24257.117338
501.667390	25107.121412
502.033497	25308.941485
502.399546	25049.432968
502.765537	24570.452776
503.131470	24950.991836
503.497345	25098.886687
503.863163	24342.658157
504.228923	24874.031061
504.594625	25150.739995
504.960269	24698.543454
505.325856	25181.314593
505.691385	24568.252313
506.056856	25168.189949
506.422270	25172.301010
506.787625	24684.639952
507.152924	25114.239521
507.518164	25158.500852
507.883347	24976.152235
508.248472	24653.833461
508.613540	25412.007876
508.978550	25220.068464
509.343503	25242.201650
509.708398	25430.662666
510.073236	25600.506700
510.438016	25816.648692
510.802738	25471.798481
511.167403	25729.013274
511.532010	25488.371274
511.896561	26212.507818
512.261053	26195.309922
512.625488	26026.620312
512.989866	25910.719143
513.354186	25755.350782
513.718449	25880.126901
514.082655	26252.143891
514.446803	25983.175648
514.810894	26457.510416
515.174927	25962.839633
515.538904	25980.708003
515.902822	26483.331206
516.266684	26235.029173
516.630488	26142.115667
516.994235	26075.176705
517.357925	26431.404801
517.721558	26578.271256
518.085133	26718.566568
518.448651	26576.300165
518.812112	26356.518460
519.175516	26583.987925
519.538863	26732.485194
519.902152	26521.790169
520.265385	26776.013037
520.628560	26582.437770
520.991678	26563.891365
521.354739	26616.160569
521.717743	26712.542389
522.080690	26492.188513
522.443580	26809.037635
522.806413	26784.214994
523.169189	26892.274647
523.531908	26952.304707
523.894569	26578.561123
524.257174	26680.394951
524.619722	26812.173233
524.982213	26516.789344
525.344647	26535.481943
525.707025	26704.030401
526.069345	26650.833625
526.431608	26634.510369
526.793815	26810.330691
527.155964	26308.309906
527.518057	26481.881874
527.880093	26382.104837
528.242072	26623.908822
528.603995	26337.324267
528.965860	26124.774097
529.327669	26157.924725
529.689421	26157.753326
530.051117	25994.974468
530.412755	26173.380903
530.774337	25928.138851
531.135862	25847.266140
531.497331	26023.330959
531.858743	25620.494875
532.220098	26075.756438
532.581396	25765.491063
532.942638	25660.887121
533.303824	25792.544415
533.664953	25769.415601
534.026025	25447.074142
534.387040	25688.923498
534.747999	25727.435393
535.108902	25900.825879
535.469748	25395.374589
535.830537	25546.894029
536.191270	25697.677461
536.551947	25510.605283
536.912567	25139.755321
537.273131	25585.720996
537.633638	25252.253710
537.994089	25471.256557
538.354483	24956.247239
538.714821	25469.436700
539.075103	25521.589957
539.435328	25276.426043
539.795497	24881.751588
540.155609	25223.256993
540.515665	25544.907815
540.875665	24741.814198
541.235609	25104.915907
541.595496	25022.167887
541.955328	25389.758743
542.315102	25317.551776
542.674821	24812.037471
543.034483	24703.410688
543.394090	24879.881320
543.753640	24687.006774
544.113134	25318.978423
544.472571	24895.082919
544.831953	25202.447110
545.191278	24861.718043
545.550548	24740.629527
545.909761	24952.567197
546.268918	25188.513361
546.628019	25161.472612
546.987064	24839.864641
547.346053	24574.460493
547.704986	24667.552961
548.063863	24834.647046
548.422684	24862.764082
548.781449	24356.178532
549.140158	24769.321254
549.498811	24349.128478
549.857408	24119.703046
550.215949	24498.933927
550.574434	24199.529717
550.932864	24390.549119
551.291237	24584.257976
551.649555	24415.275978
552.007817	24496.965356
552.366022	24334.579708
552.724173	24342.701007
553.082267	24334.625079
553.440305	24811.745084
553.798288	24046.863414
554.156215	24530.604976
554.514086	24663.701519
554.871902	24066.072731
555.229661	24326.511342
555.587365	24170.843031
555.945014	24080.986985
556.302606	24288.445589
556.660143	24286.502224
557.017625	24516.429251
557.375050	24034.036198
557.732421	24418.774539
558.089735	24243.418003
558.446994	24288.029694
558.804197	24333.700027
559.161345	24220.740372
559.518437	24038.066601
559.875474	24186.243756
560.232455	24359.067113
560.589381	24182.115051
560.946251	24194.705333
561.303065	24472.946778
561.659825	24573.883281
562.016528	24189.089488
562.373177	23909.895264
562.729770	24278.930411
563.086307	24117.643735
563.442789	24289.811742
563.799216	24155.628829
564.155587	24126.317040
564.511904	24104.196457
564.868164	24076.462549
565.224370	24038.694224
565.580520	23979.455626
565.936615	24086.736421
566.292654	23798.636999
566.648638	24026.729046
567.004567	23861.558161
567.360441	23811.907836
567.716260	23536.645713
568.072023	23830.842410
568.427732	23622.541933
568.783385	23383.596282
569.138982	23631.653819
569.494525	23662.243540
569.850013	23416.502414
570.205445	23530.442573
570.560823	23351.184183
570.916145	23122.373772
571.271412	23307.361433
571.626625	23057.451272
571.981782	23153.926354
572.336884	22972.467501
572.691931	23104.575978
573.046923	22854.194470
573.401860	22716.137431
573.756743	22761.767435
574.111570	22648.853150
574.466342	22562.346950
574.821059	22640.603302
575.175722	22348.385258
575.530330	22308.313126
575.884882	22314.627171
576.239380	22223.306669
576.593823	22132.197895
576.948211	22102.840736
577.302544	21954.892953
577.656823	21824.276657
578.011047	21926.362543
578.365216	21790.876492
578.719330	21677.105211
579.073389	21558.076007
579.427394	21709.189635
579.781344	21455.886778
580.135239	21348.585818
580.489080	21295.925925
580.842866	21078.264025
581.196597	21288.633896
581.550273	21246.996486
581.903895	21126.230604
582.257463	21441.751382
582.610975	20974.411215
582.964434	21299.681585
583.317837	20957.639296
583.671186	21059.470604
584.024481	21050.242772
584.377721	20809.694034
584.730906	20909.024929
585.084037	20867.067406
585.437113	20813.384158
585.790135	21018.690190
586.143103	20459.545570
586.496016	20491.977833
586.848874	20720.301773
587.201679	20636.129627
587.554428	20340.377734
587.907124	20677.078920
588.259765	20426.342010
588.612352	20496.237608
588.964884	20064.102339
589.317362	20235.378061
589.669786	20292.086001
590.022155	20291.276896
590.374470	20546.225690
590.726731	20295.332504
591.078937	20095.496124
591.431090	20173.049235
591.783188	19940.861251
592.135232	19895.667306
592.487222	20002.721249
592.839157	20003.721918
593.191038	19889.096162
593.542866	19777.162382
593.894639	19473.750456
594.246358	19696.198931
594.598022	19577.741898
594.949633	19335.161575
595.301190	19322.185645
595.652692	19501.013016
596.004141	19710.931703
596.355535	19036.584115
596.706876	19064.693589
597.058162	18963.671386
597.409395	19206.312203
597.760573	19232.027129
598.111698	19017.964613
598.462768	18968.248754
598.813785	18937.535524
599.164748	18736.844669
599.515657	18789.416342
599.866511	18597.247557
600.217312	18947.063305
600.568060	18458.252863
600.918753	18766.897508
601.269392	18665.928237
601.619978	18463.730077
601.970510	18639.477303
602.320988	18600.680583
602.671412	18796.085788
603.021783	18723.178101
603.372100	18432.769831
603.722363	18587.220702
604.072572	18534.533083
604.422728	18688.603347
604.772830	18436.008772
605.122878	18394.164674
605.472872	18364.779789
605.822813	18352.723869
606.172701	18355.315022
606.522534	18509.072735
606.872314	18552.938335
607.222041	18393.348008
607.571714	18596.882073
607.921333	18419.168797
608.270899	18507.915790
608.620411	18654.648655
608.969870	18462.454665
609.319276	18445.720555
609.668627	18470.762487
610.017926	18605.764587
610.367171	18718.966217
610.716362	18785.247308
611.065500	18589.290096
611.414585	18746.564013
611.763616	18719.679540
612.112594	18650.585485
612.461518	18631.582856
612.810389	18821.871290
613.159207	18675.448456
613.507971	18593.464171
613.856682	18836.813270
614.205340	18750.823788
614.553945	18916.617256
614.902496	18653.229571
615.250994	18861.111632
615.599439	18817.525816
615.947830	18804.917890
616.296169	18884.242966
616.644454	18833.763372
616.992686	18811.743612
617.340864	19032.548671
617.688990	18782.048695
618.037063	18948.184962
618.385082	18821.503286
618.733048	19089.458257
619.080961	18971.770000
619.428821	19001.028857
619.776628	18869.144710
620.124382	18811.017686
620.472083	18867.750831
620.819731	18864.678248
621.167326	18555.244663
621.514868	18606.399772
621.862357	18393.048059
622.209793	18387.159991
622.557176	18218.372078
622.904506	18054.597592
623.251783	17987.000761
623.599007	17725.150627
623.946179	17674.958379
624.293297	17593.279083
624.640363	17328.573136
624.987376	17353.768823
625.334336	17156.379924
625.681243	17004.913415
626.028097	17023.979059
626.374899	16938.513857
626.721647	16805.001418
627.068343	16645.612737
627.414987	16579.049341
627.761577	16544.577931
628.108115	16559.590487
628.454600	16300.858307
628.801032	16403.511323
629.147412	16339.526478
629.493739	16341.096797
629.840014	16167.184551
630.186236	16249.877118
630.532405	16014.533372
630.878521	16215.720781
631.224585	16115.303517
631.570597	15943.410253
631.916556	15972.515354
632.262462	15941.862618
632.608316	15869.096083
632.954117	15807.699871
633.299866	15785.614576
633.645562	15709.699840
633.991206	15480.695344
634.336797	15351.528380
634.682336	15318.889429
635.027823	15183.647874
635.373257	15048.507143
635.718639	14972.292458
636.063968	14907.624537
