Dividing Wavelength (nm)	Counts (n)	Blue Motor Position (mm): 34.900000	Red Motor Position (mm): 0.000000	
326.493990	2227.814434
326.888308	2227.814434
327.282561	2227.814434
327.676750	2190.245235
328.070874	2186.502178
328.464933	2185.688032
328.858929	2187.641479
329.252859	2193.368230
329.646726	2202.626309
330.040528	2215.508978
330.434265	2227.108673
330.827938	2246.630541
331.221547	2265.834816
331.615091	2280.181940
332.008571	2298.670372
332.401986	2318.398928
332.795338	2336.226968
333.188625	2355.968127
333.581847	2374.496888
333.975006	2393.277706
334.368100	2413.507857
334.761129	2429.390012
335.154095	2449.436160
335.546996	2475.932465
335.939833	2511.981756
336.332606	2528.433561
336.725315	2542.175747
337.117960	2554.168652
337.510540	2563.056206
337.903056	2576.513566
338.295508	2586.560586
338.687896	2592.494024
339.080220	2600.590117
339.472480	2610.369955
339.864676	2613.031685
340.256807	2618.213991
340.648875	2623.174486
341.040879	2624.762450
341.432818	2628.883593
341.824694	2631.527678
342.216506	2633.045065
342.608253	2632.172946
342.999937	2633.544140
343.391557	2634.431383
343.783113	2635.671507
344.174605	2632.183028
344.566033	2629.357461
344.957397	2630.960548
345.348697	2630.022894
345.739934	2627.628346
346.131106	2625.327059
346.522215	2623.665999
346.913260	2622.647686
347.304241	2619.189454
347.695159	2616.827673
348.086012	2618.642489
348.476802	2615.063270
348.867528	2610.022116
349.258191	2609.245778
349.648789	2606.180757
350.039324	2605.502721
350.429796	2608.061107
350.820203	2605.515324
351.210548	2604.751589
351.600828	2606.770572
351.991045	2604.194542
352.381198	2602.697319
352.771288	2599.702874
353.161314	2600.305292
353.551276	2600.396032
353.941175	2597.467122
354.331010	2599.949890
354.720782	2599.806217
355.110490	2600.665734
355.500135	2600.000302
355.889717	2600.829572
356.279235	2599.770929
356.668689	2599.307143
357.058080	2599.836464
357.447408	2598.659355
357.836672	2600.852257
358.225873	2599.808738
358.615010	2599.690271
359.004084	2600.610282
359.393095	2599.052565
359.782043	2602.173039
360.170927	2605.348966
360.559748	2603.110694
360.948505	2605.235540
361.337199	2606.770572
361.725830	2604.953236
362.114398	2605.285952
362.502903	2603.919799
362.891344	2605.023812
363.279722	2605.570777
363.668037	2606.838627
364.056289	2605.923658
364.444478	2607.481374
364.832603	2606.914244
365.220665	2608.608072
365.608665	2611.151334
365.996601	2610.780809
366.384474	2609.691920
366.772284	2610.034719
367.160031	2608.764348
367.547715	2614.639813
367.935336	2611.463886
368.322893	2609.686879
368.710388	2608.807198
369.097820	2607.491457
369.485189	2610.226282
369.872495	2616.278188
370.259738	2615.020420
370.646918	2615.083434
371.034035	2616.477313
371.421090	2617.281377
371.808081	2616.290791
372.195010	2617.553600
372.581875	2616.396655
372.968678	2617.634258
373.355418	2616.706686
373.742096	2617.561161
374.128710	2617.911522
374.515262	2617.412447
374.901751	2617.362036
375.288177	2618.196347
375.674540	2617.992180
376.060841	2619.164248
376.447079	2620.817747
376.833254	2620.457304
377.219367	2619.383538
377.605417	2621.561317
377.991404	2620.386728
378.377329	2622.912346
378.763191	2621.599126
379.148991	2622.783797
379.534727	2624.281019
379.920402	2622.783797
380.306013	2624.628859
380.691563	2624.623818
381.077049	2626.060547
381.462474	2623.832357
381.847835	2624.943931
382.233134	2625.836215
382.618371	2625.049795
383.003545	2627.020887
383.388657	2627.114148
383.773706	2628.893675
384.158693	2628.775208
384.543618	2630.895013
384.928480	2629.551546
385.313280	2628.815537
385.698017	2631.142030
386.082692	2629.407873
386.467305	2630.015332
386.851856	2631.089098
387.236344	2632.291413
387.620770	2630.683285
388.005133	2630.723614
388.389435	2633.559263
388.773674	2629.244035
389.157851	2635.888276
389.541965	2634.411218
389.926018	2637.778709
390.310008	2637.735859
390.693936	2637.680406
391.077802	2637.645118
391.461606	2639.911117
391.845348	2641.960346
392.229027	2642.121663
392.612645	2640.838689
392.996200	2642.330871
393.379694	2641.078144
393.763125	2643.066879
394.146494	2643.082003
394.529801	2643.699544
394.913047	2646.494864
395.296230	2648.675163
395.679351	2646.242806
396.062410	2647.949237
396.445408	2649.007879
396.828343	2650.641213
397.211217	2647.213228
397.594028	2651.130205
397.976778	2650.048877
398.359466	2650.588281
398.742092	2653.479382
399.124656	2650.051398
399.507158	2655.516009
399.889598	2655.536173
400.271977	2656.491472
400.654294	2656.057933
401.036549	2656.128509
401.418742	2658.888541
401.800874	2659.894251
402.182944	2660.610095
402.564952	2664.103614
402.946898	2668.958245
403.328783	2668.222237
403.710606	2670.457989
404.092367	2677.883608
404.474067	2683.822087
404.855705	2691.169569
405.237282	2700.311702
405.618797	2710.860316
406.000250	2726.941597
406.381642	2749.493199
406.762972	2764.878800
407.144240	2787.984929
407.525447	2813.183136
407.906593	2841.166581
408.287677	2890.179200
408.668700	2924.239756
409.049661	2979.722695
409.430560	3031.817979
409.811399	3067.973134
410.192176	3153.483706
410.572891	3218.464179
410.953545	3319.793892
411.334138	3341.664938
411.714669	3440.461471
412.095139	3472.308961
412.475547	3596.281016
412.855894	3690.817774
413.236180	3817.154131
413.616405	3817.247392
413.996568	3970.737924
414.376670	4060.790575
414.756711	4111.212196
415.136691	4226.021954
415.516609	4389.095720
415.896466	4484.181963
416.276262	4655.586235
416.655997	4738.114965
417.035670	4922.802677
417.415283	5182.472512
417.794834	5302.817457
418.174324	5344.364127
418.553753	5399.305142
418.933121	5682.829716
419.312428	5833.542572
419.691674	5806.854704
420.070859	6196.485485
420.449983	6108.492144
420.829045	6435.852072
421.208047	6390.849692
421.586988	6693.029056
421.965867	6795.568646
422.344686	6977.103117
422.723444	7089.674602
423.102141	6716.903961
423.480777	7360.296344
423.859352	7072.698517
424.237866	7656.010428
424.616319	7625.624874
424.994712	8030.915999
425.373044	7761.567149
425.751314	8215.074390
426.129524	8170.024119
426.507673	8356.382973
426.885762	8550.757263
427.263789	8524.268520
427.641756	8514.413064
428.019662	8668.397629
428.397508	8925.042771
428.775292	8697.038945
429.153016	9089.449922
429.530679	8979.356163
429.908282	9062.512516
430.285824	8827.388060
430.663305	9501.367644
431.040726	9011.745576
431.418086	9027.337865
431.795385	9363.746664
432.172624	9456.778638
432.549802	9404.615298
432.926920	9503.505093
433.303977	9401.025997
433.680974	9619.610428
434.057910	9714.290859
434.434786	9784.544379
434.811601	9653.794492
435.188355	10214.413649
435.565050	9945.362227
435.941683	9898.713910
436.318257	10395.509540
436.694770	10517.281131
437.071222	10594.483882
437.447614	10451.042890
437.823946	10343.373927
438.200218	10504.383339
438.576429	10309.182301
438.952580	10546.618126
439.328670	10614.051121
439.704700	10396.575744
440.080670	10390.092820
440.456580	10959.665067
440.832429	10707.317508
441.208218	10309.993926
441.583947	10648.804835
441.959616	10782.367686
442.335224	10590.093037
442.710773	10740.891593
443.086261	10936.566500
443.461689	10233.123892
443.837057	10867.321210
444.212365	11151.642287
444.587612	10800.735130
444.962800	11034.354802
445.337927	10819.647018
445.712995	10378.863650
446.088002	11470.563324
446.462949	11124.919131
446.837837	11098.349729
447.212664	11097.580953
447.587431	11609.437030
447.962139	12302.714151
448.336786	14548.515422
448.711374	15130.395646
449.085901	12991.784429
449.460369	12592.590579
449.834776	12042.603215
450.209124	12902.296386
450.583412	13312.011124
450.957640	14266.414973
451.331808	13434.911934
451.705917	12407.897826
452.079965	11728.499001
452.453954	12619.102007
452.827883	12251.891758
453.201752	12535.675952
453.575562	12051.573948
453.949311	12471.514667
454.323001	12427.112184
454.696632	12650.251297
455.070202	12938.310389
455.443713	13185.790714
455.817164	13640.926248
456.190556	13646.678204
456.563888	14004.322864
456.937160	14175.608669
457.310373	13507.257533
457.683526	13585.019852
458.056619	13145.075835
458.429653	13291.801138
458.802628	12737.168351
459.175542	13097.293258
459.548398	14039.822669
459.921194	14364.977092
460.293930	14436.642136
460.666607	15324.003680
461.039224	16348.701378
461.411782	17056.998617
461.784280	16938.095442
462.156719	16997.707086
462.529099	16680.177408
462.901419	15609.544716
463.273680	15389.664708
463.645882	15259.582775
464.018024	15001.629453
464.390106	15209.519076
464.762130	15942.270952
465.134094	16692.215683
465.505999	18675.551800
465.877845	21927.703490
466.249631	24762.177939
466.621358	24450.102790
466.993026	23005.038396
467.364634	22459.885498
467.736184	21008.791884
468.107674	20188.606236
468.479105	20327.933646
468.850477	19784.812333
469.221790	19368.849085
469.593043	18694.932516
469.964238	18134.547772
470.335373	17801.783727
470.706449	18235.708606
471.077467	17780.754554
471.448425	19610.895046
471.819324	23611.975675
472.190164	25655.291440
472.560945	22128.326289
472.931667	19749.042826
473.302330	19125.326067
473.672934	18627.343246
474.043479	18970.406368
474.413965	18784.954921
474.784393	18404.446108
475.154761	19102.353528
475.525070	19090.559749
475.895321	18750.095342
476.265513	19328.635801
476.635645	19911.108361
477.005719	19699.873932
477.375734	19881.327744
477.745691	20375.834690
478.115588	20885.190354
478.485427	21410.110580
478.855207	22460.109830
479.224928	24215.132088
479.594591	26434.588289
479.964194	26483.774828
480.333739	26682.880240
480.703226	26251.223880
481.072653	25916.266933
481.442022	26497.905182
481.811333	27407.052072
482.180584	27336.866608
482.549777	26383.476031
482.918912	26032.268924
483.287988	26148.333930
483.657005	25830.075805
484.025964	25562.025052
484.394864	25494.103066
484.763706	25173.783110
485.132489	24602.494350
485.501213	24787.035869
485.869879	24700.285173
486.238487	24506.591439
486.607036	24652.958821
486.975527	24361.617937
487.343959	24668.641850
487.712333	24627.483350
488.080648	24283.028869
488.448905	24765.563074
488.817104	24524.555591
489.185244	25191.815317
489.553326	25165.928992
489.921350	26153.170917
490.289315	28428.258771
490.657222	30205.777179
491.025070	30700.097602
491.392861	30498.627888
491.760593	29649.861418
492.128267	28748.435055
492.495883	27702.854377
492.863440	26832.453795
493.230939	25965.645035
493.598380	25798.361907
493.965763	25415.574492
494.333088	24954.316477
494.700354	24883.027000
495.067563	24759.004533
495.434713	24500.927703
495.801805	24666.963146
496.168839	24470.136335
496.535815	24305.126767
496.902733	24519.494273
497.269593	24195.257339
497.636395	24384.320773
498.003139	24349.957748
498.369825	24101.622948
498.736453	24300.095695
499.103023	24176.610111
499.469535	24185.154867
499.835989	24402.352981
500.202385	24425.050776
500.568723	23927.110805
500.935003	24178.061964
501.301226	23795.478716
501.667390	24634.404854
502.033497	24848.343861
502.399546	24592.273411
502.765537	24172.289842
503.131470	24543.512850
503.497345	24681.809344
503.863163	23898.058635
504.228923	24490.973945
504.594625	24691.760582
504.960269	24232.050201
505.325856	24733.524021
505.691385	24118.314208
506.056856	24732.392282
506.422270	24700.141500
506.787625	24272.170224
507.152924	24675.835577
507.518164	24715.632966
507.883347	24529.793350
508.248472	24206.967940
508.613540	24979.030734
508.978550	24780.830208
509.343503	24768.602890
509.708398	25026.233578
510.073236	25181.919532
510.438016	25394.086574
510.802738	25059.976541
511.167403	25322.277858
511.532010	25028.492015
511.896561	25786.099300
512.261053	25758.889672
512.625488	25601.182215
512.989866	25496.487532
513.354186	25333.270094
513.718449	25446.993483
514.082655	25822.526677
514.446803	25565.894138
514.810894	26023.247780
515.174927	25508.999676
515.538904	25543.002258
515.902822	26027.638625
516.266684	25789.827233
516.630488	25701.508738
516.994235	25664.063048
517.357925	25967.724511
517.721558	26145.936861
518.085133	26251.455773
518.448651	26160.137792
518.812112	25892.432358
519.175516	26104.589318
519.538863	26255.236638
519.902152	26035.402002
520.265385	26315.022202
520.628560	26107.787930
520.991678	26120.070701
521.354739	26191.587030
521.717743	26249.000731
522.080690	26053.164507
522.443580	26383.241617
522.806413	26369.166715
523.169189	26458.649717
523.531908	26510.339188
523.894569	26119.120443
524.257174	26204.683948
524.619722	26379.538889
524.982213	26066.261425
525.344647	26133.160057
525.707025	26274.151048
526.069345	26246.195329
526.431608	26214.612500
526.793815	26386.422585
527.155964	25849.179258
527.518057	26031.422011
527.880093	25950.798837
528.242072	26181.212335
528.603995	25883.627983
528.965860	25694.556987
529.327669	25732.668110
529.689421	25713.589863
530.051117	25548.572733
530.412755	25723.717542
530.774337	25534.507914
531.135862	25395.467850
531.497331	25609.636230
531.858743	25161.885987
532.220098	25637.929706
532.581396	25332.007285
532.942638	25257.791418
533.303824	25357.180287
533.664953	25356.754309
534.026025	25031.410843
534.387040	25277.109119
534.747999	25333.940567
535.108902	25480.219728
535.469748	24979.300435
535.830537	25170.559292
536.191270	25289.858198
536.551947	25141.986032
536.912567	24788.089470
537.273131	25160.749206
537.633638	24868.490833
537.994089	25082.722227
538.354483	24607.951399
538.714821	25104.951195
539.075103	25158.730224
539.435328	24934.867705
539.795497	24496.630119
540.155609	24886.021445
540.515665	25175.146742
540.875665	24411.512757
541.235609	24729.629729
541.595496	24682.658778
541.955328	25039.499374
542.315102	24957.691529
542.674821	24482.073788
543.034483	24369.532548
543.394090	24536.356932
543.753640	24336.424771
544.113134	24965.923734
544.472571	24563.170829
544.831953	24868.095102
545.191278	24477.599763
545.550548	24393.052052
545.909761	24606.237407
546.268918	24830.414998
546.628019	24805.662932
546.987064	24505.142107
547.346053	24250.336986
547.704986	24358.517627
548.063863	24520.547874
548.422684	24543.424630
548.781449	24062.690117
549.140158	24470.849658
549.498811	24048.993302
549.857408	23804.898112
550.215949	24212.656882
550.574434	23897.138624
550.932864	24114.150215
551.291237	24280.697335
551.649555	24138.269616
552.007817	24195.292628
552.366022	24054.036976
552.724173	24093.766310
553.082267	24038.129615
553.440305	24524.295972
553.798288	23775.044399
554.156215	24277.249186
554.514086	24392.063986
554.871902	23757.168467
555.229661	24046.815523
555.587365	23900.690117
555.945014	23761.876905
556.302606	24022.071020
556.660143	23979.395132
557.017625	24220.024528
557.375050	23744.923505
557.732421	24134.450942
558.089735	23949.095277
558.446994	24008.606098
558.804197	24044.405852
559.161345	23974.326252
559.518437	23741.361929
559.875474	23924.973355
560.232455	24107.256437
560.589381	23945.042189
560.946251	23919.518827
561.303065	24243.780966
561.659825	24321.349200
562.016528	23926.019395
562.373177	23672.701414
562.729770	24032.516290
563.086307	23884.772674
563.442789	24061.485281
563.799216	23882.940215
564.155587	23883.910637
564.511904	23877.392425
564.868164	23816.182735
565.224370	23786.427324
565.580520	23703.812895
565.936615	23843.687270
566.292654	23526.505432
566.648638	23815.091325
567.004567	23640.465756
567.360441	23585.560029
567.716260	23321.816942
568.072023	23633.599704
568.427732	23404.718717
568.783385	23177.476104
569.138982	23424.023815
569.494525	23466.818170
569.850013	23199.064846
570.205445	23311.008708
570.560823	23110.771557
570.916145	22867.137632
571.271412	23052.127814
571.626625	22806.936173
571.981782	22928.175923
572.336884	22723.565571
572.691931	22860.909287
573.046923	22591.091609
573.401860	22472.296819
573.756743	22485.229899
574.111570	22391.635837
574.466342	22324.502791
574.821059	22400.863669
575.175722	22113.442283
575.530330	22097.638265
575.884882	22123.159107
576.239380	22029.292822
576.593823	21916.902817
576.948211	21890.005741
577.302544	21757.390628
577.656823	21602.642328
578.011047	21709.766847
578.365216	21575.644428
578.719330	21464.650824
579.073389	21352.505315
579.427394	21505.184221
579.781344	21267.135895
580.135239	21157.924338
580.489080	21120.839090
580.842866	20882.785723
581.196597	21083.463976
581.550273	21063.536294
581.903895	20939.014753
582.257463	21259.919484
582.610975	20793.582506
582.964434	21111.351639
583.317837	20800.932508
583.671186	20893.825850
584.024481	20857.786641
584.377721	20635.136520
584.730906	20697.510717
585.084037	20718.499561
585.437113	20626.420365
585.790135	20831.451654
586.143103	20298.067330
586.496016	20309.316665
586.848874	20547.491019
587.201679	20486.180506
587.554428	20159.193624
587.907124	20490.246197
588.259765	20257.707852
588.612352	20329.080508
588.964884	19898.641587
589.317362	20067.205169
589.669786	20136.732763
590.022155	20162.795528
590.374470	20361.633759
590.726731	20150.641306
591.078937	19917.392159
591.431090	20018.815133
591.783188	19763.178222
592.135232	19737.985055
592.487222	19837.542802
592.839157	19852.290698
593.191038	19732.054138
593.542866	19625.461460
593.894639	19336.036215
594.246358	19554.141736
594.598022	19463.917685
594.949633	19216.704542
595.301190	19182.722124
595.652692	19350.239666
596.004141	19584.199616
596.355535	18901.730729
596.706876	18923.155633
597.058162	18817.903902
597.409395	19053.653462
597.760573	19106.348643
598.111698	18898.635460
598.462768	18836.639350
598.813785	18800.907652
599.164748	18609.217777
599.515657	18665.749276
599.866511	18448.599054
600.217312	18808.063570
600.568060	18328.924582
600.918753	18646.716400
601.269392	18551.728458
601.619978	18329.726125
601.970510	18528.549233
602.320988	18478.178024
602.671412	18687.958079
603.021783	18597.202187
603.372100	18319.099373
603.722363	18456.032235
604.072572	18405.401406
604.422728	18556.071413
604.772830	18301.178071
605.122878	18254.625536
605.472872	18245.390142
605.822813	18237.137773
606.172701	18199.238379
606.522534	18403.757990
606.872314	18416.060926
607.222041	18253.624867
607.571714	18469.953381
607.921333	18296.220096
608.270899	18379.512561
608.620411	18552.227533
608.969870	18319.767326
609.319276	18329.736208
609.668627	18362.410446
610.017926	18486.329570
610.367171	18606.498074
610.716362	18653.799221
611.065500	18463.498184
611.414585	18608.509495
611.763616	18584.516123
612.112594	18527.800622
612.461518	18500.369183
612.810389	18683.836936
613.159207	18544.726296
613.507971	18459.664386
613.856682	18722.794973
614.205340	18651.361823
614.553945	18805.411923
614.902496	18548.781904
615.250994	18785.028017
615.599439	18730.767558
615.947830	18703.079020
616.296169	18770.103681
616.644454	18736.849710
616.992686	18693.732721
617.340864	18910.721627
617.688990	18672.940482
618.037063	18846.462039
618.385082	18687.784160
618.733048	18968.500812
619.080961	18846.761987
619.428821	18890.793946
619.776628	18760.969111
620.124382	18695.958391
620.472083	18736.557323
620.819731	18748.890506
621.167326	18449.234239
621.514868	18485.961565
621.862357	18260.959746
622.209793	18264.095343
622.557176	18103.133822
622.904506	17924.316533
623.251783	17844.268051
623.599007	17597.793437
623.946179	17539.840332
624.293297	17483.833113
624.640363	17231.062097
624.987376	17258.617044
625.334336	17036.576903
625.681243	16880.361627
626.028097	16901.847025
626.374899	16830.434039
626.721647	16694.257351
627.068343	16530.762649
627.414987	16451.490505
627.761577	16421.097388
628.108115	16466.850901
628.454600	16202.470108
628.801032	16294.491330
629.147412	16229.213429
629.493739	16245.448465
629.840014	16052.866306
630.186236	16148.436500
630.532405	15909.664769
630.878521	16110.882425
631.224585	16006.742268
631.570597	15832.940928
631.916556	15867.351844
632.262462	15836.958728
632.608316	15749.751807
632.954117	15701.288675
633.299866	15687.060018
633.645562	15610.106804
633.991206	15372.670979
634.336797	15237.270628
634.682336	15213.945209
635.027823	15095.594040
635.373257	14962.593278
635.718639	14880.835845
636.063968	14824.427854
