Dividing Wavelength (nm)	Counts (n)	Blue Motor Position (mm): 4.300000	Red Motor Position (mm): 0.000000	
326.493990	2162.203817
326.888308	2162.203817
327.282561	2162.203817
327.676750	2118.023144
328.070874	2112.470313
328.464933	2114.970726
328.858929	2118.373505
329.252859	2124.180914
329.646726	2131.782974
330.040528	2145.084058
330.434265	2158.675009
330.827938	2176.112360
331.221547	2194.217664
331.615091	2209.812474
332.008571	2230.634960
332.401986	2247.338823
332.795338	2265.897831
333.188625	2286.556479
333.581847	2303.149437
333.975006	2320.231387
334.368100	2339.909531
334.761129	2356.406707
335.154095	2374.423791
335.546996	2393.504558
335.939833	2407.496281
336.332606	2423.922880
336.725315	2436.598862
337.117960	2447.170161
337.510540	2458.895885
337.903056	2470.518265
338.295508	2480.837507
338.687896	2490.750936
339.080220	2496.830568
339.472480	2502.123779
339.864676	2510.265243
340.256807	2514.013341
340.648875	2517.297652
341.040879	2521.315452
341.432818	2522.958868
341.824694	2525.129085
342.216506	2524.982892
342.608253	2526.838036
342.999937	2529.209899
343.391557	2526.507841
343.783113	2526.873324
344.174605	2526.462470
344.566033	2523.760412
344.957397	2521.932993
345.348697	2523.074815
345.739934	2519.603980
346.131106	2522.590864
346.522215	2519.036851
346.913260	2517.645492
347.304241	2515.722292
347.695159	2510.693741
348.086012	2510.900428
348.476802	2508.468072
348.867528	2503.293327
349.258191	2500.558501
349.648789	2502.620333
350.039324	2496.185300
350.429796	2501.060096
350.820203	2500.747544
351.210548	2500.369458
351.600828	2499.073881
351.991045	2496.134889
352.381198	2493.808396
352.771288	2495.688747
353.161314	2491.081132
353.551276	2493.873931
353.941175	2493.122799
354.331010	2494.521719
354.720782	2494.456184
355.110490	2494.458705
355.500135	2491.537356
355.889717	2491.960813
356.279235	2491.106338
356.668689	2493.803355
357.058080	2491.459218
357.447408	2491.902840
357.836672	2495.156905
358.225873	2491.423930
358.615010	2494.373005
359.004084	2497.087667
359.393095	2494.390649
359.782043	2494.917450
360.170927	2495.073726
360.559748	2498.214365
360.948505	2497.385095
361.337199	2502.900117
361.725830	2496.366782
362.114398	2500.543378
362.502903	2498.219406
362.891344	2501.942298
363.279722	2495.681185
363.668037	2501.959942
364.056289	2500.578666
364.444478	2503.240395
364.832603	2500.916423
365.220665	2500.772750
365.608665	2502.743841
365.996601	2501.380209
366.384474	2501.947339
366.772284	2503.361383
367.160031	2504.631753
367.547715	2504.999758
367.935336	2502.769047
368.322893	2502.963132
368.710388	2498.206803
369.097820	2504.538492
369.485189	2500.329129
369.872495	2507.074192
370.259738	2505.793739
370.646918	2507.553102
371.034035	2507.840448
371.421090	2506.542351
371.808081	2508.546209
372.195010	2507.570746
372.581875	2506.544871
372.968678	2512.942096
373.355418	2508.256343
373.742096	2508.405057
374.128710	2508.808349
374.515262	2509.733401
374.901751	2508.331960
375.288177	2511.137363
375.674540	2512.354801
376.060841	2510.502177
376.447079	2510.633247
376.833254	2510.837414
377.219367	2510.063597
377.605417	2512.561488
377.991404	2511.071828
378.377329	2512.390089
378.763191	2512.450583
379.148991	2511.835562
379.534727	2515.802950
379.920402	2513.915038
380.306013	2510.832373
380.691563	2511.646519
381.077049	2512.982425
381.462474	2512.712723
381.847835	2511.180212
382.233134	2512.551406
382.618371	2513.050480
383.003545	2514.416633
383.388657	2514.046108
383.773706	2516.508712
384.158693	2513.347908
384.543618	2516.647344
384.928480	2518.570544
385.313280	2514.628362
385.698017	2516.538959
386.082692	2513.985614
386.467305	2515.366891
386.851856	2516.309586
387.236344	2517.980729
387.620770	2512.548886
388.005133	2515.192971
388.389435	2514.837569
388.773674	2513.055522
389.157851	2517.343023
389.541965	2516.861593
389.926018	2516.912004
390.310008	2518.285719
390.693936	2520.816378
391.077802	2518.142046
391.461606	2518.343692
391.845348	2518.517612
392.229027	2519.326717
392.612645	2518.575585
392.996200	2517.617766
393.379694	2520.965092
393.763125	2521.761594
394.146494	2518.245389
394.529801	2519.374608
394.913047	2521.743950
395.296230	2522.520288
395.679351	2521.023065
396.062410	2520.990298
396.445408	2520.791172
396.828343	2520.967613
397.211217	2522.666481
397.594028	2519.994670
397.976778	2519.929135
398.359466	2525.008097
398.742092	2520.592047
399.124656	2522.258148
399.507158	2523.445340
399.889598	2525.736544
400.271977	2523.213447
400.654294	2523.430216
401.036549	2523.500792
401.418742	2522.237983
401.800874	2522.709331
402.182944	2523.823426
402.564952	2521.275123
402.946898	2524.002387
403.328783	2524.526667
403.710606	2523.722603
404.092367	2524.771163
404.474067	2524.012469
404.855705	2521.701100
405.237282	2524.796369
405.618797	2523.619259
406.000250	2527.301822
406.381642	2524.135978
406.762972	2524.022552
407.144240	2521.421316
407.525447	2522.689167
407.906593	2519.558610
408.287677	2523.765453
408.668700	2524.461132
409.049661	2527.866432
409.430560	2524.380474
409.811399	2528.297450
410.192176	2527.715197
410.572891	2523.672192
410.953545	2525.865093
411.334138	2528.947759
411.714669	2526.311236
412.095139	2527.022038
412.475547	2527.914323
412.855894	2530.639066
413.236180	2527.569003
413.616405	2530.543284
413.996568	2529.782070
414.376670	2528.940197
414.756711	2530.810465
415.136691	2526.923736
415.516609	2525.882738
415.896466	2531.259128
416.276262	2529.653521
416.655997	2528.178983
417.035670	2531.891793
417.415283	2531.778367
417.794834	2529.288037
418.174324	2529.837523
418.553753	2527.695032
418.933121	2534.835827
419.312428	2528.720907
419.691674	2529.840043
420.070859	2529.855167
420.449983	2532.728624
420.829045	2531.002029
421.208047	2533.106711
421.586988	2527.430372
421.965867	2532.345497
422.344686	2531.768285
422.723444	2533.452030
423.102141	2530.518078
423.480777	2531.581762
423.859352	2530.928932
424.237866	2531.213758
424.616319	2534.185518
424.994712	2534.301464
425.373044	2531.755682
425.751314	2531.251566
426.129524	2526.858201
426.507673	2529.678726
426.885762	2529.177132
427.263789	2533.661238
427.641756	2533.918337
428.019662	2533.681403
428.397508	2535.392874
428.775292	2533.240302
429.153016	2534.735004
429.530679	2534.707277
429.908282	2534.475384
430.285824	2534.598893
430.663305	2534.382123
431.040726	2530.228212
431.418086	2534.457740
431.795385	2533.386495
432.172624	2534.150230
432.549802	2534.818183
432.926920	2533.767102
433.303977	2534.732483
433.680974	2534.190559
434.057910	2534.092257
434.434786	2534.795498
434.811601	2535.075282
435.188355	2535.581918
435.565050	2530.661751
435.941683	2536.315405
436.318257	2538.904038
436.694770	2535.869263
437.071222	2533.439427
437.447614	2536.396064
437.823946	2535.004705
438.200218	2536.723739
438.576429	2538.609130
438.952580	2535.879346
439.328670	2534.588810
439.704700	2538.992258
440.080670	2536.771630
440.456580	2536.718698
440.832429	2538.909079
441.208218	2537.628626
441.583947	2537.124511
441.959616	2536.070909
442.335224	2536.872453
442.710773	2538.904038
443.086261	2536.146527
443.461689	2538.107536
443.837057	2537.978986
444.212365	2538.054603
444.587612	2536.017977
444.962800	2534.243491
445.337927	2532.950435
445.712995	2535.123172
446.088002	2539.876981
446.462949	2538.334388
446.837837	2540.676003
447.212664	2538.616692
447.587431	2537.714326
447.962139	2537.873122
448.336786	2540.943185
448.711374	2539.599717
449.085901	2540.890252
449.460369	2539.440921
449.834776	2540.144162
450.209124	2538.135262
450.583412	2539.990407
450.957640	2537.711805
451.331808	2540.116435
451.705917	2539.506456
452.079965	2540.003009
452.453954	2540.048380
452.827883	2539.997968
453.201752	2536.834644
453.575562	2540.915458
453.949311	2539.040149
454.323001	2539.448482
454.696632	2539.677855
455.070202	2537.865560
455.443713	2540.111394
455.817164	2541.381765
456.190556	2537.434542
456.563888	2540.542413
456.937160	2538.578883
457.310373	2539.650129
457.683526	2539.042670
458.056619	2541.245654
458.429653	2540.164326
458.802628	2541.190201
459.175542	2538.389840
459.548398	2541.563247
459.921194	2539.496373
460.293930	2542.044677
460.666607	2542.291693
461.039224	2542.488298
461.411782	2540.991076
461.784280	2539.884542
462.156719	2541.477547
462.529099	2542.730274
462.901419	2540.749100
463.273680	2538.573842
463.645882	2536.348173
464.018024	2540.131559
464.390106	2537.275745
464.762130	2538.904038
465.134094	2540.272711
465.505999	2544.212373
465.877845	2540.451672
466.249631	2541.291024
466.621358	2544.265305
466.993026	2545.051725
467.364634	2543.849410
467.736184	2541.575849
468.107674	2543.166333
468.479105	2542.027033
468.850477	2543.804039
469.221790	2542.513504
469.593043	2542.389996
469.964238	2542.977290
470.335373	2544.308155
470.706449	2541.361600
471.077467	2544.832435
471.448425	2543.816642
471.819324	2543.761190
472.190164	2546.259081
472.560945	2540.829759
472.931667	2542.228679
473.302330	2543.625078
473.672934	2543.131045
474.043479	2543.292362
474.413965	2543.907383
474.784393	2545.397044
475.154761	2549.082128
475.525070	2543.073072
475.895321	2544.328319
476.265513	2541.956457
476.635645	2545.366797
477.005719	2543.589790
477.375734	2544.807229
477.745691	2543.040305
478.115588	2546.947199
478.485427	2544.996272
478.855207	2546.584236
479.224928	2541.785057
479.594591	2543.022661
479.964194	2545.636499
480.333739	2544.366128
480.703226	2545.492826
481.072653	2542.717671
481.442022	2546.092723
481.811333	2541.807742
482.180584	2540.953267
482.549777	2541.936292
482.918912	2539.413194
483.287988	2543.703216
483.657005	2545.613814
484.025964	2543.559543
484.394864	2543.889739
484.763706	2544.552651
485.132489	2547.433670
485.501213	2547.322765
485.869879	2543.844369
486.238487	2544.890408
486.607036	2544.671118
486.975527	2545.318906
487.343959	2546.730429
487.712333	2544.625747
488.080648	2544.335881
488.448905	2544.598021
488.817104	2548.429298
489.185244	2549.392158
489.553326	2545.850748
489.921350	2545.419729
490.289315	2543.110881
490.657222	2545.371838
491.025070	2545.898639
491.392861	2546.601880
491.760593	2548.472148
492.128267	2545.946530
492.495883	2544.895449
492.863440	2545.704554
493.230939	2544.025850
493.598380	2548.913249
493.965763	2543.073072
494.333088	2546.632127
494.700354	2546.191026
495.067563	2547.277394
495.434713	2549.190512
495.801805	2544.250182
496.168839	2547.113557
496.535815	2546.916952
496.902733	2547.660522
497.269593	2549.185471
497.636395	2542.896632
498.003139	2549.644216
498.369825	2547.839483
498.736453	2547.063145
499.103023	2547.622713
499.469535	2546.899308
499.835989	2547.501726
500.202385	2544.721529
500.568723	2543.415871
500.935003	2545.873433
501.301226	2540.847403
501.667390	2546.715306
502.033497	2549.684545
502.399546	2546.478372
502.765537	2546.992569
503.131470	2547.395862
503.497345	2547.408464
503.863163	2548.429298
504.228923	2547.065666
504.594625	2545.747404
504.960269	2548.653629
505.325856	2546.972405
505.691385	2548.502395
506.056856	2550.110523
506.422270	2547.330327
506.787625	2546.944678
507.152924	2547.617672
507.518164	2546.294369
507.883347	2547.022816
508.248472	2546.904349
508.613540	2546.024668
508.978550	2544.628268
509.343503	2547.670604
509.708398	2548.991387
510.073236	2549.140101
510.438016	2549.830739
510.802738	2547.884853
511.167403	2546.064997
511.532010	2549.102292
511.896561	2551.045657
512.261053	2545.054246
512.625488	2548.033568
512.989866	2545.976777
513.354186	2548.396531
513.718449	2545.886036
514.082655	2549.331665
514.446803	2546.987528
514.810894	2547.567261
515.174927	2551.764021
515.538904	2549.808054
515.902822	2548.890564
516.266684	2549.545914
516.630488	2547.050542
516.994235	2549.644216
517.357925	2549.235883
517.721558	2550.019782
518.085133	2550.526418
518.448651	2546.501057
518.812112	2541.908566
519.175516	2546.785882
519.538863	2545.023999
519.902152	2548.494833
520.265385	2546.576674
520.628560	2550.017262
520.991678	2548.068856
521.354739	2547.874771
521.717743	2550.143290
522.080690	2549.707231
522.443580	2546.168341
522.806413	2548.129349
523.169189	2547.902497
523.531908	2549.440049
523.894569	2546.833773
524.257174	2547.980635
524.619722	2550.072714
524.982213	2550.044988
525.344647	2549.137580
525.707025	2551.504402
526.069345	2546.498536
526.431608	2548.169679
526.793815	2549.659340
527.155964	2547.078269
527.518057	2547.804195
527.880093	2548.930893
528.242072	2546.778320
528.603995	2549.359391
528.965860	2545.976777
529.327669	2546.596839
529.689421	2549.840821
530.051117	2551.776624
530.412755	2547.010213
530.774337	2550.150852
531.135862	2549.034237
531.497331	2549.432488
531.858743	2546.987528
532.220098	2551.269988
532.581396	2548.517518
532.942638	2549.704710
533.303824	2548.053732
533.664953	2548.126829
534.026025	2550.992725
534.387040	2549.583722
534.747999	2551.035575
535.108902	2548.267981
535.469748	2548.855276
535.830537	2547.882333
536.191270	2549.182951
536.551947	2547.257230
536.912567	2546.211190
537.273131	2546.639688
537.633638	2543.713299
537.994089	2550.972560
538.354483	2549.523228
538.714821	2549.082127
539.075103	2549.316541
539.435328	2549.666901
539.795497	2550.347457
540.155609	2549.087169
540.515665	2547.100954
540.875665	2551.247303
541.235609	2549.674463
541.595496	2551.769063
541.955328	2550.518856
542.315102	2550.110523
542.674821	2549.245965
543.034483	2548.527601
543.394090	2548.946016
543.753640	2549.671943
544.113134	2549.419885
544.472571	2549.175389
544.831953	2551.300235
545.191278	2548.850234
545.550548	2552.134546
545.909761	2547.347971
546.268918	2547.799154
546.628019	2549.840821
546.987064	2548.280584
547.346053	2551.103630
547.704986	2551.917777
548.063863	2549.041798
548.422684	2551.469114
548.781449	2552.142108
549.140158	2550.448280
549.498811	2551.292673
549.857408	2550.629762
550.215949	2547.912580
550.574434	2548.638506
550.932864	2550.037426
551.291237	2551.080945
551.649555	2549.344268
552.007817	2549.472817
552.366022	2553.215874
552.724173	2548.399051
553.082267	2548.076417
553.440305	2551.408620
553.798288	2550.249155
554.156215	2549.676984
554.514086	2549.251006
554.871902	2545.510470
555.229661	2551.844680
555.587365	2547.027857
555.945014	2549.830739
556.302606	2549.051881
556.660143	2551.411141
557.017625	2549.119936
557.375050	2550.208825
557.732421	2549.845862
558.089735	2549.714792
558.446994	2549.873589
558.804197	2553.180586
559.161345	2549.490461
559.518437	2549.825698
559.875474	2550.934752
560.232455	2549.238403
560.589381	2549.243444
560.946251	2552.663867
561.303065	2548.169679
561.659825	2551.217056
562.016528	2550.765873
562.373177	2551.106151
562.729770	2550.647406
563.086307	2551.378373
563.442789	2551.398538
563.799216	2551.983312
564.155587	2550.329813
564.511904	2553.286450
564.868164	2550.778476
565.224370	2551.380894
565.580520	2553.936759
565.936615	2552.240410
566.292654	2551.975750
566.648638	2549.606408
567.004567	2551.874927
567.360441	2551.572458
567.716260	2551.597663
568.072023	2549.961809
568.427732	2550.982642
568.783385	2551.706048
569.138982	2549.256047
569.494525	2549.873589
569.850013	2551.078424
570.205445	2549.228321
570.560823	2552.361398
570.916145	2550.518856
571.271412	2552.058929
571.626625	2552.316028
571.981782	2550.143290
572.336884	2549.435008
572.691931	2546.347302
573.046923	2548.905687
573.401860	2544.971067
573.756743	2550.228990
574.111570	2552.099258
574.466342	2550.254196
574.821059	2549.606408
575.175722	2551.690925
575.530330	2549.951727
575.884882	2552.928528
576.239380	2550.203784
576.593823	2550.493651
576.948211	2552.724361
577.302544	2550.586912
577.656823	2552.111861
578.011047	2552.610935
578.365216	2553.024310
578.719330	2553.142777
579.073389	2552.106820
579.427394	2552.633620
579.781344	2552.731923
580.135239	2551.396017
580.489080	2549.931562
580.842866	2548.930893
581.196597	2555.368446
581.550273	2551.847200
581.903895	2553.387273
582.257463	2551.726213
582.610975	2551.325441
582.964434	2549.951727
583.317837	2551.252344
583.671186	2552.431974
584.024481	2551.973229
584.377721	2552.106820
584.730906	2552.328631
585.084037	2550.632282
585.437113	2554.302242
585.790135	2550.997766
586.143103	2551.108671
586.496016	2552.237890
586.848874	2552.144628
587.201679	2553.478014
587.554428	2550.846531
587.907124	2551.080945
588.259765	2551.539690
588.612352	2551.186809
588.964884	2551.791748
589.317362	2551.585060
589.669786	2553.374670
590.022155	2548.341078
590.374470	2547.559699
590.726731	2547.660522
591.078937	2548.711603
591.431090	2554.733261
591.783188	2550.380225
592.135232	2553.588919
592.487222	2551.113713
592.839157	2553.052036
593.191038	2552.686552
593.542866	2551.398538
593.894639	2551.194371
594.246358	2553.815771
594.598022	2551.214536
594.949633	2552.205122
595.301190	2550.652447
595.652692	2550.062632
596.004141	2549.379556
596.355535	2552.116902
596.706876	2550.632282
597.058162	2551.035575
597.409395	2552.129505
597.760573	2550.216387
598.111698	2550.085317
598.462768	2551.396017
598.813785	2551.975750
599.164748	2552.200081
599.515657	2550.261758
599.866511	2551.774104
600.217312	2550.672612
600.568060	2551.262427
600.918753	2554.740823
601.269392	2552.005997
601.619978	2549.722354
601.970510	2549.508105
602.320988	2550.402910
602.671412	2548.325954
603.021783	2549.954247
603.372100	2550.034906
603.722363	2550.367622
604.072572	2550.796120
604.422728	2550.909546
604.772830	2551.174206
605.122878	2551.617828
605.472872	2551.068342
605.822813	2550.740667
606.172701	2549.354350
606.522534	2551.514484
606.872314	2553.876265
607.222041	2552.835267
607.571714	2550.314690
607.921333	2548.746891
608.270899	2551.955585
608.620411	2548.351160
608.969870	2554.138405
609.319276	2558.836760
609.668627	2557.957079
610.017926	2563.542677
610.367171	2564.944118
610.716362	2564.543346
611.065500	2562.247101
611.414585	2562.484035
611.763616	2558.582182
612.112594	2556.452294
612.461518	2556.515309
612.810389	2556.848025
613.159207	2556.462377
613.507971	2559.217367
613.856682	2554.211502
614.205340	2551.547252
614.553945	2556.298539
614.902496	2553.210832
615.250994	2552.714279
615.599439	2555.020607
615.947830	2548.890564
616.296169	2551.174206
616.644454	2551.819474
616.992686	2553.646892
617.340864	2552.011038
617.688990	2552.253013
618.037063	2553.987170
618.385082	2553.225956
618.733048	2554.730740
619.080961	2552.109340
619.428821	2550.745708
619.776628	2554.546738
620.124382	2552.648744
620.472083	2554.846687
620.819731	2553.490617
621.167326	2550.687735
621.514868	2552.421892
621.862357	2552.527756
622.209793	2551.585060
622.557176	2553.956923
622.904506	2550.473486
623.251783	2552.021120
623.599007	2552.321069
623.946179	2554.743343
624.293297	2552.250493
624.640363	2554.582026
624.987376	2550.087838
625.334336	2545.228165
625.681243	2550.912066
626.028097	2546.594318
626.374899	2551.098589
626.721647	2551.330482
627.068343	2554.050185
627.414987	2551.476676
627.761577	2553.727551
628.108115	2551.174206
628.454600	2550.811243
628.801032	2551.398538
629.147412	2551.842159
629.493739	2553.520863
629.840014	2555.335679
630.186236	2551.264947
630.532405	2554.208981
630.878521	2547.383259
631.224585	2551.658157
631.570597	2552.084135
631.916556	2549.571119
632.262462	2551.769062
632.608316	2549.893753
632.954117	2553.021789
633.299866	2549.971891
633.645562	2552.522715
633.991206	2553.246121
634.336797	2551.413661
634.682336	2551.645554
635.027823	2549.351829
635.373257	2548.169679
635.718639	2550.791079
636.063968	2550.541542
636.409245	2550.395348
636.754470	2553.553631
637.099642	2549.067004
637.444762	2551.524567
637.789829	2550.423074
638.134845	2551.733774
638.479808	2549.626572
638.824719	2550.793599
639.169577	2550.402910
639.514383	2548.872920
639.859137	2551.736295
640.203839	2550.256716
640.548489	2552.535318
640.893086	2550.604556
641.237632	2549.959288
641.582125	2548.643547
641.926566	2550.642365
642.270955	2550.128167
642.615292	2548.154555
642.959576	2549.036757
643.303809	2544.398896
643.647990	2548.383928
643.992118	2551.310317
644.336195	2549.613969
