Dividing Wavelength (nm)	Counts (n)	Blue Motor Position (mm): 41.900000	Red Motor Position (mm): 0.000000	
326.493990	2256.428023
326.888308	2256.428023
327.282561	2256.428023
327.676750	2215.559389
328.070874	2211.060159
328.464933	2214.145345
328.858929	2215.594677
329.252859	2221.807899
329.646726	2229.485577
330.040528	2240.906311
330.434265	2254.487179
330.827938	2274.772782
331.221547	2292.999074
331.615091	2310.572536
332.008571	2325.262458
332.401986	2346.190809
332.795338	2363.555063
333.188625	2383.853269
333.581847	2405.346228
333.975006	2422.753333
334.368100	2442.779316
334.761129	2459.024435
335.154095	2475.811477
335.546996	2506.532268
335.939833	2542.788247
336.332606	2560.341545
336.725315	2571.583318
337.117960	2584.697879
337.510540	2595.155753
337.903056	2605.606065
338.295508	2618.617283
338.687896	2621.974692
339.080220	2629.997688
339.472480	2638.396250
339.864676	2644.007054
340.256807	2647.445121
340.648875	2652.254382
341.040879	2654.255720
341.432818	2659.032213
341.824694	2657.421565
342.216506	2660.834426
342.608253	2659.082625
342.999937	2660.277378
343.391557	2664.794252
343.783113	2662.026659
344.174605	2662.936587
344.566033	2658.477687
344.957397	2659.203613
345.348697	2657.661020
345.739934	2656.362922
346.131106	2654.172541
346.522215	2654.464928
346.913260	2651.498209
347.304241	2651.631800
347.695159	2647.924031
348.086012	2646.764566
348.476802	2644.939668
348.867528	2639.462454
349.258191	2639.628812
349.648789	2636.291568
350.039324	2630.360651
350.429796	2637.002371
350.820203	2636.715025
351.210548	2636.341980
351.600828	2633.390384
351.991045	2631.444499
352.381198	2631.245373
352.771288	2630.375774
353.161314	2629.395270
353.551276	2633.251753
353.941175	2631.061371
354.331010	2629.342338
354.720782	2632.525827
355.110490	2630.479118
355.500135	2628.049282
355.889717	2629.385188
356.279235	2630.214457
356.668689	2630.388377
357.058080	2633.818882
357.447408	2630.602626
357.836672	2629.120527
358.225873	2630.244704
358.615010	2631.459622
359.004084	2632.878707
359.393095	2632.440127
359.782043	2635.270735
360.170927	2634.126393
360.559748	2632.205713
360.948505	2636.336939
361.337199	2635.469860
361.725830	2635.779891
362.114398	2636.871301
362.502903	2638.791981
362.891344	2635.754686
363.279722	2639.245685
363.668037	2644.022178
364.056289	2637.710653
364.444478	2640.097640
364.832603	2643.240799
365.220665	2644.231386
365.608665	2643.548309
365.996601	2642.618217
366.384474	2646.073927
366.772284	2644.291880
367.160031	2643.208032
367.547715	2649.194402
367.935336	2646.457055
368.322893	2645.451345
368.710388	2645.005203
369.097820	2645.519401
369.485189	2643.306334
369.872495	2651.377221
370.259738	2648.828918
370.646918	2651.329330
371.034035	2651.460400
371.421090	2652.483755
371.808081	2651.440236
372.195010	2650.747077
372.581875	2651.974598
372.968678	2652.045174
373.355418	2652.957623
373.742096	2652.108189
374.128710	2652.864362
374.515262	2654.487613
374.901751	2655.127840
375.288177	2656.831750
375.674540	2654.767397
376.060841	2658.835608
376.447079	2655.168169
376.833254	2658.598674
377.219367	2659.727893
377.605417	2659.616987
377.991404	2657.350989
378.377329	2660.579848
378.763191	2660.199241
379.148991	2659.851401
379.534727	2660.310146
379.920402	2660.257214
380.306013	2664.154026
380.691563	2664.605209
381.077049	2664.471618
381.462474	2667.798780
381.847835	2669.782474
382.233134	2673.200376
382.618371	2677.792867
383.003545	2684.300997
383.388657	2690.322655
383.773706	2701.261959
384.158693	2713.912735
384.543618	2726.550907
384.928480	2747.892632
385.313280	2769.705705
385.698017	2792.965589
386.082692	2832.142916
386.467305	2860.247349
386.851856	2897.413255
387.236344	2951.144394
387.620770	2987.962461
388.005133	3040.287117
388.389435	3088.984663
388.773674	3129.576034
389.157851	3198.450798
389.541965	3270.236829
389.926018	3296.864204
390.310008	3388.330899
390.693936	3457.956796
391.077802	3520.315869
391.461606	3564.322621
391.845348	3652.898215
392.229027	3731.237746
392.612645	3782.528965
392.996200	3888.683062
393.379694	3977.268738
393.763125	4092.990946
394.146494	4160.829753
394.529801	4252.296448
394.913047	4357.833004
395.296230	4366.944890
395.679351	4493.891226
396.062410	4582.970935
396.445408	4606.301395
396.828343	4697.810940
397.211217	4782.398981
397.594028	4714.439186
397.976778	4854.411864
398.359466	4922.250671
398.742092	4977.549608
399.124656	4917.325464
399.507158	5048.657604
399.889598	5136.814782
400.271977	5272.089104
400.654294	5277.145381
401.036549	5334.740564
401.418742	5270.954844
401.800874	5483.099201
402.182944	5550.096136
402.564952	5665.369680
402.946898	5733.745370
403.328783	5588.749183
403.710606	5602.196461
404.092367	5928.969094
404.474067	5953.522034
404.855705	5863.424012
405.237282	5803.935876
405.618797	6052.237908
406.000250	6040.093769
406.381642	6237.754891
406.762972	6265.766062
407.144240	6322.809238
407.525447	6305.797865
407.906593	6336.387586
408.287677	6489.941132
408.668700	6404.062556
409.049661	6521.390371
409.430560	6546.891047
409.811399	6404.952320
410.192176	6678.805441
410.572891	6689.543098
410.953545	6883.488890
411.334138	6616.499300
411.714669	6786.171935
412.095139	6584.762716
412.475547	6827.315312
412.855894	6897.014305
413.236180	7072.582570
413.616405	6756.550115
413.996568	6972.555996
414.376670	7004.685790
414.756711	6906.247179
415.136691	7004.950450
415.516609	7202.919082
415.896466	7193.411466
416.276262	7395.065182
416.655997	7376.329734
417.035670	7564.238743
417.415283	7903.261381
417.794834	7953.055378
418.174324	7811.623286
418.553753	7729.994402
418.933121	8040.617699
419.312428	8150.179617
419.691674	7925.185359
420.070859	8397.483501
420.449983	8084.027075
420.829045	8439.677958
421.208047	8220.662509
421.586988	8518.962706
421.965867	8534.383595
422.344686	8647.081110
422.723444	8688.002676
423.102141	8053.288640
423.480777	8804.365110
423.859352	8326.458684
424.237866	8947.760731
424.616319	8817.154517
424.994712	9230.534174
425.373044	8789.907081
425.751314	9250.333306
426.129524	9123.185323
426.507673	9242.159075
426.885762	9388.168534
427.263789	9304.490421
427.641756	9237.674968
428.019662	9320.702772
428.397508	9573.955218
428.775292	9260.319831
429.153016	9640.508531
429.530679	9471.055186
429.908282	9508.175722
430.285824	9222.354902
430.663305	9908.909644
431.040726	9351.330302
431.418086	9342.500721
431.795385	9669.588427
432.172624	9763.018652
432.549802	9668.630608
432.926920	9750.181353
433.303977	9624.817940
433.680974	9830.315535
434.057910	9922.324154
434.434786	9990.833435
434.811601	9824.130039
435.188355	10381.963959
435.565050	10125.394434
435.941683	10051.912055
436.318257	10533.601867
436.694770	10682.860350
437.071222	10743.893600
437.447614	10578.725235
437.823946	10485.509259
438.200218	10602.159039
438.576429	10435.869017
438.952580	10677.224340
439.328670	10713.697088
439.704700	10505.749492
440.080670	10498.724644
440.456580	11033.172651
440.832429	10808.503548
441.208218	10413.017467
441.583947	10730.113606
441.959616	10886.467513
442.335224	10696.776455
442.710773	10814.447068
443.086261	11037.656758
443.461689	10309.202465
443.837057	10979.333128
444.212365	11235.388456
444.587612	10875.840760
444.962800	11098.755542
445.337927	10849.473005
445.712995	10481.073044
446.088002	11545.880683
446.462949	11222.150386
446.837837	11187.963801
447.212664	11144.115845
447.587431	11701.367511
447.962139	12435.598966
448.336786	14718.331730
448.711374	15229.534977
449.085901	13064.883680
449.460369	12695.659490
449.834776	12144.144657
450.209124	13052.119479
450.583412	13459.686685
450.957640	14408.172219
451.331808	13490.616684
451.705917	12524.600537
452.079965	11802.525825
452.453954	12709.310935
452.827883	12353.128210
453.201752	12653.429744
453.575562	12180.123372
453.949311	12590.266607
454.323001	12567.183164
454.696632	12795.920478
455.070202	13081.224580
455.443713	13287.851394
455.817164	13769.064817
456.190556	13751.214091
456.563888	14116.705307
456.937160	14273.729687
457.310373	13623.251963
457.683526	13714.217063
458.056619	13259.431889
458.429653	13433.913786
458.802628	12826.036332
459.175542	13226.475346
459.548398	14172.984748
459.921194	14521.802348
460.293930	14594.447895
460.666607	15445.593790
461.039224	16512.554001
461.411782	17221.098257
461.784280	17045.414045
462.156719	17120.885159
462.529099	16802.243907
462.901419	15744.884573
463.273680	15516.505180
463.645882	15403.618622
464.018024	15129.153001
464.390106	15355.566344
464.762130	16077.396560
465.134094	16857.361363
465.505999	18895.830058
465.877845	22157.819560
466.249631	24969.044208
466.621358	24606.917962
466.993026	23192.644936
467.364634	22609.280093
467.736184	21125.648351
468.107674	20336.919503
468.479105	20467.981941
468.850477	19936.578790
469.221790	19528.174753
469.593043	18836.495678
469.964238	18266.943595
470.335373	17903.093275
470.706449	18398.855468
471.077467	17959.486143
471.448425	19825.751544
471.819324	23929.810342
472.190164	25822.589692
472.560945	22204.573741
472.931667	19881.068125
473.302330	19266.070041
473.672934	18858.540643
474.043479	19121.807341
474.413965	18941.195402
474.784393	18537.194812
475.154761	19271.411143
475.525070	19223.028669
475.895321	18912.962420
476.265513	19507.816053
476.635645	20106.906776
477.005719	19880.795902
477.375734	20050.098013
477.745691	20542.366686
478.115588	21081.898697
478.485427	21625.869444
478.855207	22708.943704
479.224928	24494.137269
479.594591	26710.026853
479.964194	26672.303899
480.333739	26896.040389
480.703226	26468.101880
481.072653	26181.111512
481.442022	26774.929188
481.811333	27685.913579
482.180584	27595.223222
482.549777	26639.057489
482.918912	26313.192264
483.287988	26425.110920
483.657005	26064.466774
484.025964	25842.345974
484.394864	25743.146148
484.763706	25395.112449
485.132489	24851.222360
485.501213	25027.498907
485.869879	24945.922956
486.238487	24779.431288
486.607036	24913.838532
486.975527	24638.805781
487.343959	24944.534118
487.712333	24866.476892
488.080648	24520.343707
488.448905	25030.599217
488.817104	24789.909327
489.185244	25483.428423
489.553326	25427.890031
489.921350	26474.078168
490.289315	28791.176478
490.657222	30533.893280
491.025070	31036.050177
491.392861	30790.868618
491.760593	29929.370714
492.128267	29021.239616
492.495883	27960.681670
492.863440	27099.448426
493.230939	26230.159419
493.598380	26074.208804
493.965763	25681.097106
494.333088	25206.449787
494.700354	25158.878938
495.067563	25011.725137
495.434713	24768.071048
495.801805	24941.254847
496.168839	24721.773091
496.535815	24582.115486
496.902733	24790.698267
497.269593	24484.609488
497.636395	24652.298429
498.003139	24602.403609
498.369825	24347.694270
498.736453	24563.637136
499.103023	24417.932667
499.469535	24419.336628
499.835989	24647.731144
500.202385	24668.510780
500.568723	24193.346742
500.935003	24387.332863
501.301226	24061.044180
501.667390	24906.851493
502.033497	25111.945796
502.399546	24843.025444
502.765537	24392.517689
503.131470	24781.241063
503.497345	24918.937659
503.863163	24148.298991
504.228923	24723.270314
504.594625	24965.308713
504.960269	24507.793754
505.325856	24978.314890
505.691385	24376.116295
506.056856	24993.428269
506.422270	24973.238448
506.787625	24499.349822
507.152924	24937.005155
507.518164	24973.616534
507.883347	24779.980774
508.248472	24460.311126
508.613540	25234.564302
508.978550	25042.115733
509.343503	25042.902153
509.708398	25257.108342
510.073236	25431.267604
510.438016	25642.733926
510.802738	25299.408663
511.167403	25548.890326
511.532010	25293.417252
511.896561	26052.899847
512.261053	26010.385276
512.625488	25845.549627
512.989866	25731.370013
513.354186	25571.023512
513.718449	25694.425917
514.082655	26070.538844
514.446803	25789.192048
514.810894	26279.572809
515.174927	25764.593738
515.538904	25779.699555
515.902822	26284.969364
516.266684	26037.355449
516.630488	25961.733100
516.994235	25900.122638
517.357925	26224.107513
517.721558	26397.533288
518.085133	26499.853588
518.448651	26393.449953
518.812112	26155.628480
519.175516	26371.306685
519.538863	26512.920258
519.902152	26318.190568
520.265385	26573.507366
520.628560	26373.895318
520.991678	26366.726797
521.354739	26421.443481
521.717743	26521.490220
522.080690	26282.897450
522.443580	26619.613759
522.806413	26596.280778
523.169189	26707.390330
523.531908	26762.835460
523.894569	26369.300306
524.257174	26471.033311
524.619722	26604.883508
524.982213	26311.450545
525.344647	26356.531063
525.707025	26519.889654
526.069345	26469.601623
526.431608	26451.529087
526.793815	26619.086958
527.155964	26111.430163
527.518057	26284.182944
527.880093	26198.180859
528.242072	26419.235455
528.603995	26149.584136
528.965860	25932.930467
529.327669	25988.652861
529.689421	25957.380063
530.051117	25813.187940
530.412755	25979.034340
530.774337	25759.983602
531.135862	25657.388560
531.497331	25844.944689
531.858743	25428.510093
532.220098	25888.883386
532.581396	25575.888226
532.942638	25483.725851
533.303824	25596.572080
533.664953	25589.965648
534.026025	25255.303608
534.387040	25498.173798
534.747999	25549.528032
535.108902	25709.504008
535.469748	25215.599481
535.830537	25383.757250
536.191270	25523.475349
536.551947	25346.825757
536.912567	24986.907537
537.273131	25404.000003
537.633638	25069.874847
537.994089	25301.707430
538.354483	24814.641227
538.714821	25304.969056
539.075103	25354.052251
539.435328	25129.078157
539.795497	24728.949174
540.155609	25068.554064
540.515665	25386.766818
540.875665	24606.522232
541.235609	24936.213693
541.595496	24869.819177
541.955328	25234.718057
542.315102	25155.524050
542.674821	24667.966336
543.034483	24558.991713
543.394090	24725.122938
543.753640	24538.680904
544.113134	25159.395657
544.472571	24747.800568
544.831953	25054.257352
545.191278	24705.177613
545.550548	24581.255969
545.909761	24786.370437
546.268918	25019.662434
546.628019	24995.169988
546.987064	24686.053996
547.346053	24426.447175
547.704986	24531.194791
548.063863	24691.997516
548.422684	24709.487799
548.781449	24218.930598
549.140158	24630.891170
549.498811	24204.165058
549.857408	23975.705007
550.215949	24368.292425
550.574434	24063.116094
550.932864	24268.769965
551.291237	24448.696308
551.649555	24293.007833
552.007817	24346.930535
552.366022	24192.212482
552.724173	24220.291709
553.082267	24201.762948
553.440305	24667.883157
553.798288	23915.243928
554.156215	24415.928808
554.514086	24540.629310
554.871902	23914.898609
555.229661	24207.799730
555.587365	24048.469022
555.945014	23939.325520
556.302606	24158.046062
556.660143	24141.294308
557.017625	24376.028075
557.375050	23903.697166
557.732421	24285.854436
558.089735	24109.892961
558.446994	24162.545292
558.804197	24196.835221
559.161345	24103.387352
559.518437	23895.069231
559.875474	24071.612959
560.232455	24247.284568
560.589381	24068.260592
560.946251	24054.619229
561.303065	24371.980029
561.659825	24462.493946
562.016528	24062.982504
562.373177	23797.659015
562.729770	24172.098279
563.086307	24016.162787
563.442789	24176.206819
563.799216	24029.514283
564.155587	24013.589278
564.511904	24012.434854
564.868164	23953.589465
565.224370	23903.989553
565.580520	23853.711605
565.936615	23963.278563
566.292654	23674.649820
566.648638	23921.794908
567.004567	23763.084261
567.360441	23704.480848
567.716260	23420.857971
568.072023	23740.242793
568.427732	23520.120811
568.783385	23289.329226
569.138982	23543.305077
569.494525	23571.159973
569.850013	23326.003620
570.205445	23410.616867
570.560823	23241.629828
570.916145	23002.424558
571.271412	23180.735210
571.626625	22936.634979
571.981782	23038.907388
572.336884	22854.010468
572.691931	22981.990240
573.046923	22726.313000
573.401860	22601.068053
573.756743	22632.068628
574.111570	22525.203729
574.466342	22440.688784
574.821059	22529.919728
575.175722	22231.238924
575.530330	22204.445192
575.884882	22212.795863
576.239380	22136.508082
576.593823	22029.595291
576.948211	21997.654540
577.302544	21853.434691
577.656823	21721.399310
578.011047	21828.322183
578.365216	21681.639729
578.719330	21564.959703
579.073389	21450.260850
579.427394	21613.619440
579.781344	21357.599401
580.135239	21250.411867
580.489080	21199.599557
580.842866	20988.639872
581.196597	21194.349196
581.550273	21151.431332
581.903895	21029.720234
582.257463	21345.732525
582.610975	20880.176926
582.964434	21211.542051
583.317837	20882.359746
583.671186	20964.954010
584.024481	20964.926284
584.377721	20713.821370
584.730906	20801.968465
585.084037	20792.186106
585.437113	20724.551466
585.790135	20922.537742
586.143103	20372.439473
586.496016	20399.278576
586.848874	20641.110287
587.201679	20546.119825
587.554428	20251.204764
587.907124	20586.749005
588.259765	20344.418219
588.612352	20418.918911
588.964884	19987.812037
589.317362	20155.667337
589.669786	20221.429188
590.022155	20220.206709
590.374470	20462.088832
590.726731	20215.200843
591.078937	20006.963380
591.431090	20083.891388
591.783188	19859.416369
592.135232	19821.411110
592.487222	19916.031047
592.839157	19926.199055
593.191038	19805.849068
593.542866	19701.625733
593.894639	19412.228214
594.246358	19624.987592
594.598022	19518.399955
594.949633	19274.561864
595.301190	19247.856352
595.652692	19409.629499
596.004141	19639.604417
596.355535	18977.388366
596.706876	18998.261263
597.058162	18887.786897
597.409395	19122.989492
597.760573	19172.412964
598.111698	18955.655952
598.462768	18889.185817
598.813785	18879.148880
599.164748	18671.778496
599.515657	18725.345797
599.866511	18522.754427
600.217312	18873.706955
600.568060	18390.106546
600.918753	18691.585190
601.269392	18596.861909
601.619978	18392.327174
601.970510	18581.819106
602.320988	18523.775260
602.671412	18732.627744
603.021783	18663.427825
603.372100	18358.271659
603.722363	18522.245270
604.072572	18465.610427
604.422728	18616.260269
604.772830	18363.718626
605.122878	18320.639446
605.472872	18310.791552
605.822813	18284.033107
606.172701	18271.299152
606.522534	18453.168860
606.872314	18488.527513
607.222041	18319.837902
607.571714	18531.079892
607.921333	18353.404425
608.270899	18430.259336
608.620411	18597.393751
608.969870	18378.942910
609.319276	18388.488335
609.668627	18409.063805
610.017926	18540.683290
610.367171	18649.902409
610.716362	18716.107882
611.065500	18527.956898
611.414585	18680.116565
611.763616	18654.005908
612.112594	18594.011136
612.461518	18555.123676
612.810389	18737.321058
613.159207	18597.693699
613.507971	18521.254683
613.856682	18775.936296
614.205340	18703.099185
614.553945	18858.316312
614.902496	18601.068752
615.250994	18804.028126
615.599439	18760.417104
615.947830	18745.233149
616.296169	18817.576227
616.644454	18779.946534
616.992686	18749.059385
617.340864	18969.027612
617.688990	18718.923367
618.037063	18893.891735
618.385082	18750.554087
618.733048	19030.317961
619.080961	18911.034178
619.428821	18943.683211
619.776628	18815.249735
620.124382	18747.357995
620.472083	18802.364545
620.819731	18809.278488
621.167326	18507.973764
621.514868	18532.199028
621.862357	18315.570565
622.209793	18314.007808
622.557176	18154.334301
622.904506	17972.666240
623.251783	17916.321263
623.599007	17657.052200
623.946179	17611.878421
624.293297	17538.834622
624.640363	17267.968385
624.987376	17295.235986
625.334336	17102.477386
625.681243	16938.680215
626.028097	16965.045450
626.374899	16877.301647
626.721647	16751.655928
627.068343	16575.765029
627.414987	16516.239085
627.761577	16486.060217
628.108115	16511.170205
628.454600	16236.818009
628.801032	16339.060171
629.147412	16280.557581
629.493739	16289.069569
629.840014	16101.452946
630.186236	16200.246959
630.532405	15959.355422
630.878521	16163.633058
631.224585	16066.326186
631.570597	15885.338681
631.916556	15915.250367
632.262462	15892.683642
632.608316	15811.687423
632.954117	15758.122643
633.299866	15739.404839
633.645562	15651.562733
633.991206	15421.723926
634.336797	15288.682835
634.682336	15253.364511
635.027823	15135.091480
635.373257	15002.128527
635.718639	14922.453091
636.063968	14858.261558
