Dividing Wavelength (nm)	Counts (n)	Blue Motor Position (mm): 23.100000	Red Motor Position (mm): 0.000000	
326.493990	2193.615246
326.888308	2193.615246
327.282561	2193.615246
327.676750	2156.396408
328.070874	2149.661426
328.464933	2151.118319
328.858929	2151.680408
329.252859	2161.608961
329.646726	2166.662717
330.040528	2182.096210
330.434265	2192.859073
330.827938	2211.581919
331.221547	2224.497355
331.615091	2242.098543
332.008571	2266.606113
332.401986	2281.401899
332.795338	2299.174487
333.188625	2317.546973
333.581847	2337.890549
333.975006	2357.271265
334.368100	2374.108719
334.761129	2391.790566
335.154095	2411.708165
335.546996	2436.082143
335.939833	2470.644294
336.332606	2483.438743
336.725315	2499.194869
337.117960	2512.959740
337.510540	2520.433250
337.903056	2535.004705
338.295508	2539.337577
338.687896	2549.596325
339.080220	2559.212326
339.472480	2566.615261
339.864676	2568.730025
340.256807	2574.918041
340.648875	2580.365008
341.040879	2582.109247
341.432818	2584.624783
341.824694	2590.356575
342.216506	2588.937490
342.608253	2587.052098
342.999937	2590.139805
343.391557	2590.956472
343.783113	2589.733992
344.174605	2588.508992
344.566033	2585.038157
344.957397	2586.323652
345.348697	2584.944896
345.739934	2584.130750
346.131106	2581.224524
346.522215	2580.236458
346.913260	2579.455079
347.304241	2576.296797
347.695159	2573.448545
348.086012	2572.299162
348.476802	2569.776064
348.867528	2568.576269
349.258191	2561.463201
349.648789	2563.512430
350.039324	2559.164435
350.429796	2563.144426
350.820203	2560.021431
351.210548	2558.877089
351.600828	2559.615618
351.991045	2558.882131
352.381198	2557.710062
352.771288	2559.124106
353.161314	2553.213353
353.551276	2557.163097
353.941175	2556.802655
354.331010	2554.997922
354.720782	2554.980278
355.110490	2552.835267
355.500135	2553.689742
355.889717	2555.675957
356.279235	2555.212171
356.668689	2551.663198
357.058080	2554.919784
357.447408	2554.440874
357.836672	2555.131512
358.225873	2556.543035
358.615010	2554.856769
359.004084	2556.548076
359.393095	2554.365257
359.782043	2557.977243
360.170927	2557.311811
360.559748	2560.215516
360.948505	2557.722665
361.337199	2559.885320
361.725830	2559.965979
362.114398	2559.154353
362.502903	2562.053016
362.891344	2561.717780
363.279722	2561.959755
363.668037	2562.594940
364.056289	2562.128634
364.444478	2564.939077
364.832603	2564.850857
365.220665	2565.130641
365.608665	2566.002760
365.996601	2565.917061
366.384474	2563.996381
366.772284	2568.881259
367.160031	2565.148285
367.547715	2567.469736
367.935336	2566.799263
368.322893	2565.115517
368.710388	2562.395815
369.097820	2563.363716
369.485189	2567.023594
369.872495	2566.751372
370.259738	2568.626681
370.646918	2571.991651
371.034035	2566.970662
371.421090	2570.451579
371.808081	2569.902093
372.195010	2573.088102
372.581875	2570.794377
372.968678	2572.742783
373.355418	2569.382854
373.742096	2573.935016
374.128710	2571.563153
374.515262	2571.555591
374.901751	2571.613565
375.288177	2569.481157
375.674540	2573.859399
376.060841	2572.415108
376.447079	2571.542988
376.833254	2574.176991
377.219367	2572.483164
377.605417	2573.390571
377.991404	2575.603638
378.377329	2572.591548
378.763191	2575.964080
379.148991	2575.553226
379.534727	2574.983576
379.920402	2571.336301
380.306013	2576.823597
380.691563	2577.312589
381.077049	2574.703792
381.462474	2577.499112
381.847835	2574.764286
382.233134	2577.909966
382.618371	2575.369224
383.003545	2576.553895
383.388657	2576.783268
383.773706	2575.006261
384.158693	2580.168403
384.543618	2578.842579
384.928480	2578.761921
385.313280	2579.729822
385.698017	2578.759400
386.082692	2579.238310
386.467305	2579.291242
386.851856	2580.428022
387.236344	2577.660429
387.620770	2578.761921
388.005133	2579.177816
388.389435	2576.342167
388.773674	2575.107084
389.157851	2580.612024
389.541965	2580.924576
389.926018	2581.166551
390.310008	2582.076479
390.693936	2580.586818
391.077802	2583.331727
391.461606	2581.408527
391.845348	2582.999011
392.229027	2583.722416
392.612645	2584.695359
392.996200	2583.699731
393.379694	2583.379618
393.763125	2585.527149
394.146494	2585.418764
394.529801	2583.795513
394.913047	2581.927765
395.296230	2587.185689
395.679351	2586.006059
396.062410	2584.932293
396.445408	2586.253075
396.828343	2586.522777
397.211217	2587.140318
397.594028	2587.218456
397.976778	2589.010587
398.359466	2587.372212
398.742092	2589.890268
399.124656	2589.161821
399.507158	2587.949424
399.889598	2587.425144
400.271977	2586.356419
400.654294	2590.182655
401.036549	2588.410689
401.418742	2589.247521
401.800874	2588.899681
402.182944	2589.892788
402.564952	2590.170052
402.946898	2590.928746
403.328783	2590.260793
403.710606	2590.434712
404.092367	2591.654672
404.474067	2590.729620
404.855705	2590.971595
405.237282	2591.528643
405.618797	2590.734661
406.000250	2591.674836
406.381642	2591.604260
406.762972	2591.334558
407.144240	2586.999166
407.525447	2588.209043
407.906593	2586.270719
408.287677	2593.996288
408.668700	2590.656523
409.049661	2592.786411
409.430560	2591.669795
409.811399	2594.623911
410.192176	2594.770105
410.572891	2593.224991
410.953545	2596.138778
411.334138	2594.926381
411.714669	2593.628283
412.095139	2593.167018
412.475547	2595.498552
412.855894	2595.377564
413.236180	2596.292533
413.616405	2596.204313
413.996568	2598.992071
414.376670	2594.901175
414.756711	2595.932091
415.136691	2598.195569
415.516609	2599.171032
415.896466	2600.149016
416.276262	2597.295723
416.655997	2599.833944
417.035670	2597.497369
417.415283	2601.449634
417.794834	2599.150867
418.174324	2597.459560
418.553753	2598.621546
418.933121	2600.300251
419.312428	2600.920312
419.691674	2599.798656
420.070859	2601.033738
420.449983	2600.325456
420.829045	2601.111876
421.208047	2599.602051
421.586988	2601.235385
421.965867	2601.255549
422.344686	2602.656990
422.723444	2605.283431
423.102141	2601.356372
423.480777	2601.502566
423.859352	2602.162957
424.237866	2602.120107
424.616319	2605.608586
424.994712	2602.760334
425.373044	2603.992896
425.751314	2602.898965
426.129524	2602.019284
426.507673	2599.760847
426.885762	2598.881166
427.263789	2605.212855
427.641756	2604.181939
428.019662	2604.373503
428.397508	2605.180087
428.775292	2606.478185
429.153016	2605.417022
429.530679	2605.994234
429.908282	2608.587908
430.285824	2604.857454
430.663305	2608.257712
431.040726	2607.985490
431.418086	2604.895262
431.795385	2606.699995
432.172624	2606.644543
432.549802	2608.270315
432.926920	2607.458689
433.303977	2608.860130
433.680974	2605.840479
434.057910	2607.675459
434.434786	2608.681169
434.811601	2609.409616
435.188355	2611.121087
435.565050	2609.248299
435.941683	2608.585387
436.318257	2608.855089
436.694770	2612.595625
437.071222	2611.657970
437.447614	2612.285594
437.823946	2613.830707
438.200218	2612.252826
438.576429	2612.411623
438.952580	2612.396499
439.328670	2612.464555
439.704700	2610.821139
440.080670	2610.748042
440.456580	2615.093517
440.832429	2614.788527
441.208218	2613.578650
441.583947	2612.958588
441.959616	2613.016561
442.335224	2612.073865
442.710773	2615.317848
443.086261	2615.884978
443.461689	2615.151490
443.837057	2617.379680
444.212365	2615.065790
444.587612	2612.504884
444.962800	2612.658639
445.337927	2613.936572
445.712995	2610.780809
446.088002	2617.220883
446.462949	2619.242386
446.837837	2618.259361
447.212664	2618.372787
447.587431	2620.048971
447.962139	2622.138529
448.336786	2623.315638
448.711374	2626.433592
449.085901	2624.918725
449.460369	2624.744806
449.834776	2622.456122
450.209124	2623.035854
450.583412	2625.344703
450.957640	2628.805455
451.331808	2628.991978
451.705917	2628.238325
452.079965	2626.496607
452.453954	2624.981740
452.827883	2630.196813
453.201752	2628.737399
453.575562	2630.358130
453.949311	2628.003912
454.323001	2628.744961
454.696632	2632.155302
455.070202	2633.319808
455.443713	2637.635036
455.817164	2636.281486
456.190556	2637.070427
456.563888	2639.464975
456.937160	2639.132259
457.310373	2637.932464
457.683526	2642.293062
458.056619	2641.831797
458.429653	2642.676190
458.802628	2645.819349
459.175542	2649.199443
459.548398	2652.198929
459.921194	2656.451143
460.293930	2658.492810
460.666607	2666.999757
461.039224	2673.185253
461.411782	2682.632375
461.784280	2685.904084
462.156719	2690.978005
462.529099	2695.174766
462.901419	2691.565300
463.273680	2694.368181
463.645882	2699.610981
464.018024	2703.790098
464.390106	2712.624720
464.762130	2729.578120
465.134094	2750.531676
465.505999	2792.133798
465.877845	2858.631659
466.249631	2910.028743
466.621358	2918.334044
466.993026	2913.587798
467.364634	2923.770928
467.736184	2923.773449
468.107674	2935.917588
468.479105	2968.722897
468.850477	2989.500013
469.221790	3013.064886
469.593043	3027.568286
469.964238	3043.284083
470.335373	3072.293403
470.706449	3119.450877
471.077467	3142.811583
471.448425	3254.263933
471.819324	3485.327740
472.190164	3641.008653
472.560945	3542.149106
472.931667	3481.776248
473.302330	3511.859333
473.672934	3550.222514
474.043479	3639.057727
474.413965	3697.383877
474.784393	3744.594283
475.154761	3874.739231
475.525070	3948.357721
475.895321	3997.821523
476.265513	4129.201554
476.635645	4266.711628
477.005719	4338.422041
477.375734	4454.260195
477.745691	4613.749700
478.115588	4764.812916
478.485427	4948.683961
478.855207	5188.594993
479.224928	5558.905552
479.594591	6054.506428
479.964194	6180.091652
480.333739	6371.524428
480.703226	6400.894191
481.072653	6519.802407
481.442022	6804.710778
481.811333	7140.197046
482.180584	7317.459139
482.549777	7262.422342
482.918912	7402.687407
483.287988	7600.101512
483.657005	7724.852425
484.025964	7822.076118
484.394864	7982.767938
484.763706	8095.614167
485.132489	8177.235489
485.501213	8357.396245
485.869879	8554.021410
486.238487	8620.433571
486.607036	8913.886698
486.975527	8998.331066
487.343959	9266.966593
487.712333	9491.877672
488.080648	9522.026292
488.448905	9907.646835
488.817104	10007.194500
489.185244	10421.302603
489.553326	10664.560962
489.921350	11172.878148
490.289315	12239.578740
490.657222	13219.725241
491.025070	13662.406604
491.392861	13834.438500
491.760593	13747.715530
492.128267	13685.986602
492.495883	13451.399028
492.863440	13341.045650
493.230939	13148.518943
493.598380	13325.125686
493.965763	13337.859640
494.333088	13349.807175
494.700354	13533.680741
495.067563	13721.882137
495.434713	13803.712667
495.801805	14019.768959
496.168839	14205.104460
496.535815	14318.359022
496.902733	14623.489982
497.269593	14602.493577
497.636395	14970.230626
498.003139	15153.388348
498.369825	15251.020375
498.736453	15518.088103
499.103023	15637.019004
499.469535	15855.885740
499.835989	16180.410018
500.202385	16417.724856
500.568723	16285.137469
500.935003	16618.269518
501.301226	16567.565593
501.667390	17233.287767
502.033497	17671.144746
502.399546	17617.441334
502.765537	17589.294051
503.131470	18011.092435
503.497345	18307.166962
503.863163	17879.314153
504.228923	18547.370381
504.594625	18867.521459
504.960269	18639.194998
505.325856	19210.082986
505.691385	18939.115926
506.056856	19520.555049
506.422270	19710.465396
506.787625	19505.681124
507.152924	20035.685354
507.518164	20151.606687
507.883347	20141.693258
508.248472	20038.009326
508.613540	20821.334058
508.978550	20800.723300
509.343503	20921.406003
509.708398	21291.424175
510.073236	21531.110875
510.438016	21838.197803
510.802738	21721.011141
511.167403	22039.402856
511.532010	21891.548334
511.896561	22694.445346
512.261053	22803.931645
512.625488	22753.005909
512.989866	22766.498557
513.354186	22734.739288
513.718449	22924.077465
514.082655	23367.502398
514.446803	23242.121341
514.810894	23737.674325
515.174927	23353.825748
515.538904	23473.089366
515.902822	24002.965047
516.266684	23871.910170
516.630488	23843.498227
516.994235	23925.926133
517.357925	24247.032510
517.721558	24509.815257
518.085133	24660.659183
518.448651	24655.786908
518.812112	24445.094403
519.175516	24664.296376
519.538863	24910.292080
519.902152	24747.435085
520.265385	25097.094557
520.628560	24925.556694
520.991678	24997.136038
521.354739	25106.294663
521.717743	25208.405754
522.080690	25047.650920
522.443580	25413.822691
522.806413	25451.202847
523.169189	25585.877272
523.531908	25663.669837
523.894569	25301.394878
524.257174	25393.305195
524.619722	25645.625027
524.982213	25341.557751
525.344647	25454.393897
525.707025	25572.152731
526.069345	25612.338288
526.431608	25581.756129
526.793815	25789.895289
527.155964	25259.122283
527.518057	25439.227586
527.880093	25385.322528
528.242072	25633.344777
528.603995	25343.911970
528.965860	25167.126266
529.327669	25243.466979
529.689421	25231.842078
530.051117	25079.440436
530.412755	25272.541834
530.774337	25086.641724
531.135862	24957.348731
531.497331	25171.774210
531.858743	24710.470824
532.220098	25210.538162
532.581396	24894.299020
532.942638	24861.776016
533.303824	24952.184069
533.664953	24985.397711
534.026025	24650.975127
534.387040	24895.851695
534.747999	24964.852488
535.108902	25132.478416
535.469748	24622.023780
535.830537	24820.433513
536.191270	24947.503357
536.551947	24841.402193
536.912567	24514.853890
537.273131	24813.118799
537.633638	24548.811103
537.994089	24744.760753
538.354483	24304.872189
538.714821	24805.002541
539.075103	24850.383008
539.435328	24649.004035
539.795497	24190.909344
540.155609	24594.708288
540.515665	24890.072012
540.875665	24129.795436
541.235609	24402.773917
541.595496	24384.600557
541.955328	24739.281018
542.315102	24653.427648
542.674821	24233.071034
543.034483	24100.060190
543.394090	24268.863227
543.753640	24056.981010
544.113134	24684.070302
544.472571	24293.025477
544.831953	24584.341155
545.191278	24184.514641
545.550548	24125.502894
545.909761	24345.385422
546.268918	24562.591097
546.628019	24519.890003
546.987064	24231.994748
547.346053	23995.395754
547.704986	24132.694100
548.063863	24281.007366
548.422684	24271.633341
548.781449	23835.679397
549.140158	24223.397060
549.498811	23806.622187
549.857408	23544.618298
550.215949	23992.340815
550.574434	23661.948633
550.932864	23894.486978
551.291237	24025.529251
551.649555	23900.037288
552.007817	23951.482263
552.366022	23831.510363
552.724173	23877.047106
553.082267	23807.295181
553.440305	24270.398258
553.798288	23555.078692
554.156215	24078.027827
554.514086	24152.704960
554.871902	23532.126318
555.229661	23818.489063
555.587365	23676.973792
555.945014	23511.142516
556.302606	23792.398571
556.660143	23721.199835
557.017625	23981.701460
557.375050	23520.209031
557.732421	23911.755450
558.089735	23705.748698
558.446994	23781.918012
558.804197	23792.857316
559.161345	23773.070787
559.518437	23495.406554
559.875474	23707.538308
560.232455	23876.774883
560.589381	23717.240008
560.946251	23676.787269
561.303065	24013.339741
561.659825	24099.488019
562.016528	23703.588564
562.373177	23442.860087
562.729770	23798.329488
563.086307	23665.898377
563.442789	23836.543955
563.799216	23659.962418
564.155587	23690.037942
564.511904	23659.843951
564.868164	23583.851078
565.224370	23584.234205
565.580520	23482.581858
565.936615	23615.900213
566.292654	23286.664976
566.648638	23602.140384
567.004567	23414.916971
567.360441	23363.305638
567.716260	23097.515843
568.072023	23425.997427
568.427732	23190.409184
568.783385	22973.536225
569.138982	23191.813146
569.494525	23244.193255
569.850013	22987.033915
570.205445	23094.738167
570.560823	22882.351835
570.916145	22665.665398
571.271412	22825.976611
571.626625	22580.374116
571.981782	22701.578578
572.336884	22500.073577
572.691931	22640.774701
573.046923	22375.151264
573.401860	22261.881578
573.756743	22253.893870
574.111570	22165.898009
574.466342	22112.660904
574.821059	22206.658258
575.175722	21889.370556
575.530330	21880.740100
575.884882	21910.896283
576.239380	21815.104277
576.593823	21705.103780
576.948211	21690.847397
577.302544	21530.848735
577.656823	21401.706977
578.011047	21497.045278
578.365216	21374.373841
578.719330	21253.055953
579.073389	21151.075931
579.427394	21302.839868
579.781344	21077.810322
580.135239	20968.268569
580.489080	20944.514652
580.842866	20702.146057
581.196597	20883.501567
581.550273	20880.547451
581.903895	20767.965883
582.257463	21086.599573
582.610975	20607.596697
582.964434	20912.934344
583.317837	20631.897579
583.671186	20719.321269
584.024481	20682.563695
584.377721	20465.872218
584.730906	20507.996099
585.084037	20544.284845
585.437113	20437.961870
585.790135	20642.007613
586.143103	20118.435895
586.496016	20126.083325
586.848874	20371.811849
587.201679	20315.426543
587.554428	19971.140941
587.907124	20305.460182
588.259765	20080.216387
588.612352	20169.971611
588.964884	19728.111955
589.317362	19901.724253
589.669786	19954.124526
590.022155	20015.235914
590.374470	20183.789413
590.726731	19988.865638
591.078937	19741.667618
591.431090	19845.038998
591.783188	19587.972920
592.135232	19561.547191
592.487222	19664.381688
592.839157	19698.636329
593.191038	19569.857533
593.542866	19465.893818
593.894639	19174.590743
594.246358	19405.747811
594.598022	19316.562238
594.949633	19064.754082
595.301190	19016.066619
595.652692	19178.742133
596.004141	19433.103632
596.355535	18755.837216
596.706876	18773.640051
597.058162	18652.622112
597.409395	18873.364156
597.760573	18968.788157
598.111698	18751.002749
598.462768	18686.808696
598.813785	18644.783117
599.164748	18462.590776
599.515657	18494.450868
599.866511	18287.738355
600.217312	18647.018869
600.568060	18181.420420
600.918753	18489.936515
601.269392	18400.259429
601.619978	18168.320982
601.970510	18384.493221
602.320988	18328.105394
602.671412	18533.978556
603.021783	18430.796219
603.372100	18170.304676
603.722363	18305.359708
604.072572	18242.357888
604.422728	18380.803096
604.772830	18151.546543
605.122878	18089.648735
605.472872	18085.361234
605.822813	18068.622082
606.172701	18037.467752
606.522534	18246.163959
606.872314	18265.045601
607.222041	18088.408611
607.571714	18316.997212
607.921333	18136.672618
608.270899	18205.537300
608.620411	18399.281446
608.969870	18153.139547
609.319276	18165.039191
609.668627	18202.318524
610.017926	18334.041353
610.367171	18447.580741
610.716362	18484.771853
611.065500	18313.914546
611.414585	18430.471064
611.763616	18421.812883
612.112594	18380.868631
612.461518	18348.270010
612.810389	18538.911325
613.159207	18384.709990
613.507971	18291.546947
613.856682	18573.450790
614.205340	18512.291512
614.553945	18656.715528
614.902496	18382.562459
615.250994	18632.659142
615.599439	18573.349967
615.947830	18558.077792
616.296169	18603.075131
616.644454	18567.439214
616.992686	18537.414102
617.340864	18742.768025
617.688990	18506.993259
618.037063	18682.077573
618.385082	18535.080048
618.733048	18821.115117
619.080961	18684.189817
619.428821	18718.872955
619.776628	18618.264127
620.124382	18534.119708
620.472083	18572.228311
620.819731	18596.206559
621.167326	18304.112023
621.514868	18328.599428
621.862357	18088.073375
622.209793	18103.940406
622.557176	17930.612934
622.904506	17771.922452
623.251783	17670.227256
623.599007	17444.950693
623.946179	17385.460037
624.293297	17326.846541
624.640363	17078.829333
624.987376	17100.922190
625.334336	16896.674801
625.681243	16730.397382
626.028097	16747.633087
626.374899	16674.793456
626.721647	16541.210440
627.068343	16378.938219
627.414987	16307.321067
627.761577	16287.111081
628.108115	16328.914849
628.454600	16048.304061
628.801032	16138.770088
629.147412	16072.620067
629.493739	16098.501351
629.840014	15895.804116
630.186236	16009.714029
630.532405	15772.837771
630.878521	15971.744058
631.224585	15855.575709
631.570597	15691.607139
631.916556	15713.999944
632.262462	15701.613829
632.608316	15612.216527
632.954117	15557.041098
633.299866	15552.919955
633.645562	15478.918337
633.991206	15225.373505
634.336797	15096.166211
634.682336	15078.247430
635.027823	14957.589933
635.373257	14849.898284
635.718639	14736.744545
636.063968	14696.332135
636.409245	14449.625627
636.754470	14468.724039
637.099642	14312.044977
637.444762	14095.119086
637.789829	14138.236075
638.134845	13983.575995
