Dividing Wavelength (nm)	Counts (n)	Blue Motor Position (mm): 22.000000	Red Motor Position (mm): 0.000000	
326.493990	2188.732889
326.888308	2188.732889
327.282561	2188.732889
327.676750	2150.538587
328.070874	2147.085396
328.464933	2146.311579
328.858929	2150.888947
329.252859	2153.626293
329.646726	2163.590134
330.040528	2175.013389
330.434265	2188.863959
330.827938	2207.881712
331.221547	2222.657334
331.615091	2239.895559
332.008571	2257.874834
332.401986	2278.999790
332.795338	2298.393108
333.188625	2315.530511
333.581847	2331.687409
333.975006	2350.758094
334.368100	2373.352546
334.761129	2388.780997
335.154095	2408.328071
335.546996	2428.792635
335.939833	2465.414097
336.332606	2475.642598
336.725315	2492.482573
337.117960	2503.550426
337.510540	2517.781603
337.903056	2527.077491
338.295508	2536.665766
338.687896	2545.165151
339.080220	2552.865513
339.472480	2559.645865
339.864676	2565.972513
340.256807	2571.321178
340.648875	2573.317475
341.040879	2577.352918
341.432818	2581.776531
341.824694	2582.144535
342.216506	2582.268043
342.608253	2582.948599
342.999937	2585.648137
343.391557	2585.943044
343.783113	2583.707293
344.174605	2584.768456
344.566033	2580.246541
344.957397	2581.665625
345.348697	2582.779720
345.739934	2577.042887
346.131106	2577.577250
346.522215	2574.913000
346.913260	2572.127762
347.304241	2569.284552
347.695159	2569.493759
348.086012	2568.026784
348.476802	2564.155177
348.867528	2561.158212
349.258191	2554.821481
349.648789	2557.062274
350.039324	2553.319217
350.429796	2558.496482
350.820203	2555.391132
351.210548	2556.795093
351.600828	2554.206460
351.991045	2555.199568
352.381198	2550.982643
352.771288	2550.705379
353.161314	2550.365101
353.551276	2549.593805
353.941175	2549.480379
354.331010	2547.882333
354.720782	2546.755635
355.110490	2550.624721
355.500135	2549.563558
355.889717	2545.611293
356.279235	2548.857796
356.668689	2548.104144
357.058080	2548.764535
357.447408	2548.401572
357.836672	2550.211346
358.225873	2547.884853
358.615010	2549.271171
359.004084	2551.574978
359.393095	2554.546738
359.782043	2549.601366
360.170927	2553.510781
360.559748	2550.697817
360.948505	2555.602860
361.337199	2555.227294
361.725830	2553.288970
362.114398	2555.146636
362.502903	2556.177552
362.891344	2556.391801
363.279722	2556.343910
363.668037	2559.091338
364.056289	2556.442212
364.444478	2556.883313
364.832603	2558.357851
365.220665	2558.196534
365.608665	2559.870197
365.996601	2558.882131
366.384474	2560.497820
366.772284	2559.073694
367.160031	2560.908674
367.547715	2563.646021
367.935336	2560.454971
368.322893	2557.964641
368.710388	2557.301729
369.097820	2559.048489
369.485189	2558.221739
369.872495	2560.152501
370.259738	2561.465722
370.646918	2561.745506
371.034035	2564.674416
371.421090	2562.834395
371.808081	2564.442523
372.195010	2563.663665
372.581875	2565.886814
372.968678	2564.989488
373.355418	2564.366906
373.742096	2565.397822
374.128710	2565.032338
374.515262	2567.540312
374.901751	2565.536454
375.288177	2564.495455
375.674540	2564.969324
376.060841	2566.484191
376.447079	2566.648028
376.833254	2566.703481
377.219367	2568.404870
377.605417	2570.091136
377.991404	2568.205745
378.377329	2570.315468
378.763191	2569.508883
379.148991	2568.704819
379.534727	2568.694737
379.920402	2569.367731
380.306013	2570.696075
380.691563	2569.443348
381.077049	2570.512072
381.462474	2570.093657
381.847835	2569.952504
382.233134	2572.092474
382.618371	2571.555591
383.003545	2569.196331
383.388657	2568.041907
383.773706	2573.531724
384.158693	2572.354614
384.543618	2574.880232
384.928480	2572.858730
385.313280	2573.962742
385.698017	2574.476940
386.082692	2573.211610
386.467305	2574.058524
386.851856	2578.832497
387.236344	2571.721949
387.620770	2569.007288
388.005133	2570.169274
388.389435	2574.184553
388.773674	2569.173646
389.157851	2574.297979
389.541965	2573.806467
389.926018	2577.292424
390.310008	2577.869637
390.693936	2577.015161
391.077802	2574.396282
391.461606	2577.269739
391.845348	2577.161354
392.229027	2578.540110
392.612645	2579.485326
392.996200	2577.564647
393.379694	2579.283680
393.763125	2579.644123
394.146494	2577.925089
394.529801	2579.744946
394.913047	2579.870975
395.296230	2576.327043
395.679351	2582.978846
396.062410	2582.144535
396.445408	2579.510532
396.828343	2579.913824
397.211217	2579.916345
397.594028	2580.299473
397.976778	2581.085893
398.359466	2582.232755
398.742092	2579.661767
399.124656	2581.960533
399.507158	2582.252920
399.889598	2584.276943
400.271977	2581.620255
400.654294	2583.077148
401.036549	2582.610842
401.418742	2583.243507
401.800874	2583.210739
402.182944	2584.365163
402.564952	2582.091603
402.946898	2583.619072
403.328783	2584.448342
403.710606	2583.218301
404.092367	2582.086562
404.474067	2585.254927
404.855705	2586.800041
405.237282	2583.813157
405.618797	2583.596387
406.000250	2585.701069
406.381642	2587.369691
406.762972	2584.586974
407.144240	2583.704772
407.525447	2584.208887
407.906593	2582.573033
408.287677	2588.261975
408.668700	2587.737695
409.049661	2588.438416
409.430560	2589.063519
409.811399	2588.259455
410.192176	2588.468663
410.572891	2586.071594
410.953545	2587.399938
411.334138	2588.642582
411.714669	2587.304156
412.095139	2587.551172
412.475547	2586.298446
412.855894	2588.577047
413.236180	2588.498909
413.616405	2588.282140
413.996568	2588.309866
414.376670	2589.358426
414.756711	2591.604260
415.136691	2590.752305
415.516609	2592.010073
415.896466	2590.104517
416.276262	2592.133581
416.655997	2592.494024
417.035670	2588.395566
417.415283	2592.118458
417.794834	2592.564600
418.174324	2591.644589
418.553753	2592.942687
418.933121	2592.809096
419.312428	2593.852615
419.691674	2593.671133
420.070859	2595.652307
420.449983	2592.040320
420.829045	2592.277254
421.208047	2592.889754
421.586988	2593.003180
421.965867	2592.405804
422.344686	2595.412852
422.723444	2594.457553
423.102141	2593.708942
423.480777	2597.794797
423.859352	2593.804724
424.237866	2595.380084
424.616319	2595.932091
424.994712	2592.897316
425.373044	2596.416042
425.751314	2593.829930
426.129524	2591.087542
426.507673	2593.227512
426.885762	2594.684405
427.263789	2597.159612
427.641756	2598.931577
428.019662	2596.453850
428.397508	2598.729931
428.775292	2599.317226
429.153016	2599.327308
429.530679	2596.078284
429.908282	2596.728593
430.285824	2598.828234
430.663305	2600.718666
431.040726	2598.530806
431.418086	2597.915785
431.795385	2599.770929
432.172624	2601.303440
432.549802	2599.372678
432.926920	2600.522061
433.303977	2601.285796
433.680974	2600.910230
434.057910	2601.467278
434.434786	2602.304109
434.811601	2602.130189
435.188355	2600.693461
435.565050	2598.828234
435.941683	2601.676486
436.318257	2599.607092
436.694770	2601.510127
437.071222	2602.175560
437.447614	2602.697319
437.823946	2604.930550
438.200218	2603.123297
438.576429	2603.887032
438.952580	2604.252515
439.328670	2603.501383
439.704700	2601.285796
440.080670	2603.171188
440.456580	2603.972731
440.832429	2605.278390
441.208218	2606.337032
441.583947	2603.592124
441.959616	2606.236209
442.335224	2604.781836
442.710773	2605.167485
443.086261	2609.008844
443.461689	2602.921651
443.837057	2606.435335
444.212365	2607.269646
444.587612	2605.895931
444.962800	2603.614809
445.337927	2604.209665
445.712995	2602.057093
446.088002	2608.713936
446.462949	2609.149996
446.837837	2609.472630
447.212664	2608.618154
447.587431	2609.245778
447.962139	2612.547734
448.336786	2613.951695
448.711374	2613.114864
449.085901	2614.327261
449.460369	2610.616972
449.834776	2610.180912
450.209124	2611.801643
450.583412	2615.232148
450.957640	2614.501181
451.331808	2613.308948
451.705917	2615.350615
452.079965	2612.807353
452.453954	2613.898763
452.827883	2612.310800
453.201752	2614.838938
453.575562	2613.868516
453.949311	2615.232148
454.323001	2615.136366
454.696632	2618.385390
455.070202	2615.849690
455.443713	2619.600308
455.817164	2619.403703
456.190556	2619.186933
456.563888	2621.077366
456.937160	2619.602829
457.310373	2621.682305
457.683526	2619.612911
458.056619	2620.764815
458.429653	2618.118209
458.802628	2620.661471
459.175542	2622.136008
459.548398	2624.091976
459.921194	2623.771863
460.293930	2626.305043
460.666607	2630.020373
461.039224	2628.825620
461.411782	2630.731176
461.784280	2633.841568
462.156719	2633.854171
462.529099	2636.266363
462.901419	2630.176649
463.273680	2630.859725
463.645882	2629.337297
464.018024	2630.746299
464.390106	2628.407204
464.762130	2639.533030
465.134094	2639.873308
465.505999	2647.412354
465.877845	2658.056750
466.249631	2664.832061
466.621358	2668.807011
466.993026	2667.425735
467.364634	2670.480674
467.736184	2667.224088
468.107674	2668.302895
468.479105	2670.979748
468.850477	2674.417815
469.221790	2679.224555
469.593043	2676.429235
469.964238	2680.900739
470.335373	2684.311079
470.706449	2690.811647
471.077467	2695.121834
471.448425	2713.401058
471.819324	2744.008423
472.190164	2770.305602
472.560945	2754.120978
472.931667	2747.970770
473.302330	2753.576533
473.672934	2761.604571
474.043479	2775.873557
474.413965	2790.253448
474.784393	2800.340797
475.154761	2822.111020
475.525070	2841.393433
475.895321	2855.279292
476.265513	2885.158210
476.635645	2917.643406
477.005719	2938.065120
477.375734	2967.124851
477.745691	3006.176150
478.115588	3051.667522
478.485427	3094.905498
478.855207	3166.318484
479.224928	3271.340842
479.594591	3407.565422
479.964194	3456.867906
480.333739	3503.203672
480.703226	3535.867828
481.072653	3591.801951
481.442022	3691.684852
481.811333	3814.552895
482.180584	3888.201632
482.549777	3907.083274
482.918912	3976.351248
483.287988	4074.578131
483.657005	4144.259480
484.025964	4211.601734
484.394864	4293.124753
484.763706	4357.470041
485.132489	4428.895629
485.501213	4521.357952
485.869879	4631.267709
486.238487	4689.941699
486.607036	4836.898895
486.975527	4904.039503
487.343959	5041.355492
487.712333	5164.130274
488.080648	5221.382658
488.448905	5416.664355
488.817104	5500.009752
489.185244	5712.118820
489.553326	5861.457962
489.921350	6122.577128
490.289315	6654.081102
490.657222	7138.737632
491.025070	7379.314097
491.392861	7516.975405
491.760593	7529.094339
492.128267	7561.705563
492.495883	7489.231415
492.863440	7500.914289
493.230939	7470.732901
493.598380	7616.775128
493.965763	7682.287443
494.333088	7744.104592
494.700354	7896.186121
495.067563	8051.826705
495.434713	8165.696288
495.801805	8317.566089
496.168839	8492.602512
496.535815	8620.443653
496.902733	8846.834311
497.269593	8885.724292
497.636395	9147.231627
498.003139	9314.308068
498.369825	9453.910221
498.736453	9662.745061
499.103023	9792.766501
499.469535	9992.560030
499.835989	10249.129555
500.202385	10464.228028
500.568723	10469.092742
500.935003	10693.406444
501.301226	10766.225911
501.667390	11215.017153
502.033497	11564.122098
502.399546	11594.764752
502.765537	11683.171467
503.131470	11988.884680
503.497345	12238.530180
503.863163	12087.724063
504.228923	12567.422619
504.594625	12863.361035
504.960269	12797.778144
505.325856	13264.115121
505.691385	13197.647508
506.056856	13639.393737
506.422270	13870.253378
506.787625	13815.705572
507.152924	14279.398465
507.518164	14428.999746
507.883347	14510.545451
508.248472	14521.477193
508.613540	15144.631864
508.978550	15255.615387
509.343503	15442.231340
509.708398	15790.083558
510.073236	16044.618978
510.438016	16357.415012
510.802738	16386.444497
511.167403	16710.623457
511.532010	16708.606995
511.896561	17395.882622
512.261053	17611.230632
512.625488	17671.255651
512.989866	17787.366027
513.354186	17848.845419
513.718449	18146.054206
514.082655	18552.333397
514.446803	18587.313963
514.810894	19060.237209
515.174927	18870.067242
515.538904	19070.190967
515.902822	19591.080791
516.266684	19598.743345
516.630488	19668.122225
516.994235	19840.925417
517.357925	20214.263188
517.721558	20535.067096
518.085133	20757.644120
518.448651	20847.346412
518.812112	20795.155346
519.175516	21060.834236
519.538863	21380.960108
519.902152	21319.768062
520.265385	21736.255590
520.628560	21679.456910
520.991678	21847.148372
521.354739	22043.987785
521.717743	22225.083676
522.080690	22159.891474
522.443580	22588.744952
522.806413	22705.679557
523.169189	22928.513680
523.531908	23069.938210
523.894569	22842.360361
524.257174	23016.358307
524.619722	23323.467920
524.982213	23127.029278
525.344647	23326.714423
525.707025	23505.834181
526.069345	23622.352890
526.431608	23670.243852
526.793815	23949.196100
527.155964	23496.092151
527.518057	23752.649073
527.880093	23783.790801
528.242072	24054.609147
528.603995	23857.220248
528.965860	23737.467638
529.327669	23891.142172
529.689421	23919.017232
530.051117	23834.141845
530.412755	24091.003757
530.774337	23954.375885
531.135862	23891.190063
531.497331	24139.771880
531.858743	23756.820628
532.220098	24271.424133
532.581396	23996.819880
532.942638	24028.422873
533.303824	24140.061746
533.664953	24213.627304
534.026025	23939.229738
534.387040	24195.486712
534.747999	24311.627335
535.108902	24499.266643
535.469748	24032.750704
535.830537	24254.654735
536.191270	24384.814806
536.551947	24343.769732
536.912567	24038.696745
537.273131	24338.204298
537.633638	24107.813485
537.994089	24330.040149
538.354483	23925.956380
538.714821	24433.696355
539.075103	24512.492110
539.435328	24312.416275
539.795497	23888.195618
540.155609	24305.086438
540.515665	24611.901143
540.875665	23892.881370
541.235609	24167.669625
541.595496	24164.884388
541.955328	24523.776733
542.315102	24462.388082
542.674821	24056.895310
543.034483	23933.931486
543.394090	24106.250727
543.753640	23895.480085
544.113134	24552.322266
544.472571	24158.272914
544.831953	24442.891419
545.191278	24061.271032
545.550548	24016.808055
545.909761	24228.869233
546.268918	24470.796726
546.628019	24425.501959
546.987064	24148.979547
547.346053	23913.252673
547.704986	24052.592686
548.063863	24218.098808
548.422684	24197.624161
548.781449	23784.085708
549.140158	24176.531973
549.498811	23751.267797
549.857408	23485.349452
550.215949	23942.156128
550.574434	23619.784422
550.932864	23846.951417
551.291237	23974.190140
551.649555	23861.079251
552.007817	23906.101796
552.366022	23792.872439
552.724173	23840.869265
553.082267	23765.191464
553.440305	24236.188988
553.798288	23506.507175
554.156215	24053.434558
554.514086	24124.172029
554.871902	23500.384693
555.229661	23789.081492
555.587365	23657.242716
555.945014	23481.608916
556.302606	23769.685652
556.660143	23692.918962
557.017625	23959.724549
557.375050	23500.838397
557.732421	23889.234095
558.089735	23695.996586
558.446994	23756.659311
558.804197	23769.312607
559.161345	23741.533329
559.518437	23474.536177
559.875474	23694.937944
560.232455	23866.322051
560.589381	23695.016082
560.946251	23673.933976
561.303065	23994.518593
561.659825	24076.296191
562.016528	23680.134595
562.373177	23431.724178
562.729770	23782.764926
563.086307	23655.826152
563.442789	23840.879347
563.799216	23640.700169
564.155587	23670.155631
564.511904	23645.814420
564.868164	23577.479059
565.224370	23557.334608
565.580520	23461.719043
565.936615	23607.466363
566.292654	23266.354167
566.648638	23585.842333
567.004567	23411.970417
567.360441	23361.432849
567.716260	23075.052461
568.072023	23413.906220
568.427732	23165.856245
568.783385	22968.679074
569.138982	23190.411705
569.494525	23231.832346
569.850013	22976.268531
570.205445	23073.915681
570.560823	22871.019321
570.916145	22646.713180
571.271412	22813.580414
571.626625	22578.375299
571.981782	22689.888142
572.336884	22506.168332
572.691931	22624.043112
573.046923	22363.975026
573.401860	22250.465885
573.756743	22241.774936
574.111570	22158.144714
574.466342	22097.862597
574.821059	22191.048325
575.175722	21887.548179
575.530330	21865.379705
575.884882	21897.789283
576.239380	21805.147998
576.593823	21694.968540
576.948211	21682.869771
577.302544	21528.486955
577.656823	21394.644320
578.011047	21496.694918
578.365216	21366.318077
578.719330	21252.778689
579.073389	21153.331847
579.427394	21291.656068
579.781344	21081.245868
580.135239	20962.854370
580.489080	20943.957605
580.842866	20691.257165
581.196597	20871.566635
581.550273	20864.012466
581.903895	20751.289746
582.257463	21077.187739
582.610975	20594.986250
582.964434	20902.279865
583.317837	20614.911411
583.671186	20717.302287
584.024481	20669.933084
584.377721	20458.071032
584.730906	20492.416413
585.084037	20543.753004
585.437113	20437.243505
585.790135	20632.575614
586.143103	20111.501788
586.496016	20120.296081
586.848874	20366.387567
587.201679	20307.857251
587.554428	19964.680702
587.907124	20283.392531
588.259765	20080.876778
588.612352	20152.819085
588.964884	19724.449557
589.317362	19897.562780
589.669786	19948.478434
590.022155	20000.825776
590.374470	20168.723925
590.726731	19983.640482
591.078937	19734.869622
591.431090	19828.367902
591.783188	19582.226004
592.135232	19555.845646
592.487222	19649.913577
592.839157	19685.630152
593.191038	19567.462985
593.542866	19441.986145
593.894639	19180.055353
594.246358	19395.158867
594.598022	19315.251538
594.949633	19069.956553
595.301190	19010.407923
595.652692	19175.256175
596.004141	19420.825902
596.355535	18760.913658
596.706876	18766.229555
597.058162	18662.031425
597.409395	18876.895484
597.760573	18964.840934
598.111698	18744.983612
598.462768	18681.921298
598.813785	18643.739598
599.164748	18472.176530
599.515657	18492.351228
599.866511	18284.474208
600.217312	18649.791504
600.568060	18179.464453
600.918753	18488.388881
601.269392	18388.662255
601.619978	18174.995470
601.970510	18382.469197
602.320988	18328.158327
602.671412	18539.654895
603.021783	18430.024922
603.372100	18178.216767
603.722363	18306.299883
604.072572	18241.377384
604.422728	18376.571048
604.772830	18138.736971
605.122878	18087.755782
605.472872	18080.970389
605.822813	18079.029545
606.172701	18030.420219
606.522534	18235.960664
606.872314	18264.528883
607.222041	18089.694106
607.571714	18313.526378
607.921333	18135.913925
608.270899	18196.919448
608.620411	18398.542917
608.969870	18154.513262
609.319276	18165.765117
609.668627	18193.045321
610.017926	18333.058328
610.367171	18447.358930
610.716362	18479.672726
611.065500	18304.568247
611.414585	18438.851983
611.763616	18419.889683
612.112594	18379.295791
612.461518	18338.250717
612.810389	18529.393626
613.159207	18382.277634
613.507971	18284.370864
613.856682	18576.170493
614.205340	18505.682559
614.553945	18636.253485
614.902496	18373.498464
615.250994	18635.172157
615.599439	18564.326302
615.947830	18551.930105
616.296169	18586.756916
616.644454	18564.716991
616.992686	18531.624337
617.340864	18744.804651
617.688990	18506.214401
618.037063	18672.978291
618.385082	18521.100928
618.733048	18809.686821
619.080961	18668.080810
619.428821	18719.246001
619.776628	18599.122866
620.124382	18526.401702
620.472083	18562.239264
620.819731	18588.279344
621.167326	18287.778684
621.514868	18337.005552
621.862357	18084.002643
622.209793	18095.312472
622.557176	17922.257222
622.904506	17761.525072
623.251783	17664.530752
623.599007	17438.319055
623.946179	17383.315026
624.293297	17317.243143
624.640363	17081.239005
624.987376	17092.458093
625.334336	16893.818987
625.681243	16745.790546
626.028097	16747.451606
626.374899	16678.097932
626.721647	16543.652879
627.068343	16367.978750
627.414987	16303.787218
627.761577	16283.922551
628.108115	16327.969633
628.454600	16054.053497
628.801032	16147.062786
629.147412	16070.175107
629.493739	16093.782831
629.840014	15898.216308
630.186236	15998.643655
630.532405	15768.512461
630.878521	15966.039992
631.224585	15858.590319
631.570597	15675.646846
631.916556	15711.348297
632.262462	15690.969433
632.608316	15599.142295
632.954117	15559.115533
633.299866	15551.778134
633.645562	15473.463809
633.991206	15228.514143
634.336797	15099.251397
634.682336	15069.329628
635.027823	14952.727740
635.373257	14845.875443
635.718639	14734.564246
636.063968	14689.448439
636.409245	14447.268888
636.754470	14475.375841
637.099642	14319.271471
637.444762	14091.597840
637.789829	14136.320436
638.134845	13973.760869
638.479808	13992.912212
