Dividing Wavelength (nm)	Counts (n)	Blue Motor Position (mm): 14.000000	Red Motor Position (mm): 0.000000	
326.493990	2169.276556
326.888308	2169.276556
327.282561	2169.276556
327.676750	2130.610906
328.070874	2128.685185
328.464933	2127.742489
328.858929	2131.997223
329.252859	2134.903448
329.646726	2144.781589
330.040528	2155.267189
330.434265	2169.657163
330.827938	2187.018897
331.221547	2204.476412
331.615091	2222.768239
332.008571	2239.278018
332.401986	2259.215781
332.795338	2277.343771
333.188625	2297.818417
333.581847	2313.834163
333.975006	2331.553818
334.368100	2352.005780
334.761129	2368.374406
335.154095	2386.131871
335.546996	2409.028791
335.939833	2431.434200
336.332606	2449.516818
336.725315	2457.680967
337.117960	2473.948771
337.510540	2483.111068
337.903056	2496.215547
338.295508	2505.115704
338.687896	2515.787827
339.080220	2520.556758
339.472480	2528.131092
339.864676	2533.615867
340.256807	2536.433873
340.648875	2540.708771
341.040879	2545.820501
341.432818	2548.232693
341.824694	2551.864844
342.216506	2549.687066
342.608253	2555.020607
342.999937	2555.436502
343.391557	2552.210163
343.783113	2550.967519
344.174605	2549.682025
344.566033	2552.764690
344.957397	2551.890050
345.348697	2547.683207
345.739934	2547.116077
346.131106	2545.540717
346.522215	2544.124153
346.913260	2539.115766
347.304241	2541.679193
347.695159	2538.989738
348.086012	2537.416897
348.476802	2533.893131
348.867528	2530.218130
349.258191	2527.503468
349.648789	2526.217974
350.039324	2521.910308
350.429796	2524.695546
350.820203	2527.952131
351.210548	2523.392408
351.600828	2522.676564
351.991045	2524.617408
352.381198	2521.842253
352.771288	2519.460308
353.161314	2520.844104
353.551276	2518.515091
353.941175	2517.902591
354.331010	2516.022241
354.720782	2517.716068
355.110490	2515.697086
355.500135	2518.464680
355.889717	2518.666326
356.279235	2517.005266
356.668689	2519.246058
357.058080	2517.867303
357.447408	2517.743795
357.836672	2517.998373
358.225873	2521.829650
358.615010	2517.960564
359.004084	2519.724968
359.393095	2520.491223
359.782043	2521.544825
360.170927	2526.225536
360.559748	2523.266379
360.948505	2522.137160
361.337199	2522.759743
361.725830	2524.587161
362.114398	2522.764784
362.502903	2522.144722
362.891344	2523.246214
363.279722	2523.609177
363.668037	2527.178314
364.056289	2525.867614
364.444478	2527.032121
364.832603	2525.287881
365.220665	2526.530526
365.608665	2527.884076
365.996601	2529.683768
366.384474	2527.737882
366.772284	2529.731658
367.160031	2529.923222
367.547715	2528.065557
367.935336	2529.638397
368.322893	2528.647810
368.710388	2524.698066
369.097820	2527.763088
369.485189	2527.949611
369.872495	2532.658048
370.259738	2529.938346
370.646918	2531.518748
371.034035	2531.612009
371.421090	2533.774664
371.808081	2532.910106
372.195010	2535.087884
372.581875	2530.981865
372.968678	2534.062010
373.355418	2534.424973
373.742096	2534.704757
374.128710	2533.956145
374.515262	2534.384643
374.901751	2533.978831
375.288177	2533.504962
375.674540	2536.181815
376.060841	2534.379602
376.447079	2534.639222
376.833254	2537.978986
377.219367	2537.550488
377.605417	2540.282793
377.991404	2538.258770
378.377329	2540.469316
378.763191	2539.347659
379.148991	2536.980838
379.534727	2538.783050
379.920402	2536.789274
380.306013	2537.308513
380.691563	2539.781199
381.077049	2539.445962
381.462474	2539.700540
381.847835	2540.497043
382.233134	2540.300437
382.618371	2538.745242
383.003545	2541.825387
383.388657	2540.040818
383.773706	2539.655170
384.158693	2538.778009
384.543618	2540.764224
384.928480	2541.412012
385.313280	2544.943340
385.698017	2541.613658
386.082692	2542.513504
386.467305	2543.062990
386.851856	2542.208514
387.236344	2543.577187
387.620770	2538.404964
388.005133	2538.979655
388.389435	2542.725233
388.773674	2538.422608
389.157851	2542.798329
389.541965	2544.819832
389.926018	2540.683565
390.310008	2541.563247
390.693936	2541.832948
391.077802	2542.362269
391.461606	2545.603731
391.845348	2544.328319
392.229027	2544.903011
392.612645	2545.195398
392.996200	2545.659184
393.379694	2543.239430
393.763125	2546.256561
394.146494	2545.512991
394.529801	2545.744884
394.913047	2547.501726
395.296230	2545.288659
395.679351	2545.616334
396.062410	2547.915100
396.445408	2548.013403
396.828343	2544.366128
397.211217	2547.811757
397.594028	2547.216901
397.976778	2548.164637
398.359466	2545.190357
398.742092	2548.091541
399.124656	2549.087169
399.507158	2547.547096
399.889598	2551.375853
400.271977	2545.671787
400.654294	2547.703372
401.036549	2550.032385
401.418742	2547.506767
401.800874	2550.617159
402.182944	2549.626572
402.564952	2549.392158
402.946898	2548.661191
403.328783	2550.284443
403.710606	2551.723692
404.092367	2550.599515
404.474067	2550.738147
404.855705	2550.881819
405.237282	2551.358208
405.618797	2550.765873
406.000250	2553.838456
406.381642	2552.031202
406.762972	2546.806047
407.144240	2548.013403
407.525447	2549.901315
407.906593	2550.241593
408.287677	2553.155380
408.668700	2550.211346
409.049661	2554.594629
409.430560	2551.577499
409.811399	2552.467262
410.192176	2550.859134
410.572891	2552.510112
410.953545	2553.248641
411.334138	2554.382901
411.714669	2552.515153
412.095139	2553.044474
412.475547	2552.747046
412.855894	2556.449774
413.236180	2553.606563
413.616405	2552.953734
413.996568	2556.779969
414.376670	2554.617314
414.756711	2551.794268
415.136691	2552.494989
415.516609	2555.192006
415.896466	2554.818961
416.276262	2552.963816
416.655997	2557.367264
417.035670	2556.296019
417.415283	2556.326266
417.794834	2557.306770
418.174324	2556.785011
418.553753	2558.027655
418.933121	2556.273333
419.312428	2554.443395
419.691674	2558.138560
420.070859	2556.001111
420.449983	2557.440361
420.829045	2556.447253
421.208047	2558.786349
421.586988	2554.687891
421.965867	2558.163766
422.344686	2556.578323
422.723444	2557.415155
423.102141	2557.861297
423.480777	2557.841132
423.859352	2559.787018
424.237866	2558.042778
424.616319	2558.985474
424.994712	2562.158881
425.373044	2559.872717
425.751314	2558.461194
426.129524	2558.597305
426.507673	2558.677964
426.885762	2554.592109
427.263789	2557.740309
427.641756	2558.796431
428.019662	2558.128478
428.397508	2559.529919
428.775292	2557.712583
429.153016	2558.584702
429.530679	2561.614436
429.908282	2561.576627
430.285824	2560.339024
430.663305	2559.842470
431.040726	2558.526729
431.418086	2559.116544
431.795385	2560.707028
432.172624	2562.834395
432.549802	2561.314487
432.926920	2559.040927
433.303977	2560.641493
433.680974	2562.473953
434.057910	2561.526216
434.434786	2560.167625
434.811601	2564.490414
435.188355	2562.738613
435.565050	2560.628890
435.941683	2561.821123
436.318257	2562.547049
436.694770	2562.403377
437.071222	2561.783315
437.447614	2560.732234
437.823946	2562.446226
438.200218	2559.708880
438.576429	2563.215002
438.952580	2561.422872
439.328670	2562.630228
439.704700	2563.146947
440.080670	2563.767009
440.456580	2562.486556
440.832429	2560.543191
441.208218	2560.686864
441.583947	2563.184755
441.959616	2562.383212
442.335224	2563.456978
442.710773	2560.452450
443.086261	2565.034859
443.461689	2567.331104
443.837057	2565.062585
444.212365	2565.874211
444.587612	2563.759447
444.962800	2559.192162
445.337927	2561.206103
445.712995	2559.817265
446.088002	2563.777091
446.462949	2566.937894
446.837837	2564.699622
447.212664	2564.838254
447.587431	2564.583676
447.962139	2566.625343
448.336786	2567.071485
448.711374	2566.080898
449.085901	2564.361865
449.460369	2566.985785
449.834776	2568.233471
450.209124	2564.636608
450.583412	2567.305899
450.957640	2564.399673
451.331808	2566.280024
451.705917	2566.096022
452.079965	2567.512586
452.453954	2565.637277
452.827883	2565.491083
453.201752	2567.613409
453.575562	2565.508727
453.949311	2566.557287
454.323001	2566.045610
454.696632	2564.802966
455.070202	2568.132648
455.443713	2567.467216
455.817164	2567.540312
456.190556	2568.472926
456.563888	2570.015519
456.937160	2569.345045
457.310373	2567.111814
457.683526	2569.289593
458.056619	2568.044428
458.429653	2567.174829
458.802628	2570.421332
459.175542	2568.767833
459.548398	2568.523337
459.921194	2567.505024
460.293930	2573.798905
460.666607	2570.935529
461.039224	2571.694223
461.411782	2569.476115
461.784280	2572.553740
462.156719	2571.132134
462.529099	2570.882597
462.901419	2570.837227
463.273680	2569.816393
463.645882	2567.983934
464.018024	2568.508214
464.390106	2567.426886
464.762130	2568.485529
465.134094	2570.776733
465.505999	2572.858730
465.877845	2575.727146
466.249631	2577.426015
466.621358	2573.395612
466.993026	2573.834193
467.364634	2579.066911
467.736184	2576.087589
468.107674	2576.571539
468.479105	2573.100705
468.850477	2575.689337
469.221790	2575.530541
469.593043	2573.088102
469.964238	2572.611713
470.335373	2575.417115
470.706449	2576.352249
471.077467	2573.446024
471.448425	2575.217990
471.819324	2576.276632
472.190164	2578.227558
472.560945	2577.254616
472.931667	2573.294789
473.302330	2574.875191
473.672934	2575.880901
474.043479	2576.238823
474.413965	2577.592373
474.784393	2575.054152
475.154761	2575.543144
475.525070	2577.095819
475.895321	2575.172619
476.265513	2575.626323
476.635645	2576.440469
477.005719	2578.303176
477.375734	2579.016499
477.745691	2577.927610
478.115588	2579.858372
478.485427	2577.100861
478.855207	2579.233269
479.224928	2580.911973
479.594591	2582.888105
479.964194	2581.216963
480.333739	2580.886767
480.703226	2581.937848
481.072653	2579.576067
481.442022	2579.341653
481.811333	2579.848289
482.180584	2579.865933
482.549777	2583.011613
482.918912	2577.274780
483.287988	2582.361305
483.657005	2584.198805
484.025964	2582.121850
484.394864	2582.631006
484.763706	2582.512539
485.132489	2582.431881
485.501213	2581.965574
485.869879	2579.961715
486.238487	2581.305183
486.607036	2583.440112
486.975527	2582.688980
487.343959	2584.639906
487.712333	2585.007910
488.080648	2581.340471
488.448905	2584.045050
488.817104	2584.380287
489.185244	2585.625452
489.553326	2587.495720
489.921350	2584.082859
490.289315	2583.019175
490.657222	2588.592171
491.025070	2586.830287
491.392861	2589.282809
491.760593	2590.197778
492.128267	2588.786255
492.495883	2586.648806
492.863440	2584.203846
493.230939	2584.506316
493.598380	2588.259455
493.965763	2588.294743
494.333088	2586.058991
494.700354	2585.257447
495.067563	2587.387335
495.434713	2587.349526
495.801805	2587.987232
496.168839	2588.403127
496.535815	2585.244845
496.902733	2588.745926
497.269593	2586.106882
497.636395	2588.156111
498.003139	2587.271388
498.369825	2587.896492
498.736453	2587.631831
499.103023	2586.863055
499.469535	2586.759711
499.835989	2587.339444
500.202385	2586.676532
500.568723	2582.832652
500.935003	2583.203177
501.301226	2583.858527
501.667390	2585.640575
502.033497	2591.266503
502.399546	2592.378077
502.765537	2585.902715
503.131470	2590.361616
503.497345	2590.598550
503.863163	2588.675350
504.228923	2588.947572
504.594625	2589.754157
504.960269	2585.953127
505.325856	2594.462594
505.691385	2588.014959
506.056856	2593.877821
506.422270	2592.010073
506.787625	2593.703901
507.152924	2593.058633
507.518164	2596.741196
507.883347	2591.924373
508.248472	2594.913778
508.613540	2594.621391
508.978550	2594.719693
509.343503	2596.567276
509.708398	2598.175404
510.073236	2597.109200
510.438016	2597.963676
510.802738	2600.494335
511.167403	2597.053747
511.532010	2600.322936
511.896561	2602.596496
512.261053	2603.239243
512.625488	2603.385437
512.989866	2601.714294
513.354186	2602.344438
513.718449	2606.387444
514.082655	2607.854420
514.446803	2602.921651
514.810894	2605.840479
515.174927	2606.702516
515.538904	2606.304265
515.902822	2609.739811
516.266684	2609.023967
516.630488	2611.204266
516.994235	2608.250150
517.357925	2609.840634
517.721558	2615.285080
518.085133	2611.867178
518.448651	2610.954729
518.812112	2613.863475
519.175516	2611.715943
519.538863	2610.853906
519.902152	2617.447735
520.265385	2617.508229
520.628560	2618.589557
520.991678	2617.982098
521.354739	2619.769187
521.717743	2621.831019
522.080690	2623.305556
522.443580	2624.482666
522.806413	2626.478962
523.169189	2623.509723
523.531908	2630.247225
523.894569	2629.165897
524.257174	2629.070116
524.619722	2629.546505
524.982213	2631.580610
525.344647	2632.626650
525.707025	2633.551701
526.069345	2632.775364
526.431608	2634.491877
526.793815	2636.130252
527.155964	2634.653193
527.518057	2635.333749
527.880093	2638.751652
528.242072	2638.892804
528.603995	2643.976807
528.965860	2640.087557
529.327669	2640.931951
529.689421	2644.906900
530.051117	2645.592497
530.412755	2644.604431
530.774337	2645.567292
531.135862	2645.584936
531.497331	2650.308497
531.858743	2649.156593
532.220098	2653.643220
532.581396	2654.964002
532.942638	2652.035092
533.303824	2655.707572
533.664953	2657.436688
534.026025	2655.896616
534.387040	2661.880465
534.747999	2662.931546
535.108902	2664.670744
535.469748	2661.915753
535.830537	2663.977585
536.191270	2670.788184
536.551947	2665.684016
536.912567	2665.081598
537.273131	2670.982269
537.633638	2668.375992
537.994089	2677.220697
538.354483	2676.875378
538.714821	2682.357632
539.075103	2678.856551
539.435328	2682.874351
539.795497	2680.300842
540.155609	2689.130422
540.515665	2685.641944
540.875665	2689.763087
541.235609	2689.654702
541.595496	2694.705939
541.955328	2694.239632
542.315102	2703.280941
542.674821	2701.826568
543.034483	2699.797504
543.394090	2705.622557
543.753640	2707.787733
544.113134	2714.956254
544.472571	2714.356356
544.831953	2719.057232
545.191278	2720.914897
545.550548	2721.275340
545.909761	2724.456308
546.268918	2729.895713
546.628019	2733.018708
546.987064	2738.266549
547.346053	2738.274111
547.704986	2745.351891
548.063863	2749.924217
548.422684	2748.038826
548.781449	2750.892119
549.140158	2758.816813
549.498811	2763.787390
549.857408	2761.387801
550.215949	2769.972886
550.574434	2774.235182
550.932864	2781.691048
551.291237	2785.199691
551.649555	2793.356278
552.007817	2796.817030
552.366022	2801.497742
552.724173	2806.836324
553.082267	2811.572488
553.440305	2822.292501
553.798288	2824.351813
554.156215	2838.106601
554.514086	2842.220182
554.871902	2837.995696
555.229661	2850.102027
555.587365	2856.789117
555.945014	2866.024511
556.302606	2879.562530
556.660143	2887.809857
557.017625	2902.403998
557.375050	2905.640418
557.732421	2916.241965
558.089735	2924.418717
558.446994	2929.946342
558.804197	2951.517439
559.161345	2963.520426
559.518437	2958.522122
559.875474	2978.981645
560.232455	2987.786020
560.589381	3002.203720
560.946251	3012.301152
561.303065	3034.371323
561.659825	3055.113151
562.016528	3055.460990
562.373177	3064.966086
562.729770	3080.021492
563.086307	3104.612240
563.442789	3121.674025
563.799216	3135.270017
564.155587	3149.017244
564.511904	3175.294258
564.868164	3180.234589
565.224370	3206.390616
565.580520	3210.418498
565.936615	3241.552664
566.292654	3246.898807
566.648638	3281.027419
567.004567	3293.317752
567.360441	3314.999755
567.716260	3325.896209
568.072023	3368.224257
568.427732	3382.911659
568.783385	3396.202661
569.138982	3432.158691
569.494525	3461.450315
569.850013	3486.267916
570.205445	3511.355218
570.560823	3520.903163
570.916145	3552.758214
571.271412	3576.592790
571.626625	3609.191411
571.981782	3635.818786
572.336884	3652.091630
572.691931	3688.589584
573.046923	3688.274512
573.401860	3728.969226
573.756743	3776.734159
574.111570	3795.094041
574.466342	3821.166889
574.821059	3864.510730
575.175722	3873.965414
575.530330	3923.194802
575.884882	3949.244964
576.239380	3992.379597
576.593823	4018.512939
576.948211	4044.863050
577.302544	4066.172007
577.656823	4094.989763
578.011047	4143.016836
578.365216	4174.385416
578.719330	4212.914954
579.073389	4231.267275
579.427394	4305.031959
579.781344	4306.221671
580.135239	4354.137838
580.489080	4383.505080
580.842866	4395.964292
581.196597	4485.104495
581.550273	4494.133201
581.903895	4569.238832
582.257463	4629.392400
582.610975	4641.138288
582.964434	4708.601530
583.317837	4738.508175
583.671186	4792.380466
584.024481	4854.432028
584.377721	4853.779199
584.730906	4915.576183
585.084037	4974.232529
585.437113	5009.311398
585.790135	5074.896809
586.143103	5072.963527
586.496016	5102.960913
586.848874	5215.330753
587.201679	5241.595164
587.554428	5256.960601
587.907124	5355.941136
588.259765	5379.871494
588.612352	5463.254699
588.964884	5449.207524
589.317362	5532.968815
589.669786	5585.774902
590.022155	5642.840763
590.374470	5740.750053
590.726731	5763.994814
591.078937	5778.649448
591.431090	5846.949521
591.783188	5851.630232
592.135232	5893.305451
592.487222	5990.715667
592.839157	6036.678387
593.191038	6090.654021
593.542866	6104.539880
593.894639	6128.611389
594.246358	6236.315641
594.598022	6248.023721
594.949633	6270.459376
595.301190	6306.375077
595.652692	6405.625314
596.004141	6504.769686
596.355535	6422.092243
596.706876	6482.807900
597.058162	6528.831114
597.409395	6610.616273
597.760573	6709.848866
598.111698	6721.793880
598.462768	6762.465909
598.813785	6804.882178
599.164748	6824.746844
599.515657	6885.626339
599.866511	6903.300624
600.217312	7041.193826
600.568060	6975.356357
600.918753	7129.958463
601.269392	7185.600198
601.619978	7160.154974
601.970510	7311.450084
602.320988	7334.614186
602.671412	7455.654810
603.021783	7488.142526
603.372100	7477.619117
603.722363	7588.945438
604.072572	7639.210783
604.422728	7710.790127
604.772830	7743.650888
605.122878	7747.033502
605.472872	7846.336671
605.822813	7913.005931
606.172701	7959.326573
606.522534	8082.368536
606.872314	8163.611771
607.222041	8139.356259
607.571714	8292.682953
607.921333	8306.445303
608.270899	8398.065754
608.620411	8554.346564
608.969870	8489.088828
609.319276	8571.544461
609.668627	8663.757247
610.017926	8774.927292
610.367171	8876.340184
610.716362	8988.594077
611.065500	8949.396586
611.414585	9080.098581
611.763616	9140.347932
612.112594	9198.958907
612.461518	9222.949758
612.810389	9380.450528
613.159207	9364.961582
613.507971	9397.595492
613.856682	9626.153845
614.205340	9645.874839
614.553945	9803.184045
614.902496	9710.875477
615.250994	9926.755329
615.599439	9945.483215
615.947830	9999.847018
616.296169	10056.267612
616.644454	10140.893462
616.992686	10152.578856
617.340864	10340.850829
617.688990	10311.392847
618.037063	10464.177617
618.385082	10459.017996
618.733048	10640.328135
619.080961	10640.454164
619.428821	10737.385470
619.776628	10767.662640
620.124382	10774.347210
620.472083	10870.973526
620.819731	10956.295055
621.167326	10832.834677
621.514868	10915.008005
621.862357	10871.792714
622.209793	10933.846797
622.557176	10911.310319
622.904506	10857.564057
623.251783	10880.435772
623.599007	10850.309837
623.946179	10875.704649
624.293297	10902.458053
624.640363	10832.345685
624.987376	10874.424196
625.334336	10813.726183
625.681243	10793.609459
626.028097	10833.825264
626.374899	10902.493341
626.721647	10843.237098
627.068343	10789.863882
627.414987	10815.805659
627.761577	10878.568025
628.108115	10961.744543
628.454600	10823.052318
628.801032	10904.802189
629.147412	10922.521845
629.493739	10993.100519
629.840014	10934.179513
630.186236	11020.907524
630.532405	10931.578278
630.878521	11103.862231
631.224585	11077.922974
631.570597	11032.900429
631.916556	11062.497043
632.262462	11099.937693
632.608316	11116.570980
632.954117	11110.307346
633.299866	11157.868112
633.645562	11158.536065
633.991206	11032.204750
634.336797	10968.943310
634.682336	11016.960301
635.027823	10980.540485
635.373257	10969.321397
635.718639	10921.803481
636.063968	10922.559654
636.409245	10822.616258
636.754470	10876.775894
637.099642	10814.202572
637.444762	10683.669455
637.789829	10775.363003
638.134845	10700.489265
638.479808	10745.342931
638.824719	10763.322207
639.169577	10678.666110
639.514383	10757.925651
639.859137	10655.602831
640.203839	10745.529454
640.548489	10657.952009
640.893086	10705.195182
641.237632	10606.312949
641.582125	10783.713674
641.926566	10694.926352
642.270955	10725.901722
642.615292	10729.735519
642.959576	10769.164904
643.303809	10844.757006
