Dividing Wavelength (nm)	Counts (n)	Blue Motor Position (mm): 45.200000	Red Motor Position (mm): 0.000000	
326.493990	2270.124838
326.888308	2270.124838
327.282561	2270.124838
327.676750	2229.296533
328.070874	2225.258569
328.464933	2226.014742
328.858929	2229.362068
329.252859	2234.559498
329.646726	2241.405385
330.040528	2254.633373
330.434265	2269.751793
330.827938	2286.407765
331.221547	2305.309572
331.615091	2318.431695
332.008571	2339.486074
332.401986	2360.999198
332.795338	2378.219780
333.188625	2400.975548
333.581847	2416.910635
333.975006	2435.532658
334.368100	2455.296501
334.761129	2474.934316
335.154095	2491.297902
335.546996	2520.276974
335.939833	2558.859445
336.332606	2572.278997
336.725315	2587.054619
337.117960	2598.364447
337.510540	2610.178392
337.903056	2619.922942
338.295508	2629.012142
338.687896	2638.786940
339.080220	2646.772127
339.472480	2651.893940
339.864676	2654.684218
340.256807	2660.874755
340.648875	2664.995898
341.040879	2668.575118
341.432818	2670.279028
341.824694	2672.429080
342.216506	2672.124090
342.608253	2673.273473
342.999937	2674.919410
343.391557	2676.656087
343.783113	2674.881601
344.174605	2675.380675
344.566033	2672.502177
344.957397	2672.134172
345.348697	2669.671569
345.739934	2670.074861
346.131106	2669.270797
346.522215	2668.544871
346.913260	2664.867349
347.304241	2661.285609
347.695159	2660.146308
348.086012	2657.645896
348.476802	2658.288643
348.867528	2654.724548
349.258191	2650.608445
349.648789	2650.303456
350.039324	2646.053763
350.429796	2650.051398
350.820203	2649.186840
351.210548	2648.647437
351.600828	2648.652478
351.991045	2646.570481
352.381198	2648.077786
352.771288	2645.070738
353.161314	2644.871612
353.551276	2643.167702
353.941175	2643.013947
354.331010	2644.496046
354.720782	2644.876653
355.110490	2644.450676
355.500135	2644.680048
355.889717	2644.599390
356.279235	2643.606283
356.668689	2645.867240
357.058080	2644.652322
357.447408	2643.628968
357.836672	2645.935296
358.225873	2644.584267
358.615010	2647.422436
359.004084	2648.564257
359.393095	2646.941006
359.782043	2645.942858
360.170927	2647.213228
360.559748	2646.525111
360.948505	2651.339413
361.337199	2650.842859
361.725830	2650.810092
362.114398	2653.582726
362.502903	2653.698673
362.891344	2650.893271
363.279722	2651.112561
363.668037	2654.464928
364.056289	2652.970226
364.444478	2653.824702
364.832603	2655.359733
365.220665	2658.707059
365.608665	2656.645227
365.996601	2658.616318
366.384474	2659.942142
366.772284	2661.172183
367.160031	2657.350989
367.547715	2660.486586
367.935336	2660.053047
368.322893	2660.078253
368.710388	2659.269148
369.097820	2658.172697
369.485189	2659.145639
369.872495	2663.039931
370.259738	2665.615960
370.646918	2665.610919
371.034035	2667.675272
371.421090	2666.727535
371.808081	2666.387257
372.195010	2665.580672
372.581875	2666.377175
372.968678	2670.531085
373.355418	2669.963956
373.742096	2671.680468
374.128710	2673.654080
374.515262	2675.219358
374.901751	2679.746315
375.288177	2683.340657
375.674540	2688.608663
376.060841	2698.630477
376.447079	2708.168340
376.833254	2719.440360
377.219367	2732.161712
377.605417	2751.325658
377.991404	2766.181938
378.377329	2792.108593
378.763191	2811.141469
379.148991	2844.463496
379.534727	2875.159082
379.920402	2906.615882
380.306013	2933.674275
380.691563	2985.751915
381.077049	3010.826614
381.462474	3054.384704
381.847835	3107.450410
382.233134	3151.593273
382.618371	3188.643234
383.003545	3251.072883
383.388657	3285.793830
383.773706	3350.428984
384.158693	3395.474214
384.543618	3433.696243
384.928480	3499.105214
385.313280	3562.285995
385.698017	3599.260338
386.082692	3694.278526
386.467305	3708.237481
386.851856	3756.725819
387.236344	3841.966690
387.620770	3876.695199
388.005133	3941.519396
388.389435	3996.072242
388.773674	4014.303575
389.157851	4095.735854
389.541965	4168.731762
389.926018	4142.583297
390.310008	4253.564298
390.693936	4314.080830
391.077802	4347.261704
391.461606	4352.451572
391.845348	4422.664763
392.229027	4487.821677
392.612645	4491.080782
392.996200	4595.924180
393.379694	4659.228469
393.763125	4763.678656
394.146494	4790.348881
394.529801	4854.137121
394.913047	4934.462866
395.296230	4885.593921
395.679351	4995.503678
396.062410	5046.837747
396.445408	5020.782543
396.828343	5079.156584
397.211217	5139.768898
397.594028	5019.630640
397.976778	5139.194206
398.359466	5186.250857
398.742092	5207.375812
399.124656	5126.477896
399.507158	5248.317543
399.889598	5307.735103
400.271977	5430.928300
400.654294	5427.001241
401.036549	5470.027489
401.418742	5388.070930
401.800874	5594.226396
402.182944	5652.008102
402.564952	5759.238485
402.946898	5821.799204
403.328783	5656.774513
403.710606	5676.669426
404.092367	6000.054404
404.474067	6020.173649
404.855705	5921.656900
405.237282	5854.176015
405.618797	6109.381908
406.000250	6089.151757
406.381642	6292.698426
406.762972	6310.080325
407.144240	6374.360077
407.525447	6353.030956
407.906593	6372.235231
408.287677	6534.141969
408.668700	6450.116017
409.049661	6563.254633
409.430560	6594.547595
409.811399	6453.486028
410.192176	6721.607357
410.572891	6730.777216
410.953545	6919.893582
411.334138	6654.262583
411.714669	6828.588204
412.095139	6624.832327
412.475547	6868.864502
412.855894	6936.781447
413.236180	7122.598378
413.616405	6786.287882
413.996568	7011.569485
414.376670	7054.250414
414.756711	6949.233097
415.136691	7042.386059
415.516609	7249.249807
415.896466	7233.309678
416.276262	7432.881398
416.655997	7416.911022
417.035670	7602.899352
417.415283	7948.982125
417.794834	8001.841144
418.174324	7863.053137
418.553753	7789.550594
418.933121	8089.562262
419.312428	8189.944238
419.691674	7966.691699
420.070859	8447.988301
420.449983	8126.861759
420.829045	8493.603181
421.208047	8262.546936
421.586988	8565.366527
421.965867	8592.921474
422.344686	8690.296401
422.723444	8752.456349
423.102141	8090.623425
423.480777	8852.619035
423.859352	8377.084472
424.237866	8997.312753
424.616319	8862.129171
424.994712	9293.374677
425.373044	8834.750665
425.751314	9313.982914
426.129524	9192.912043
426.507673	9275.753324
426.885762	9439.963869
427.263789	9363.393783
427.641756	9290.183627
428.019662	9382.908090
428.397508	9649.010437
428.775292	9307.827665
429.153016	9693.906953
429.530679	9523.911684
429.908282	9547.476557
430.285824	9277.656359
430.663305	9957.672725
431.040726	9407.481194
431.418086	9391.314214
431.795385	9718.318741
432.172624	9813.057145
432.549802	9724.549607
432.926920	9800.161873
433.303977	9669.558180
433.680974	9873.548470
434.057910	9975.566301
434.434786	10046.376868
434.811601	9867.516730
435.188355	10433.734089
435.565050	10177.772023
435.941683	10101.310322
436.318257	10580.353528
436.694770	10737.405635
437.071222	10788.457400
437.447614	10625.769283
437.823946	10546.066120
438.200218	10643.657817
438.576429	10487.170319
438.952580	10736.846067
439.328670	10762.986970
439.704700	10560.017513
440.080670	10548.725328
440.456580	11074.789897
440.832429	10860.561023
441.208218	10460.575712
441.583947	10757.371124
441.959616	10943.117479
442.335224	10745.932746
442.710773	10856.626403
443.086261	11091.967629
443.461689	10354.799702
443.837057	11037.659278
444.212365	11277.323294
444.587612	10913.813252
444.962800	11140.118210
445.337927	10880.057686
445.712995	10541.783660
446.088002	11584.614388
446.462949	11280.723552
446.837837	11247.230126
447.212664	11174.420741
447.587431	11753.858526
447.962139	12512.030420
448.336786	14805.521007
448.711374	15297.207426
449.085901	13105.124691
449.460369	12755.671906
449.834776	12203.098430
450.209124	13132.026808
450.583412	13542.805229
450.957640	14473.414832
451.331808	13529.937684
451.705917	12586.531112
452.079965	11842.804644
452.453954	12765.665994
452.827883	12415.020976
453.201752	12705.010831
453.575562	12249.638363
453.949311	12662.685303
454.323001	12649.830361
454.696632	12880.374929
455.070202	13148.642451
455.443713	13355.448226
455.817164	13851.313762
456.190556	13819.224298
456.563888	14178.817363
456.937160	14329.628522
457.310373	13683.609697
457.683526	13794.633549
458.056619	13318.521774
458.429653	13524.873845
458.802628	12889.149057
459.175542	13289.512454
459.548398	14249.741357
459.921194	14606.927271
460.293930	14682.184137
460.666607	15519.018196
461.039224	16595.125581
461.411782	17319.819172
461.784280	17092.047239
462.156719	17200.873148
462.529099	16875.257459
462.901419	15825.580843
463.273680	15588.502940
463.645882	15485.439070
464.018024	15210.736514
464.390106	15435.738334
464.762130	16153.265926
465.134094	16952.553471
465.505999	19002.818466
465.877845	22276.140482
466.249631	25075.296607
466.621358	24700.993455
466.993026	23286.095326
467.364634	22691.511394
467.736184	21219.890202
468.107674	20427.768657
468.479105	20544.645288
468.850477	20018.285812
469.221790	19612.787999
469.593043	18921.726466
469.964238	18348.335545
470.335373	17990.211976
470.706449	18497.271394
471.077467	18080.005008
471.448425	19944.092630
471.819324	24088.248767
472.190164	25917.141573
472.560945	22250.869178
472.931667	19954.242993
473.302330	19337.803139
473.672934	18970.587849
474.043479	19210.919818
474.413965	19013.510754
474.784393	18622.155898
475.154761	19380.201764
475.525070	19296.256470
475.895321	19018.272123
476.265513	19620.309401
476.635645	20211.180523
477.005719	19970.354521
477.375734	20146.157200
477.745691	20640.807818
478.115588	21191.500944
478.485427	21745.319585
478.855207	22837.903981
479.224928	24628.567198
479.594591	26856.263165
479.964194	26757.915294
480.333739	26999.222726
480.703226	26579.186226
481.072653	26292.190817
481.442022	26912.363645
481.811333	27827.393562
482.180584	27724.092758
482.549777	26758.242969
482.918912	26444.131194
483.287988	26574.059372
483.657005	26207.852313
484.025964	26001.507804
484.394864	25866.974531
484.763706	25520.226325
485.132489	24984.477700
485.501213	25169.548540
485.869879	25086.737506
486.238487	24938.595639
486.607036	25050.831888
486.975527	24798.348218
487.343959	25093.550626
487.712333	24997.272149
488.080648	24659.827393
488.448905	25162.826162
488.817104	24918.428503
489.185244	25638.212011
489.553326	25581.133546
489.921350	26632.468701
490.289315	28983.143616
490.657222	30690.345490
491.025070	31205.937061
491.392861	30964.062500
491.760593	30105.571644
492.128267	29179.085705
492.495883	28122.522873
492.863440	27254.395851
493.230939	26384.161628
493.598380	26226.373512
493.965763	25840.057290
494.333088	25337.300496
494.700354	25307.839993
495.067563	25157.323742
495.434713	24899.650205
495.801805	25073.249899
496.168839	24844.328582
496.535815	24716.888213
496.902733	24944.042605
497.269593	24629.653566
497.636395	24793.460819
498.003139	24730.441355
498.369825	24473.415606
498.736453	24704.917993
499.103023	24558.628750
499.469535	24558.285951
499.835989	24790.917557
500.202385	24798.630523
500.568723	24355.238357
500.935003	24531.172105
501.301226	24216.374733
501.667390	25066.925772
502.033497	25273.010661
502.399546	24995.805173
502.765537	24534.151427
503.131470	24912.439612
503.497345	25063.888476
503.863163	24298.215345
504.228923	24846.723130
504.594625	25087.730613
504.960269	24648.199971
505.325856	25117.410407
505.691385	24524.333780
506.056856	25121.639935
506.422270	25108.200219
506.787625	24634.515759
507.152924	25081.706435
507.518164	25117.445695
507.883347	24921.511168
508.248472	24594.940181
508.613540	25381.115685
508.978550	25185.685274
509.343503	25206.568254
509.708398	25389.955348
510.073236	25566.617544
510.438016	25771.454748
510.802738	25432.636277
511.167403	25694.355341
511.532010	25440.351763
511.896561	26187.952358
512.261053	26149.775700
512.625488	25989.121689
512.989866	25877.520625
513.354186	25697.964807
513.718449	25841.622568
514.082655	26213.369856
514.446803	25933.157319
514.810894	26436.882014
515.174927	25915.077221
515.538904	25944.071417
515.902822	26440.632633
516.266684	26199.867125
516.630488	26112.146007
516.994235	26043.908949
517.357925	26383.609621
517.721558	26525.540787
518.085133	26657.634141
518.448651	26536.154937
518.812112	26313.666132
519.175516	26521.535590
519.538863	26670.476481
519.902152	26475.504815
520.265385	26714.090023
520.628560	26538.297427
520.991678	26528.459615
521.354739	26567.765492
521.717743	26661.820820
522.080690	26443.672449
522.443580	26786.854038
522.806413	26745.156134
523.169189	26864.240791
523.531908	26892.564513
523.894569	26525.991970
524.257174	26621.612577
524.619722	26756.682732
524.982213	26481.861710
525.344647	26502.185121
525.707025	26673.854054
526.069345	26616.420188
526.431608	26600.918640
526.793815	26766.429803
527.155964	26264.696364
527.518057	26423.974140
527.880093	26345.838776
528.242072	26574.923930
528.603995	26290.812061
528.965860	26082.947644
529.327669	26118.636493
529.689421	26109.012930
530.051117	25958.988192
530.412755	26118.389476
530.774337	25904.382413
531.135862	25801.295858
531.497331	25979.931665
531.858743	25577.831590
532.220098	26032.505859
532.581396	25725.272738
532.942638	25619.748785
533.303824	25743.279739
533.664953	25739.856796
534.026025	25400.216617
534.387040	25651.520657
534.747999	25694.070516
535.108902	25864.055703
535.469748	25355.526788
535.830537	25525.895103
536.191270	25662.896020
536.551947	25482.795758
536.912567	25100.782161
537.273131	25541.084099
537.633638	25210.891043
537.994089	25443.522649
538.354483	24927.235398
538.714821	25430.135865
539.075103	25484.681150
539.435328	25252.231025
539.795497	24845.462842
540.155609	25191.349010
540.515665	25523.457705
540.875665	24720.427103
541.235609	25083.803555
541.595496	25005.010320
541.955328	25368.991710
542.315102	25275.760611
542.674821	24785.077381
543.034483	24680.055023
543.394090	24844.200033
543.753640	24662.945346
544.113134	25283.224039
544.472571	24882.207812
544.831953	25175.953326
545.191278	24826.989534
545.550548	24705.757345
545.909761	24908.530197
546.268918	25146.432329
546.628019	25119.832681
546.987064	24795.754544
547.346053	24546.227511
547.704986	24649.896320
548.063863	24815.057123
548.422684	24840.560320
548.781449	24328.553009
549.140158	24745.721093
549.498811	24318.248890
549.857408	24079.283075
550.215949	24467.038546
550.574434	24162.434387
550.932864	24359.977041
551.291237	24555.664551
551.649555	24395.302927
552.007817	24468.359328
552.366022	24304.282374
552.724173	24328.275745
553.082267	24307.354957
553.440305	24794.763958
553.798288	24015.623384
554.156215	24507.055225
554.514086	24637.590863
554.871902	24024.707543
555.229661	24292.186125
555.587365	24142.247086
555.945014	24052.398601
556.302606	24261.535910
556.660143	24265.926755
557.017625	24479.732172
557.375050	23998.218800
557.732421	24385.528130
558.089735	24218.164342
558.446994	24263.151599
558.804197	24304.867147
559.161345	24195.892525
559.518437	24007.166848
559.875474	24168.529142
560.232455	24361.723801
560.589381	24172.060470
560.946251	24173.799668
561.303065	24465.831190
561.659825	24566.908845
562.016528	24166.812629
562.373177	23899.278594
562.729770	24263.391054
563.086307	24111.556542
563.442789	24274.874803
563.799216	24136.550582
564.155587	24125.681855
564.511904	24104.055305
564.868164	24061.407143
565.224370	24010.277240
565.580520	23956.107522
565.936615	24068.920983
566.292654	23777.605305
566.648638	24011.497199
567.004567	23852.506769
567.360441	23791.438231
567.716260	23525.996275
568.072023	23845.744061
568.427732	23619.184525
568.783385	23379.462536
569.138982	23634.484427
569.494525	23660.398478
569.850013	23419.859822
570.205445	23519.495707
570.560823	23328.020082
570.916145	23090.415377
571.271412	23287.191777
571.626625	23045.660013
571.981782	23136.904898
572.336884	22944.277368
572.691931	23095.396037
573.046923	22827.365449
573.401860	22697.633875
573.756743	22731.003793
574.111570	22610.510134
574.466342	22537.040358
574.821059	22614.356534
575.175722	22323.403820
575.530330	22291.475672
575.884882	22291.526083
576.239380	22220.007234
576.593823	22102.765119
576.948211	22100.478955
577.302544	21952.750462
577.656823	21794.175927
578.011047	21906.434862
578.365216	21779.206221
578.719330	21647.929533
579.073389	21536.704036
579.427394	21704.829037
579.781344	21447.165582
580.135239	21335.488900
580.489080	21283.630551
580.842866	21072.338149
581.196597	21282.455962
581.550273	21231.830174
581.903895	21121.668360
582.257463	21424.422416
582.610975	20965.901747
582.964434	21292.838218
583.317837	20958.783638
583.671186	21051.485416
584.024481	21030.622601
584.377721	20790.550252
584.730906	20902.799104
585.084037	20870.664269
585.437113	20800.390584
585.790135	21002.918940
586.143103	20452.573654
586.496016	20479.226234
586.848874	20710.519414
587.201679	20620.824684
587.554428	20331.507824
587.907124	20666.222795
588.259765	20425.207750
588.612352	20490.972123
588.964884	20055.504651
589.317362	20230.833461
589.669786	20300.643359
590.022155	20284.657861
590.374470	20530.096518
590.726731	20288.927718
591.078937	20091.324569
591.431090	20165.149747
591.783188	19939.422001
592.135232	19886.353775
592.487222	19989.029476
592.839157	20000.719911
593.191038	19882.209946
593.542866	19770.631568
593.894639	19479.570468
594.246358	19683.167548
594.598022	19576.794161
594.949633	19335.232151
595.301190	19328.658486
595.652692	19483.948710
596.004141	19706.117401
596.355535	19029.531541
596.706876	19064.764165
597.058162	18961.128124
597.409395	19199.536892
597.760573	19242.711854
598.111698	19016.260703
598.462768	18971.641450
598.813785	18933.313558
599.164748	18728.378051
599.515657	18790.873235
599.866511	18591.576259
600.217312	18939.950237
600.568060	18442.383311
600.918753	18752.900744
601.269392	18664.715840
601.619978	18457.171536
601.970510	18642.869999
602.320988	18597.809646
602.671412	18796.844482
603.021783	18730.991889
603.372100	18426.362524
603.722363	18584.397656
604.072572	18530.394295
604.422728	18683.910033
604.772830	18426.574253
605.122878	18395.167864
605.472872	18370.816570
605.822813	18350.054578
606.172701	18344.380760
606.522534	18510.963168
606.872314	18560.472340
607.222041	18388.634529
607.571714	18599.006920
607.921333	18417.593437
608.270899	18498.977825
608.620411	18657.469181
608.969870	18454.088870
609.319276	18450.247511
609.668627	18462.250498
610.017926	18613.265823
610.367171	18724.070385
610.716362	18779.202964
611.065500	18594.137165
611.414585	18739.302231
611.763616	18720.949911
612.112594	18646.204723
612.461518	18610.256255
612.810389	18808.839907
613.159207	18671.564247
613.507971	18599.695037
613.856682	18838.144135
614.205340	18763.272918
614.553945	18909.504188
614.902496	18663.952105
615.250994	18872.194608
615.599439	18828.061827
615.947830	18811.552048
616.296169	18888.346465
616.644454	18838.270164
616.992686	18814.072625
617.340864	19033.667807
617.688990	18786.774777
618.037063	18950.934911
618.385082	18815.753850
618.733048	19082.211598
619.080961	18972.052304
619.428821	18996.980810
619.776628	18874.894146
620.124382	18812.726637
620.472083	18864.978197
620.819731	18872.277788
621.167326	18565.021981
621.514868	18609.197612
621.862357	18394.590652
622.209793	18389.549498
622.557176	18220.645638
622.904506	18052.868477
623.251783	17990.559815
623.599007	17727.187253
623.946179	17665.997728
624.293297	17595.653467
624.640363	17332.616142
624.987376	17352.533740
625.334336	17165.022982
625.681243	16998.790934
626.028097	17027.686828
626.374899	16930.836180
626.721647	16804.338507
627.068343	16635.674102
627.414987	16577.068168
627.761577	16545.203034
628.108115	16579.472798
628.454600	16305.899461
628.801032	16395.639561
629.147412	16342.994792
629.493739	16341.270717
629.840014	16160.154662
630.186236	16252.064979
630.532405	16017.825245
630.878521	16212.796911
631.224585	16127.679549
631.570597	15932.392811
631.916556	15964.182327
632.262462	15939.276507
632.608316	15862.056112
632.954117	15807.520910
633.299866	15792.231090
633.645562	15707.917792
633.991206	15471.089425
634.336797	15342.086298
634.682336	15312.673686
635.027823	15180.522359
635.373257	15051.166351
635.718639	14972.310102
636.063968	14906.989351
