Dividing Wavelength (nm)	Counts (n)	Blue Motor Position (mm): 28.700000	Red Motor Position (mm): 0.000000	
326.493990	2209.051259
326.888308	2209.051259
327.282561	2209.051259
327.676750	2170.604900
328.070874	2165.188180
328.464933	2166.186328
328.858929	2169.531134
329.252859	2172.770075
329.646726	2184.705007
330.040528	2196.740762
330.434265	2209.305838
330.827938	2227.736296
331.221547	2245.065263
331.615091	2259.732500
332.008571	2280.549944
332.401986	2297.100053
332.795338	2317.294915
333.188625	2337.187308
333.581847	2355.300174
333.975006	2373.690303
334.368100	2392.574465
334.761129	2408.557443
335.154095	2427.265165
335.546996	2455.258693
335.939833	2490.196409
336.332606	2507.790036
336.725315	2520.007273
337.117960	2531.579241
337.510540	2543.609955
337.903056	2553.364588
338.295508	2563.595609
338.687896	2574.514749
339.080220	2578.129256
339.472480	2586.928590
339.864676	2590.482603
340.256807	2597.580548
340.648875	2598.571135
341.040879	2601.381578
341.432818	2607.231837
341.824694	2610.858947
342.216506	2609.991869
342.608253	2609.235696
342.999937	2612.416664
343.391557	2610.246447
343.783113	2611.557147
344.174605	2613.795419
344.566033	2609.712085
344.957397	2608.194697
345.348697	2608.464399
345.739934	2603.231682
346.131106	2605.280911
346.522215	2599.748244
346.913260	2602.052052
347.304241	2600.506938
347.695159	2596.211875
348.086012	2595.314549
348.476802	2593.121647
348.867528	2589.315576
349.258191	2585.943044
349.648789	2585.033116
350.039324	2580.009606
350.429796	2584.652509
350.820203	2582.840214
351.210548	2579.933989
351.600828	2580.995152
351.991045	2578.351067
352.381198	2577.196642
352.771288	2579.611355
353.161314	2577.330233
353.551276	2578.716550
353.941175	2577.604976
354.331010	2576.526169
354.720782	2578.106571
355.110490	2576.014492
355.500135	2574.860068
355.889717	2576.271591
356.279235	2578.557754
356.668689	2575.865778
357.058080	2575.419636
357.447408	2577.652867
357.836672	2576.362332
358.225873	2576.838721
358.615010	2577.562126
359.004084	2579.099678
359.393095	2578.449369
359.782043	2582.346181
360.170927	2581.098496
360.559748	2578.714030
360.948505	2581.705955
361.337199	2584.400451
361.725830	2582.031109
362.114398	2580.826273
362.502903	2582.018506
362.891344	2582.721747
363.279722	2583.908939
363.668037	2583.931624
364.056289	2581.088413
364.444478	2586.686615
364.832603	2586.023703
365.220665	2584.642427
365.608665	2585.189392
365.996601	2589.749116
366.384474	2588.080494
366.772284	2588.277099
367.160031	2589.660895
367.547715	2589.353385
367.935336	2588.927407
368.322893	2583.379618
368.710388	2588.408169
369.097820	2587.001687
369.485189	2586.399269
369.872495	2591.818509
370.259738	2590.240628
370.646918	2589.003025
371.034035	2592.587285
371.421090	2590.840525
371.808081	2592.461256
372.195010	2591.558890
372.581875	2595.080136
372.968678	2592.448653
373.355418	2591.601740
373.742096	2593.058633
374.128710	2595.826227
374.515262	2594.490321
374.901751	2595.795980
375.288177	2595.743047
375.674540	2593.313211
376.060841	2595.617019
376.447079	2597.721700
376.833254	2598.175404
377.219367	2594.714652
377.605417	2597.217585
377.991404	2594.520568
378.377329	2596.474015
378.763191	2598.500559
379.148991	2596.494179
379.534727	2597.951073
379.920402	2598.951742
380.306013	2597.908223
380.691563	2601.643718
381.077049	2598.442585
381.462474	2600.340580
381.847835	2596.030393
382.233134	2600.448965
382.618371	2598.659355
383.003545	2600.136413
383.388657	2598.568614
383.773706	2602.508276
384.158693	2601.575662
384.543618	2601.701691
384.928480	2601.389140
385.313280	2604.922989
385.698017	2601.684047
386.082692	2603.231682
386.467305	2603.962649
386.851856	2604.915427
387.236344	2605.028853
387.620770	2601.434510
388.005133	2599.591968
388.389435	2603.466095
388.773674	2598.782863
389.157851	2604.635643
389.541965	2604.744028
389.926018	2604.615478
390.310008	2605.522886
390.693936	2606.594131
391.077802	2606.137907
391.461606	2608.522372
391.845348	2607.138576
392.229027	2608.567743
392.612645	2607.347784
392.996200	2607.004985
393.379694	2608.580346
393.763125	2609.497836
394.146494	2609.243257
394.529801	2608.930706
394.913047	2610.306941
395.296230	2612.033536
395.679351	2610.372476
396.062410	2609.979266
396.445408	2610.193515
396.828343	2611.176540
397.211217	2612.673763
397.594028	2612.005810
397.976778	2616.068980
398.359466	2612.976232
398.742092	2612.532610
399.124656	2611.332816
399.507158	2614.654936
399.889598	2614.140738
400.271977	2614.659977
400.654294	2614.579319
401.036549	2614.801130
401.418742	2614.975049
401.800874	2615.766511
402.182944	2616.830194
402.564952	2617.402365
402.946898	2616.043774
403.328783	2617.863631
403.710606	2615.786675
404.092367	2618.410596
404.474067	2617.755246
404.855705	2619.242386
405.237282	2621.911677
405.618797	2619.481841
406.000250	2619.673405
406.381642	2619.905298
406.762972	2618.949999
407.144240	2617.752725
407.525447	2618.367746
407.906593	2615.743825
408.287677	2623.134157
408.668700	2621.117695
409.049661	2622.443519
409.430560	2624.086935
409.811399	2622.496451
410.192176	2622.980402
410.572891	2623.212295
410.953545	2625.117851
411.334138	2627.283027
411.714669	2624.374281
412.095139	2626.680609
412.475547	2626.317646
412.855894	2625.576596
413.236180	2626.257152
413.616405	2626.428551
413.996568	2628.162708
414.376670	2630.592544
414.756711	2627.615743
415.136691	2630.239663
415.516609	2631.200003
415.896466	2629.980044
416.276262	2629.299488
416.655997	2630.814355
417.035670	2631.736886
417.415283	2634.522123
417.794834	2635.278297
418.174324	2632.104890
418.553753	2633.234109
418.933121	2637.307361
419.312428	2634.940539
419.691674	2635.820221
420.070859	2636.909110
420.449983	2637.541775
420.829045	2639.424646
421.208047	2639.530510
421.586988	2639.432207
421.965867	2642.708957
422.344686	2641.317599
422.723444	2642.824904
423.102141	2640.599234
423.480777	2645.290028
423.859352	2642.272897
424.237866	2645.209370
424.616319	2645.942857
424.994712	2646.865389
425.373044	2648.629792
425.751314	2645.642909
426.129524	2646.280615
426.507673	2649.580050
426.885762	2646.935965
427.263789	2652.546769
427.641756	2653.928045
428.019662	2655.417706
428.397508	2659.778304
428.775292	2658.286123
429.153016	2665.217709
429.530679	2667.526558
429.908282	2668.887669
430.285824	2672.650891
430.663305	2682.087931
431.040726	2685.946934
431.418086	2692.649148
431.795385	2701.297247
432.172624	2709.521890
432.549802	2718.253168
432.926920	2735.408215
433.303977	2744.817528
433.680974	2767.727052
434.057910	2784.176337
434.434786	2811.103660
434.811601	2827.530260
435.188355	2867.909903
435.565050	2890.794220
435.941683	2919.022161
436.318257	2973.950574
436.694770	3015.585463
437.071222	3063.864594
437.447614	3107.261367
437.823946	3150.353150
438.200218	3217.526525
438.576429	3255.287287
438.952580	3338.299968
439.328670	3412.528438
439.704700	3458.458390
440.080670	3530.700646
440.456580	3670.315401
440.832429	3723.870099
441.208218	3744.153182
441.583947	3871.810321
441.959616	3983.514728
442.335224	4035.216802
442.710773	4151.334740
443.086261	4287.093013
443.461689	4240.270776
443.837057	4463.573727
444.212365	4633.490858
444.587612	4653.020288
444.962800	4823.418850
445.337927	4874.100090
445.712995	4858.464951
446.088002	5281.936998
446.462949	5295.386796
446.837837	5401.896295
447.212664	5528.146952
447.587431	5814.487011
447.962139	6198.650660
448.336786	7144.776935
448.711374	7583.143070
449.085901	6892.820065
449.460369	6854.819848
449.834776	6776.923938
450.209124	7288.454860
450.583412	7619.464584
450.957640	8226.873211
451.331808	8004.969180
451.705917	7655.561766
452.079965	7432.425173
452.453954	8060.542860
452.827883	7992.426789
453.201752	8295.130434
453.575562	8154.494844
453.949311	8525.843881
454.323001	8637.170202
454.696632	8909.405112
455.070202	9219.060508
455.443713	9500.941666
455.817164	9949.783319
456.190556	10090.368497
456.563888	10472.556014
456.937160	10739.444781
457.310373	10412.672148
457.683526	10600.422361
458.056619	10412.450337
458.429653	10623.591504
458.802628	10363.445281
459.175542	10731.348688
459.548398	11552.046014
459.921194	11936.174375
460.293930	12063.670197
460.666607	12901.850244
461.039224	13815.241786
461.411782	14504.879194
461.784280	14589.704169
462.156719	14774.611172
462.529099	14654.727492
462.901419	13869.668604
463.273680	13805.489674
463.645882	13785.413279
464.018024	13626.087612
464.390106	13922.341100
464.762130	14654.848480
465.134094	15352.808833
465.505999	17097.353053
465.877845	20107.415932
466.249631	22831.773938
466.621358	22788.750211
466.993026	21619.595728
467.364634	21226.373125
467.736184	19968.156578
468.107674	19276.585888
468.479105	19443.453121
468.850477	18997.311006
469.221790	18654.993974
469.593043	18060.825938
469.964238	17572.171772
470.335373	17293.317827
470.706449	17713.520685
471.077467	17298.933672
471.448425	19094.988403
471.819324	22982.955621
472.190164	25131.681913
472.560945	21772.171291
472.931667	19424.692467
473.302330	18807.153642
473.672934	18284.917829
474.043479	18694.428400
474.413965	18540.073311
474.784393	18186.824537
475.154761	18846.671247
475.525070	18899.336181
475.895321	18543.029947
476.265513	19131.241861
476.635645	19700.819148
477.005719	19516.701087
477.375734	19711.332475
477.745691	20199.999243
478.115588	20708.606296
478.485427	21217.147814
478.855207	22261.811002
479.224928	23998.410364
479.594591	26206.899535
479.964194	26320.144015
480.333739	26531.900203
480.703226	26098.736538
481.072653	25768.866115
481.442022	26317.255434
481.811333	27220.456283
482.180584	27167.733376
482.549777	26218.678191
482.918912	25865.406732
483.287988	25975.654246
483.657005	25689.407448
484.025964	25386.340841
484.394864	25342.266033
484.763706	25050.244593
485.132489	24473.503826
485.501213	24626.575942
485.869879	24560.844337
486.238487	24333.735315
486.607036	24507.934907
486.975527	24183.735782
487.343959	24522.140878
487.712333	24493.325643
488.080648	24151.782429
488.448905	24618.482369
488.817104	24365.403843
489.185244	25028.262642
489.553326	25003.868499
489.921350	25953.032068
490.289315	28206.200986
490.657222	30022.427893
491.025070	30521.764264
491.392861	30324.251856
491.760593	29486.979217
492.128267	28603.864845
492.495883	27567.839674
492.863440	26685.877206
493.230939	25812.381355
493.598380	25651.772714
493.965763	25252.687250
494.333088	24818.233049
494.700354	24734.197015
495.067563	24616.952379
495.434713	24387.189190
495.801805	24521.286403
496.168839	24354.638459
496.535815	24173.043495
496.902733	24374.898857
497.269593	24052.317943
497.636395	24230.069027
498.003139	24234.865685
498.369825	23963.961639
498.736453	24154.406349
499.103023	24045.608167
499.469535	24074.932559
499.835989	24267.174440
500.202385	24292.677638
500.568723	23798.369818
500.935003	24079.646038
501.301226	23646.494976
501.667390	24480.982378
502.033497	24729.763320
502.399546	24446.856287
502.765537	24032.869171
503.131470	24423.135137
503.497345	24554.043820
503.863163	23765.468727
504.228923	24386.407811
504.594625	24581.737399
504.960269	24094.066258
505.325856	24594.521765
505.691385	23996.593028
506.056856	24608.442912
506.422270	24574.858745
506.787625	24171.233721
507.152924	24566.008999
507.518164	24589.977165
507.883347	24396.595983
508.248472	24107.783238
508.613540	24871.737336
508.978550	24649.152749
509.343503	24630.586180
509.708398	24915.096300
510.073236	25058.628032
510.438016	25273.519818
510.802738	24957.164729
511.167403	25208.930034
511.532010	24887.085129
511.896561	25686.622211
512.261053	25657.655741
512.625488	25493.455278
512.989866	25389.902416
513.354186	25229.613888
513.718449	25329.738766
514.082655	25728.912451
514.446803	25454.663599
514.810894	25913.063280
515.174927	25394.315946
515.538904	25436.155003
515.902822	25918.404383
516.266684	25669.091598
516.630488	25569.831279
516.994235	25570.789098
517.357925	25859.087646
517.721558	26034.943257
518.085133	26121.134384
518.448651	26044.027416
518.812112	25774.350891
519.175516	25966.227288
519.538863	26131.849357
519.902152	25906.567753
520.265385	26205.140172
520.628560	25989.734189
520.991678	26003.529306
521.354739	26081.526039
521.717743	26139.733722
522.080690	25931.133296
522.443580	26262.800890
522.806413	26254.271258
523.169189	26342.307448
523.531908	26410.945278
523.894569	26008.096592
524.257174	26074.720481
524.619722	26273.636850
524.982213	25962.827030
525.344647	26033.572063
525.707025	26137.077033
526.069345	26143.547354
526.431608	26096.369716
526.793815	26286.627903
527.155964	25737.008544
527.518057	25913.542190
527.880093	25831.530178
528.242072	26059.380250
528.603995	25775.046570
528.965860	25579.152373
529.327669	25614.833660
529.689421	25608.930468
530.051117	25440.404695
530.412755	25612.650840
530.774337	25426.165956
531.135862	25294.990092
531.497331	25491.098538
531.858743	25043.091196
532.220098	25520.838826
532.581396	25204.420722
532.942638	25141.539890
533.303824	25234.319806
533.664953	25259.558342
534.026025	24926.454020
534.387040	25155.458515
534.747999	25227.289917
535.108902	25380.929162
535.469748	24860.435069
535.830537	25064.735390
536.191270	25176.838049
536.551947	25053.879265
536.912567	24726.927671
537.273131	25045.861310
537.633638	24756.879687
537.994089	24967.660411
538.354483	24515.599981
538.714821	25010.336299
539.075103	25040.421905
539.435328	24849.672205
539.795497	24390.778491
540.155609	24798.363342
540.515665	25094.982313
540.875665	24327.413708
541.235609	24617.118737
541.595496	24580.582975
541.955328	24942.444560
542.315102	24859.313412
542.674821	24412.846142
543.034483	24280.334372
543.394090	24451.577327
543.753640	24240.078238
544.113134	24872.584250
544.472571	24461.982269
544.831953	24768.655822
545.191278	24376.587643
545.550548	24311.282016
545.909761	24517.976885
546.268918	24739.767490
546.628019	24711.526946
546.987064	24417.819241
547.346053	24172.907384
547.704986	24299.576457
548.063863	24446.200937
548.422684	24449.916267
548.781449	23997.044211
549.140158	24401.639657
549.498811	23970.500016
549.857408	23710.668864
550.215949	24151.747141
550.574434	23835.873482
550.932864	24049.610843
551.291237	24188.098901
551.649555	24060.799684
552.007817	24119.561894
552.366022	23994.858871
552.724173	24032.463358
553.082267	23965.612617
553.440305	24454.531443
553.798288	23701.471279
554.156215	24232.221600
554.514086	24319.758716
554.871902	23689.496018
555.229661	23963.979283
555.587365	23844.755995
555.945014	23682.186345
556.302606	23941.974647
556.660143	23889.738211
557.017625	24144.886130
557.375050	23671.209233
557.732421	24069.137753
558.089735	23877.347054
558.446994	23939.136477
558.804197	23951.167191
559.161345	23905.660695
559.518437	23662.752697
559.875474	23856.620350
560.232455	24038.059039
560.589381	23861.989179
560.946251	23845.214740
561.303065	24163.752648
561.659825	24255.526854
562.016528	23852.126162
562.373177	23604.746660
562.729770	23946.335245
563.086307	23821.233971
563.442789	23987.609692
563.799216	23814.289782
564.155587	23824.961904
564.511904	23805.316528
564.868164	23739.274892
565.224370	23715.997364
565.580520	23629.355053
565.936615	23766.620631
566.292654	23448.337300
566.648638	23755.366255
567.004567	23575.558379
567.360441	23523.125338
567.716260	23246.353389
568.072023	23573.904881
568.427732	23330.218025
568.783385	23116.067289
569.138982	23348.782074
569.494525	23384.027301
569.850013	23133.396255
570.205445	23222.037384
570.560823	23039.088869
570.916145	22798.230100
571.271412	22981.730621
571.626625	22734.063774
571.981782	22846.254652
572.336884	22649.606803
572.691931	22779.691257
573.046923	22514.831555
573.401860	22391.817318
573.756743	22402.149163
574.111570	22318.629847
574.466342	22238.679668
574.821059	22328.059325
575.175722	22038.298843
575.530330	22016.606758
575.884882	22048.237478
576.239380	21953.748611
576.593823	21846.689627
576.948211	21823.679280
577.302544	21658.127788
577.656823	21539.799304
578.011047	21642.505252
578.365216	21514.553206
578.719330	21389.701469
579.073389	21293.652365
579.427394	21435.218047
579.781344	21210.470806
580.135239	21093.198444
580.489080	21057.076056
580.842866	20825.084676
581.196597	21017.840755
581.550273	20994.621201
581.903895	20894.771067
582.257463	21206.165660
582.610975	20727.833257
582.964434	21041.687934
583.317837	20743.163406
583.671186	20838.710915
584.024481	20805.230092
584.377721	20583.076524
584.730906	20633.180552
585.084037	20656.614356
585.437113	20558.747916
585.790135	20766.372878
586.143103	20230.722556
586.496016	20246.637478
586.848874	20486.563634
587.201679	20420.824467
587.554428	20098.180539
587.907124	20431.461302
588.259765	20214.013651
588.612352	20288.466452
588.964884	19846.057311
589.317362	20022.354023
589.669786	20071.291024
590.022155	20106.901735
590.374470	20304.860285
590.726731	20097.429407
591.078937	19868.117401
591.431090	19963.990064
591.783188	19710.016734
592.135232	19673.259160
592.487222	19779.156159
592.839157	19802.244643
593.191038	19685.993115
593.542866	19567.868798
593.894639	19289.294637
594.246358	19499.331791
594.598022	19408.911135
594.949633	19164.954577
595.301190	19131.410739
595.652692	19292.730183
596.004141	19542.232010
596.355535	18872.277787
596.706876	18880.063850
597.058162	18770.917828
597.409395	18990.225664
597.760573	19078.967616
598.111698	18844.039764
598.462768	18786.641187
598.813785	18755.007946
599.164748	18569.919462
599.515657	18603.939689
599.866511	18399.856137
600.217312	18759.509697
600.568060	18278.255945
600.918753	18588.211289
601.269392	18497.165530
601.619978	18270.424512
601.970510	18488.661103
602.320988	18430.589532
602.671412	18636.934041
603.021783	18549.003715
603.372100	18274.270913
603.722363	18418.362213
604.072572	18346.818157
604.422728	18505.790944
604.772830	18255.885824
605.122878	18198.837607
605.472872	18197.753759
605.822813	18184.223302
606.172701	18152.259866
606.522534	18350.525926
606.872314	18371.388741
607.222041	18206.585860
607.571714	18430.597093
607.921333	18252.921626
608.270899	18325.647832
608.620411	18509.692797
608.969870	18266.426877
609.319276	18273.005583
609.668627	18300.827711
610.017926	18443.189896
610.367171	18556.227688
610.716362	18607.115616
611.065500	18415.110669
611.414585	18556.368841
611.763616	18535.047280
612.112594	18476.484196
612.461518	18439.330892
612.810389	18638.090986
613.159207	18487.587338
613.507971	18403.097599
613.856682	18682.594292
614.205340	18611.133415
614.553945	18765.596890
614.902496	18486.992481
615.250994	18734.104802
615.599439	18674.964505
615.947830	18658.429521
616.296169	18712.485813
616.644454	18671.712961
616.992686	18636.487899
617.340864	18854.928657
617.688990	18613.235577
618.037063	18793.124110
618.385082	18635.121746
618.733048	18913.108613
619.080961	18784.942318
619.428821	18823.935643
619.776628	18709.917346
620.124382	18634.536972
620.472083	18673.686573
620.819731	18698.312609
621.167326	18391.719715
621.514868	18429.672042
621.862357	18194.096402
622.209793	18211.737920
622.557176	18041.704842
622.904506	17872.596815
623.251783	17783.096170
623.599007	17528.467489
623.946179	17496.597314
624.293297	17429.058456
624.640363	17183.092998
624.987376	17202.367850
625.334336	16996.693814
625.681243	16834.507292
626.028097	16845.693612
626.374899	16772.538908
626.721647	16638.539998
627.068343	16477.528064
627.414987	16397.156949
627.761577	16380.899227
628.108115	16422.534117
628.454600	16145.913403
628.801032	16237.551497
629.147412	16169.594223
629.493739	16189.781523
629.840014	16000.665158
630.186236	16109.193638
630.532405	15864.052409
630.878521	16058.461986
631.224585	15947.062569
631.570597	15770.801145
631.916556	15799.518078
632.262462	15792.462983
632.608316	15699.431009
632.954117	15649.238761
633.299866	15637.094622
633.645562	15565.648869
633.991206	15318.589480
634.336797	15185.213152
634.682336	15161.723896
635.027823	15041.963725
635.373257	14925.775211
635.718639	14815.850331
636.063968	14772.776192
636.409245	14526.934242
636.754470	14551.214960
