Dividing Wavelength (nm)	Counts (n)	Blue Motor Position (mm): 5.000000	Red Motor Position (mm): 0.000000	
326.493990	2158.241470
326.888308	2158.241470
327.282561	2158.241470
327.676750	2119.696808
328.070874	2113.745725
328.464933	2117.914760
328.858929	2118.789400
329.252859	2126.855246
329.646726	2131.561163
330.040528	2144.179171
330.434265	2158.342293
330.827938	2176.029181
331.221547	2193.075843
331.615091	2210.288863
332.008571	2229.233519
332.401986	2248.294122
332.795338	2265.592841
333.188625	2285.265944
333.581847	2304.084571
333.975006	2321.635348
334.368100	2339.571774
334.761129	2357.183045
335.154095	2371.852802
335.546996	2388.216388
335.939833	2403.992679
336.332606	2422.833991
336.725315	2435.996444
337.117960	2447.215532
337.510540	2460.466205
337.903056	2469.245374
338.295508	2481.875985
338.687896	2488.608446
339.080220	2494.922491
339.472480	2502.791732
339.864676	2507.895901
340.256807	2514.504853
340.648875	2515.858403
341.040879	2518.769669
341.432818	2524.360309
341.824694	2524.836698
342.216506	2522.754702
342.608253	2526.076822
342.999937	2529.532533
343.391557	2527.876514
343.783113	2527.954652
344.174605	2529.083870
344.566033	2524.572038
344.957397	2525.769312
345.348697	2523.692356
345.739934	2523.374763
346.131106	2516.891840
346.522215	2516.894360
346.913260	2514.640964
347.304241	2513.385717
347.695159	2510.789523
348.086012	2507.933709
348.476802	2509.360356
348.867528	2503.172339
349.258191	2499.676299
349.648789	2500.845847
350.039324	2495.920640
350.429796	2500.669407
350.820203	2498.867194
351.210548	2496.855774
351.600828	2496.865856
351.991045	2494.856956
352.381198	2497.102790
352.771288	2493.873931
353.161314	2493.669764
353.551276	2494.778818
353.941175	2490.372850
354.331010	2493.463077
354.720782	2491.756647
355.110490	2491.265134
355.500135	2492.661534
355.889717	2492.898468
356.279235	2493.268993
356.668689	2494.617501
357.058080	2492.071719
357.447408	2491.817140
357.836672	2490.592140
358.225873	2494.680516
358.615010	2492.656493
359.004084	2495.517347
359.393095	2492.626246
359.782043	2497.143119
360.170927	2494.819148
360.559748	2498.937770
360.948505	2495.265290
361.337199	2496.210506
361.725830	2495.272851
362.114398	2496.898623
362.502903	2496.886021
362.891344	2497.619508
363.279722	2499.144457
363.668037	2501.970024
364.056289	2502.302740
364.444478	2500.137565
364.832603	2499.744355
365.220665	2502.428769
365.608665	2501.717967
365.996601	2503.971362
366.384474	2501.690240
366.772284	2504.745179
367.160031	2504.271311
367.547715	2504.959428
367.935336	2501.786022
368.322893	2503.275683
368.710388	2502.753924
369.097820	2500.250991
369.485189	2500.540857
369.872495	2508.256343
370.259738	2503.633605
370.646918	2506.708709
371.034035	2508.780623
371.421090	2507.114522
371.808081	2507.905983
372.195010	2507.754748
372.581875	2505.992865
372.968678	2507.848010
373.355418	2507.033863
373.742096	2511.200377
374.128710	2507.699296
374.515262	2509.725839
374.901751	2507.366579
375.288177	2508.233658
375.674540	2508.500839
376.060841	2511.419667
376.447079	2510.600480
376.833254	2512.921931
377.219367	2509.907321
377.605417	2508.314316
377.991404	2510.058556
378.377329	2509.090654
378.763191	2513.020233
379.148991	2513.143742
379.534727	2511.568381
379.920402	2510.053514
380.306013	2509.967815
380.691563	2511.429749
381.077049	2510.834893
381.462474	2511.414626
381.847835	2512.203567
382.233134	2513.363032
382.618371	2512.780779
383.003545	2513.413443
383.388657	2514.434277
383.773706	2514.981242
384.158693	2514.058711
384.543618	2514.966119
384.928480	2514.661129
385.313280	2515.056860
385.698017	2514.124246
386.082692	2515.034174
386.467305	2512.037208
386.851856	2515.535769
387.236344	2516.848990
387.620770	2514.235152
388.005133	2510.214831
388.389435	2513.385717
388.773674	2511.664163
389.157851	2513.940244
389.541965	2515.092148
389.926018	2516.276819
390.310008	2514.983763
390.693936	2517.161541
391.077802	2519.553569
391.461606	2517.622807
391.845348	2518.331089
392.229027	2519.304032
392.612645	2518.983918
392.996200	2520.836543
393.379694	2518.784793
393.763125	2518.555420
394.146494	2520.995339
394.529801	2518.515091
394.913047	2519.392252
395.296230	2519.568692
395.679351	2518.787313
396.062410	2520.158507
396.445408	2520.130781
396.828343	2521.610360
397.211217	2520.486182
397.594028	2521.726306
397.976778	2521.456604
398.359466	2520.304701
398.742092	2521.101203
399.124656	2520.599608
399.507158	2520.813857
399.889598	2523.578930
400.271977	2521.887623
400.654294	2522.248066
401.036549	2521.171779
401.418742	2523.954496
401.800874	2523.546163
402.182944	2520.128260
402.564952	2522.938704
402.946898	2525.847449
403.328783	2522.800072
403.710606	2522.653878
404.092367	2523.470545
404.474067	2525.159332
404.855705	2522.268230
405.237282	2522.306039
405.618797	2523.899043
406.000250	2524.914836
406.381642	2524.183869
406.762972	2523.576410
407.144240	2521.484331
407.525447	2525.371060
407.906593	2520.622293
408.287677	2524.718231
408.668700	2526.099507
409.049661	2526.533046
409.430560	2525.378622
409.811399	2526.046575
410.192176	2525.071112
410.572891	2526.626308
410.953545	2525.348375
411.334138	2528.418438
411.714669	2524.998015
412.095139	2529.093953
412.475547	2526.679240
412.855894	2529.872811
413.236180	2526.936339
413.616405	2524.957686
413.996568	2527.881555
414.376670	2530.533202
414.756711	2527.551359
415.136691	2527.856349
415.516609	2527.168232
415.896466	2527.924405
416.276262	2526.575896
416.655997	2529.648479
417.035670	2525.993643
417.415283	2530.248377
417.794834	2526.984230
418.174324	2528.191586
418.553753	2529.267872
418.933121	2529.739220
419.312428	2528.912471
419.691674	2529.862728
420.070859	2529.565300
420.449983	2528.047913
420.829045	2531.712832
421.208047	2527.705115
421.586988	2529.681247
421.965867	2529.850126
422.344686	2529.293078
422.723444	2528.680578
423.102141	2530.127389
423.480777	2530.911288
423.859352	2529.754344
424.237866	2533.502442
424.616319	2529.282996
424.994712	2534.162833
425.373044	2530.518078
425.751314	2530.460105
426.129524	2529.023376
426.507673	2530.976823
426.885762	2527.178314
427.263789	2531.871628
427.641756	2532.569828
428.019662	2532.625281
428.397508	2533.651156
428.775292	2532.960518
429.153016	2532.816845
429.530679	2531.964890
429.908282	2532.479087
430.285824	2533.268028
430.663305	2534.747607
431.040726	2533.414221
431.418086	2534.772812
431.795385	2534.233409
432.172624	2533.966228
432.549802	2533.953625
432.926920	2533.638553
433.303977	2534.614016
433.680974	2532.600075
434.057910	2534.946732
434.434786	2532.511855
434.811601	2533.532688
435.188355	2532.277441
435.565050	2536.063348
435.941683	2531.853984
436.318257	2535.097967
436.694770	2532.746268
437.071222	2533.741896
437.447614	2533.038655
437.823946	2537.986548
438.200218	2534.588810
438.576429	2538.359593
438.952580	2532.937832
439.328670	2536.796836
439.704700	2535.304654
440.080670	2535.423121
440.456580	2534.825744
440.832429	2537.053934
441.208218	2536.980838
441.583947	2538.415046
441.959616	2534.689633
442.335224	2540.239944
442.710773	2536.874973
443.086261	2535.100487
443.461689	2537.558050
443.837057	2536.479243
444.212365	2536.794315
444.587612	2533.499921
444.962800	2532.484128
445.337927	2534.240971
445.712995	2534.850950
446.088002	2537.558050
446.462949	2536.491846
446.837837	2538.818338
447.212664	2537.910931
447.587431	2537.757175
447.962139	2539.264480
448.336786	2538.871270
448.711374	2538.765406
449.085901	2539.219110
449.460369	2537.585776
449.834776	2538.210879
450.209124	2538.704912
450.583412	2541.580891
450.957640	2538.757844
451.331808	2539.080478
451.705917	2538.815818
452.079965	2539.912269
452.453954	2535.549150
452.827883	2537.056455
453.201752	2539.302289
453.575562	2538.530992
453.949311	2541.129707
454.323001	2540.204656
454.696632	2537.336239
455.070202	2539.869419
455.443713	2540.156765
455.817164	2539.682896
456.190556	2540.144162
456.563888	2540.875129
456.937160	2540.166847
457.310373	2541.306148
457.683526	2541.094419
458.056619	2539.118287
458.429653	2540.307999
458.802628	2543.365459
459.175542	2540.920499
459.548398	2541.086858
459.921194	2539.922351
460.293930	2538.160468
460.666607	2540.703730
461.039224	2543.942671
461.411782	2540.363452
461.784280	2541.021322
462.156719	2541.911086
462.529099	2540.897814
462.901419	2541.285983
463.273680	2539.662732
463.645882	2536.343132
464.018024	2538.707433
464.390106	2537.558050
464.762130	2540.320602
465.134094	2542.808412
465.505999	2540.154244
465.877845	2542.024512
466.249631	2542.732794
466.621358	2542.889070
466.993026	2544.040974
467.364634	2544.837476
467.736184	2542.987373
468.107674	2541.885880
468.479105	2541.530479
468.850477	2541.200283
469.221790	2545.966694
469.593043	2540.434028
469.964238	2542.102650
470.335373	2541.729605
470.706449	2540.307999
471.077467	2541.525438
471.448425	2542.702547
471.819324	2542.463092
472.190164	2545.512991
472.560945	2545.331509
472.931667	2541.018802
473.302330	2542.342105
473.672934	2542.727753
474.043479	2542.732794
474.413965	2543.070552
474.784393	2543.602393
475.154761	2543.262115
475.525070	2543.945192
475.895321	2543.738504
476.265513	2541.394368
476.635645	2547.395862
477.005719	2543.178936
477.375734	2544.167002
477.745691	2542.266488
478.115588	2544.396375
478.485427	2546.606921
478.855207	2548.545245
479.224928	2544.625747
479.594591	2544.043494
479.964194	2545.099616
480.333739	2543.156251
480.703226	2545.639019
481.072653	2543.511652
481.442022	2546.160779
481.811333	2541.974101
482.180584	2542.642053
482.549777	2539.584594
482.918912	2538.672145
483.287988	2541.033925
483.657005	2545.573484
484.025964	2543.927548
484.394864	2545.306303
484.763706	2541.333874
485.132489	2542.475695
485.501213	2549.195553
485.869879	2546.672456
486.238487	2545.291180
486.607036	2544.749256
486.975527	2543.773793
487.343959	2543.219266
487.712333	2545.568443
488.080648	2543.723381
488.448905	2547.463917
488.817104	2546.193546
489.185244	2545.807898
489.553326	2544.935778
489.921350	2543.524255
490.289315	2543.375541
490.657222	2546.601880
491.025070	2543.499050
491.392861	2544.839997
491.760593	2544.880326
492.128267	2544.766900
492.495883	2547.479041
492.863440	2548.388969
493.230939	2541.825387
493.598380	2549.157745
493.965763	2544.451828
494.333088	2544.020809
494.700354	2545.838145
495.067563	2545.364277
495.434713	2546.125491
495.801805	2543.491488
496.168839	2546.281767
496.535815	2547.431150
496.902733	2546.438042
497.269593	2545.618855
497.636395	2545.291180
498.003139	2546.380069
498.369825	2545.870912
498.736453	2547.151366
499.103023	2541.527958
499.469535	2548.462066
499.835989	2545.689431
500.202385	2543.108360
500.568723	2539.977804
500.935003	2543.675490
501.301226	2542.548792
501.667390	2546.009544
502.033497	2547.542055
502.399546	2544.671118
502.765537	2548.305790
503.131470	2546.266643
503.497345	2545.850748
503.863163	2545.276056
504.228923	2547.390820
504.594625	2545.470141
504.960269	2550.281922
505.325856	2546.344781
505.691385	2546.223793
506.056856	2543.622558
506.422270	2547.511808
506.787625	2548.908208
507.152924	2547.090872
507.518164	2549.467776
507.883347	2546.644730
508.248472	2549.707231
508.613540	2548.520039
508.978550	2547.710934
509.343503	2546.674977
509.708398	2546.385110
510.073236	2546.226314
510.438016	2547.622713
510.802738	2547.741181
511.167403	2545.162630
511.532010	2548.111705
511.896561	2547.819318
512.261053	2546.236396
512.625488	2545.452497
512.989866	2546.281767
513.354186	2547.630275
513.718449	2546.753114
514.082655	2547.274874
514.446803	2548.265461
514.810894	2548.855276
515.174927	2546.735470
515.538904	2550.007179
515.902822	2545.979297
516.266684	2546.372507
516.630488	2548.056253
516.994235	2546.874102
517.357925	2546.238917
517.721558	2549.308979
518.085133	2549.455173
518.448651	2543.473844
518.812112	2543.771272
519.175516	2545.974256
519.538863	2543.937630
519.902152	2547.353012
520.265385	2549.356870
520.628560	2548.648588
520.991678	2548.313352
521.354739	2549.344268
521.717743	2548.777138
522.080690	2545.480223
522.443580	2548.827549
522.806413	2547.647919
523.169189	2547.784030
523.531908	2549.555996
523.894569	2547.025337
524.257174	2549.503064
524.619722	2547.809236
524.982213	2548.406613
525.344647	2548.482230
525.707025	2551.426264
526.069345	2546.478372
526.431608	2548.431819
526.793815	2549.137580
527.155964	2549.601366
527.518057	2548.666232
527.880093	2548.623382
528.242072	2549.266130
528.603995	2548.739329
528.965860	2550.523897
529.327669	2551.300235
529.689421	2548.366284
530.051117	2549.039278
530.412755	2548.240255
530.774337	2549.256047
531.135862	2548.943496
531.497331	2548.709082
531.858743	2548.714123
532.220098	2549.619010
532.581396	2547.453835
532.942638	2549.906356
533.303824	2549.006510
533.664953	2551.426264
534.026025	2547.473999
534.387040	2550.188661
534.747999	2548.877961
535.108902	2549.117416
535.469748	2546.299411
535.830537	2550.108002
536.191270	2548.890564
536.551947	2545.356715
536.912567	2543.670449
537.273131	2546.939637
537.633638	2545.001313
537.994089	2548.325954
538.354483	2547.607590
538.714821	2549.243444
539.075103	2550.360060
539.435328	2552.966337
539.795497	2552.323589
540.155609	2547.658002
540.515665	2548.514998
540.875665	2551.355688
541.235609	2548.663712
541.595496	2549.442570
541.955328	2547.731098
542.315102	2548.784699
542.674821	2550.584391
543.034483	2549.886192
543.394090	2547.993238
543.753640	2548.162117
544.113134	2551.358208
544.472571	2548.162117
544.831953	2549.966850
545.191278	2552.542880
545.550548	2548.104144
545.909761	2548.809905
546.268918	2548.658671
546.628019	2549.918959
546.987064	2548.411654
547.346053	2548.429298
547.704986	2548.953578
548.063863	2550.808723
548.422684	2549.009031
548.781449	2548.399051
549.140158	2549.550955
549.498811	2548.756973
549.857408	2550.874258
550.215949	2547.405944
550.574434	2551.743857
550.932864	2547.882333
551.291237	2550.113043
551.649555	2552.227807
552.007817	2549.608928
552.366022	2552.464742
552.724173	2547.199257
553.082267	2547.799154
553.440305	2548.305790
553.798288	2551.128836
554.156215	2549.732436
554.514086	2546.417878
554.871902	2545.389482
555.229661	2546.591797
555.587365	2543.678011
555.945014	2549.238403
556.302606	2552.558003
556.660143	2550.123126
557.017625	2552.787376
557.375050	2549.840821
557.732421	2549.931562
558.089735	2547.479041
558.446994	2548.734288
558.804197	2550.523897
559.161345	2548.792261
559.518437	2550.410472
559.875474	2546.753114
560.232455	2550.629762
560.589381	2550.639844
560.946251	2547.325285
561.303065	2546.906870
561.659825	2550.886861
562.016528	2548.325954
562.373177	2549.409803
562.729770	2548.643547
563.086307	2549.583722
563.442789	2551.149001
563.799216	2550.917107
564.155587	2551.834597
564.511904	2551.128836
564.868164	2549.487940
565.224370	2549.069525
565.580520	2549.296377
565.936615	2551.247303
566.292654	2551.093548
566.648638	2549.611449
567.004567	2551.466593
567.360441	2548.416695
567.716260	2548.988866
568.072023	2549.525749
568.427732	2551.446429
568.783385	2550.211346
569.138982	2547.957950
569.494525	2551.816953
569.850013	2549.762683
570.205445	2549.097251
570.560823	2547.088351
570.916145	2550.090358
571.271412	2548.020965
571.626625	2550.334854
571.981782	2549.717313
572.336884	2546.735470
572.691931	2548.159596
573.046923	2547.640357
573.401860	2543.284801
573.756743	2548.429298
574.111570	2549.167827
574.466342	2552.152190
574.821059	2548.532642
575.175722	2550.002138
575.530330	2550.060111
575.884882	2550.516336
576.239380	2549.760163
576.593823	2551.108671
576.948211	2548.908208
577.302544	2549.626572
577.656823	2549.099772
578.011047	2551.554813
578.365216	2549.997097
578.719330	2547.894936
579.073389	2549.873589
579.427394	2550.823846
579.781344	2552.154711
580.135239	2551.297715
580.489080	2550.165976
580.842866	2548.883002
581.196597	2549.364432
581.550273	2548.204967
581.903895	2552.426933
582.257463	2551.948023
582.610975	2551.385935
582.964434	2551.335523
583.317837	2548.489792
583.671186	2550.312169
584.024481	2550.687735
584.377721	2551.343085
584.730906	2550.970040
585.084037	2550.886861
585.437113	2551.496840
585.790135	2550.269319
586.143103	2552.510112
586.496016	2552.235369
586.848874	2552.051367
587.201679	2554.599670
587.554428	2549.145142
587.907124	2547.085831
588.259765	2552.126984
588.612352	2551.287632
588.964884	2547.831921
589.317362	2551.776624
589.669786	2552.119423
590.022155	2550.292004
590.374470	2548.792261
590.726731	2549.082127
591.078937	2545.409647
591.431090	2553.248641
591.783188	2549.561037
592.135232	2550.506253
592.487222	2549.878630
592.839157	2550.826367
593.191038	2551.592622
593.542866	2551.338044
593.894639	2549.951727
594.246358	2549.903836
594.598022	2551.496840
594.949633	2549.334185
595.301190	2550.531459
595.652692	2547.849565
596.004141	2547.428629
596.355535	2546.458207
596.706876	2550.158414
597.058162	2551.385935
597.409395	2547.703372
597.760573	2551.625390
598.111698	2552.260575
598.462768	2550.453321
598.813785	2549.687066
599.164748	2550.440718
599.515657	2549.901315
599.866511	2549.220759
600.217312	2549.293856
600.568060	2549.215718
600.918753	2551.325441
601.269392	2551.022972
601.619978	2549.530790
601.970510	2548.610780
602.320988	2548.779658
602.671412	2546.642209
603.021783	2552.802499
603.372100	2549.561037
603.722363	2551.257385
604.072572	2552.089176
604.422728	2552.406768
604.772830	2552.754608
605.122878	2550.914587
605.472872	2549.850903
605.822813	2550.760832
606.172701	2550.463404
606.522534	2552.086655
606.872314	2551.882488
607.222041	2552.908363
607.571714	2546.490974
607.921333	2547.489123
608.270899	2550.213867
608.620411	2547.529452
608.969870	2552.558003
609.319276	2552.444577
609.668627	2560.777604
610.017926	2563.220043
610.367171	2565.286917
610.716362	2564.840774
611.065500	2564.107287
611.414585	2561.538819
611.763616	2558.004970
612.112594	2554.576985
612.461518	2554.145967
612.810389	2553.989691
613.159207	2555.769218
613.507971	2554.723179
613.856682	2554.435833
614.205340	2551.663198
614.553945	2556.432130
614.902496	2553.662016
615.250994	2552.860472
615.599439	2550.796120
615.947830	2553.195709
616.296169	2552.129505
616.644454	2552.394166
616.992686	2551.219577
617.340864	2550.082797
617.688990	2552.497509
618.037063	2547.625234
618.385082	2552.462221
618.733048	2550.067673
619.080961	2552.530277
619.428821	2552.694114
619.776628	2550.907025
620.124382	2555.423899
620.472083	2551.874927
620.819731	2551.562375
621.167326	2550.125646
621.514868	2551.401058
621.862357	2551.300235
622.209793	2552.391645
622.557176	2550.246634
622.904506	2552.696635
623.251783	2552.189999
623.599007	2550.942313
623.946179	2551.146480
624.293297	2552.628579
624.640363	2553.016748
624.987376	2548.827549
625.334336	2546.541386
625.681243	2549.568599
626.028097	2544.779503
626.374899	2552.240410
626.721647	2553.430123
627.068343	2550.057591
627.414987	2551.582540
627.761577	2551.005328
628.108115	2551.774104
628.454600	2553.692263
628.801032	2552.295863
629.147412	2551.171686
629.493739	2552.184958
629.840014	2551.527087
630.186236	2551.776624
630.532405	2554.670247
630.878521	2549.936603
631.224585	2552.184958
631.570597	2550.090358
631.916556	2550.813764
632.262462	2550.518856
632.608316	2549.014072
632.954117	2550.412992
633.299866	2553.193188
633.645562	2553.309135
633.991206	2550.382745
634.336797	2549.150183
634.682336	2551.060780
635.027823	2550.186140
635.373257	2551.166645
635.718639	2548.542724
636.063968	2550.574309
636.409245	2552.805020
636.754470	2551.133877
637.099642	2550.415513
637.444762	2552.646223
637.789829	2549.377035
638.134845	2549.709751
638.479808	2550.342416
638.824719	2551.751418
639.169577	2551.275029
639.514383	2550.914587
639.859137	2548.749411
640.203839	2549.757642
640.548489	2547.665563
640.893086	2552.142108
641.237632	2550.854093
641.582125	2553.127653
641.926566	2551.353167
642.270955	2545.364277
642.615292	2546.735470
642.959576	2546.317055
643.303809	2543.304965
643.647990	2549.855945
643.992118	2551.559855
644.336195	2548.000800
