Dividing Wavelength (nm)	Counts (n)	Blue Motor Position (mm): 16.000000	Red Motor Position (mm): 0.000000	
326.493990	2175.121773
326.888308	2175.121773
327.282561	2175.121773
327.676750	2134.104425
328.070874	2132.277007
328.464933	2130.419342
328.858929	2136.239354
329.252859	2140.378141
329.646726	2148.557413
330.040528	2161.611481
330.434265	2174.317709
330.827938	2191.949145
331.221547	2207.972453
331.615091	2225.913919
332.008571	2244.687176
332.401986	2261.519589
332.795338	2282.984822
333.188625	2300.223047
333.581847	2320.148208
333.975006	2337.152020
334.368100	2352.409072
334.761129	2372.820704
335.154095	2393.277706
335.546996	2412.323185
335.939833	2439.835282
336.332606	2454.671398
336.725315	2468.118676
337.117960	2482.092755
337.510540	2490.942500
337.903056	2502.101094
338.295508	2514.179699
338.687896	2520.551717
339.080220	2528.978006
339.472480	2530.853315
339.864676	2539.151054
340.256807	2549.457693
340.648875	2549.702189
341.040879	2552.381563
341.432818	2555.557490
341.824694	2557.379867
342.216506	2563.341031
342.608253	2560.129816
342.999937	2560.517985
343.391557	2560.127296
343.783113	2560.021431
344.174605	2558.753581
344.566033	2559.688715
344.957397	2557.757953
345.348697	2555.381049
345.739934	2554.980278
346.131106	2551.514484
346.522215	2554.085473
346.913260	2547.295038
347.304241	2549.893753
347.695159	2544.066179
348.086012	2546.001982
348.476802	2540.048380
348.867528	2535.531506
349.258191	2530.608819
349.648789	2532.340456
350.039324	2530.689478
350.429796	2533.588141
350.820203	2534.384643
351.210548	2531.566638
351.600828	2528.040351
351.991045	2529.335928
352.381198	2525.615556
352.771288	2529.787111
353.161314	2526.969106
353.551276	2524.524147
353.941175	2527.740403
354.331010	2525.930628
354.720782	2528.630166
355.110490	2525.350896
355.500135	2525.928108
355.889717	2528.504138
356.279235	2524.057840
356.668689	2524.158663
357.058080	2525.113962
357.447408	2525.451719
357.836672	2526.391894
358.225873	2527.765608
358.615010	2525.615556
359.004084	2525.905423
359.393095	2527.435413
359.782043	2526.142357
360.170927	2528.055475
360.559748	2533.625950
360.948505	2528.151257
361.337199	2531.811134
361.725830	2528.216792
362.114398	2531.579241
362.502903	2533.164684
362.891344	2532.952956
363.279722	2531.569159
363.668037	2533.648635
364.056289	2530.792821
364.444478	2532.206865
364.832603	2535.702905
365.220665	2535.201310
365.608665	2535.954963
365.996601	2537.119469
366.384474	2535.160981
366.772284	2535.937319
367.160031	2535.405477
367.547715	2538.530993
367.935336	2535.914634
368.322893	2535.294572
368.710388	2536.575025
369.097820	2536.985879
369.485189	2533.010929
369.872495	2539.748431
370.259738	2537.767258
370.646918	2540.302958
371.034035	2539.201466
371.421090	2540.169367
371.808081	2541.356559
372.195010	2543.040305
372.581875	2538.767927
372.968678	2539.776158
373.355418	2542.236241
373.742096	2541.787578
374.128710	2544.545089
374.515262	2543.206663
374.901751	2544.310675
375.288177	2542.821014
375.674540	2542.289173
376.060841	2541.772454
376.447079	2544.151879
376.833254	2544.169523
377.219367	2542.435366
377.605417	2542.513504
377.991404	2545.737322
378.377329	2542.120294
378.763191	2544.850079
379.148991	2545.533155
379.534727	2544.655994
379.920402	2547.105995
380.306013	2544.532486
380.691563	2547.070707
381.077049	2543.942671
381.462474	2547.458876
381.847835	2547.887374
382.233134	2547.758825
382.618371	2548.126829
383.003545	2546.732950
383.388657	2545.286139
383.773706	2547.073228
384.158693	2549.069525
384.543618	2546.329657
384.928480	2545.288659
385.313280	2545.707075
385.698017	2550.029864
386.082692	2546.367466
386.467305	2548.903167
386.851856	2547.685728
387.236344	2548.557847
387.620770	2546.818649
388.005133	2545.495347
388.389435	2546.879143
388.773674	2544.040974
389.157851	2549.145142
389.541965	2550.191181
389.926018	2550.160934
390.310008	2551.363250
390.693936	2554.282078
391.077802	2551.779145
391.461606	2551.176727
391.845348	2551.269988
392.229027	2554.796275
392.612645	2550.992725
392.996200	2555.723848
393.379694	2553.682180
393.763125	2552.235369
394.146494	2554.156049
394.529801	2553.435164
394.913047	2554.599670
395.296230	2554.428271
395.679351	2553.795606
396.062410	2556.169990
396.445408	2554.894578
396.828343	2555.502037
397.211217	2553.490617
397.594028	2553.631769
397.976778	2554.710576
398.359466	2555.779300
398.742092	2554.438353
399.124656	2555.620504
399.507158	2555.249979
399.889598	2556.863148
400.271977	2556.134702
400.654294	2557.828529
401.036549	2554.622356
401.418742	2557.102603
401.800874	2558.138560
402.182944	2556.442212
402.564952	2559.096380
402.946898	2559.570248
403.328783	2559.222408
403.710606	2559.086297
404.092367	2558.312480
404.474067	2557.798282
404.855705	2558.352809
405.237282	2557.667212
405.618797	2559.461863
406.000250	2560.046637
406.381642	2560.840619
406.762972	2555.945658
407.144240	2556.525391
407.525447	2558.821637
407.906593	2555.159238
408.287677	2558.194013
408.668700	2560.069322
409.049661	2562.355486
409.430560	2560.631411
409.811399	2561.158212
410.192176	2562.481514
410.572891	2560.704508
410.953545	2561.478325
411.334138	2561.501010
411.714669	2560.984292
412.095139	2559.545042
412.475547	2562.078222
412.855894	2561.735424
413.236180	2559.401369
413.616405	2559.620660
413.996568	2561.581668
414.376670	2563.915723
414.756711	2562.597461
415.136691	2562.153839
415.516609	2560.218036
415.896466	2565.894376
416.276262	2564.903789
416.655997	2562.211813
417.035670	2563.726679
417.415283	2565.702812
417.794834	2562.395815
418.174324	2564.969324
418.553753	2564.939077
418.933121	2565.264231
419.312428	2565.173491
419.691674	2565.612071
420.070859	2565.158367
420.449983	2563.671227
420.829045	2564.427400
421.208047	2565.997719
421.586988	2564.921433
421.965867	2565.173491
422.344686	2569.251784
422.723444	2568.470405
423.102141	2564.467729
423.480777	2563.020918
423.859352	2566.166598
424.237866	2568.437638
424.616319	2569.302196
424.994712	2568.097360
425.373044	2566.592575
425.751314	2564.094684
426.129524	2561.518654
426.507673	2564.271124
426.885762	2560.707028
427.263789	2567.268090
427.641756	2566.524520
428.019662	2568.142730
428.397508	2569.823955
428.775292	2569.647515
429.153016	2566.421176
429.530679	2570.612896
429.908282	2569.193811
430.285824	2567.187432
430.663305	2568.914027
431.040726	2570.948132
431.418086	2570.504511
431.795385	2570.605334
432.172624	2568.346897
432.549802	2569.992834
432.926920	2569.057700
433.303977	2568.790518
433.680974	2568.120045
434.057910	2568.876218
434.434786	2571.931157
434.811601	2570.774212
435.188355	2571.810170
435.565050	2569.826476
435.941683	2569.718091
436.318257	2567.721794
436.694770	2572.899059
437.071222	2569.821434
437.447614	2569.050138
437.823946	2569.821434
438.200218	2570.998544
438.576429	2569.118193
438.952580	2569.551733
439.328670	2572.909141
439.704700	2571.684141
440.080670	2572.654563
440.456580	2571.089285
440.832429	2572.286559
441.208218	2573.776220
441.583947	2572.470561
441.959616	2573.380489
442.335224	2572.147927
442.710773	2572.031980
443.086261	2572.926785
443.461689	2570.333112
443.837057	2574.605489
444.212365	2573.224213
444.587612	2569.491239
444.962800	2570.063410
445.337927	2570.204562
445.712995	2566.474108
446.088002	2572.281517
446.462949	2575.356621
446.837837	2573.728329
447.212664	2572.795715
447.587431	2572.919223
447.962139	2572.803277
448.336786	2578.401478
448.711374	2577.345357
449.085901	2575.044070
449.460369	2574.988617
449.834776	2575.041549
450.209124	2575.122208
450.583412	2574.189594
450.957640	2576.397620
451.331808	2578.071283
451.705917	2576.473237
452.079965	2575.104564
452.453954	2576.332085
452.827883	2578.514904
453.201752	2577.975501
453.575562	2575.112125
453.949311	2577.781416
454.323001	2577.058011
454.696632	2577.229410
455.070202	2576.846282
455.443713	2577.335274
455.817164	2577.020202
456.190556	2579.661767
456.563888	2583.586305
456.937160	2580.808629
457.310373	2577.756211
457.683526	2576.725295
458.056619	2579.392065
458.429653	2577.957857
458.802628	2581.269895
459.175542	2580.702765
459.548398	2580.541448
459.921194	2579.926427
460.293930	2578.502301
460.666607	2580.022209
461.039224	2581.579926
461.411782	2580.145717
461.784280	2581.075810
462.156719	2583.624114
462.529099	2581.161510
462.901419	2581.015317
463.273680	2577.489029
463.645882	2574.860068
464.018024	2577.186560
464.390106	2578.340984
464.762130	2584.115626
465.134094	2583.079669
465.505999	2584.604618
465.877845	2587.956985
466.249631	2586.837849
466.621358	2587.694845
466.993026	2588.166193
467.364634	2590.432192
467.736184	2588.267016
468.107674	2588.176276
468.479105	2586.149732
468.850477	2588.314907
469.221790	2586.399269
469.593043	2586.999166
469.964238	2587.316759
470.335373	2585.106213
470.706449	2585.519587
471.077467	2587.321800
471.448425	2587.488158
471.819324	2589.025710
472.190164	2593.167018
472.560945	2588.904722
472.931667	2587.442788
473.302330	2590.442274
473.672934	2589.391194
474.043479	2588.829105
474.413965	2588.388004
474.784393	2587.261306
475.154761	2588.549321
475.525070	2588.204002
475.895321	2587.082345
476.265513	2590.038982
476.635645	2590.066708
477.005719	2588.977819
477.375734	2587.445308
477.745691	2588.342634
478.115588	2590.769949
478.485427	2592.799014
478.855207	2594.578541
479.224928	2594.641555
479.594591	2593.671133
479.964194	2594.961669
480.333739	2596.801690
480.703226	2594.097111
481.072653	2598.603902
481.442022	2597.073912
481.811333	2596.342945
482.180584	2593.582913
482.549777	2594.346648
482.918912	2591.034610
483.287988	2596.050558
483.657005	2595.813624
484.025964	2598.631629
484.394864	2595.526278
484.763706	2597.603233
485.132489	2593.315732
485.501213	2599.307143
485.869879	2598.412338
486.238487	2596.746237
486.607036	2596.572317
486.975527	2598.109869
487.343959	2598.719849
487.712333	2600.378388
488.080648	2598.180445
488.448905	2597.940991
488.817104	2600.058275
489.185244	2598.631629
489.553326	2601.119438
489.921350	2602.165477
490.289315	2600.993409
490.657222	2605.928699
491.025070	2605.575818
491.392861	2607.050356
491.760593	2607.758638
492.128267	2605.117073
492.495883	2603.952567
492.863440	2603.640015
493.230939	2601.197576
493.598380	2603.503904
493.965763	2601.283276
494.333088	2604.030704
494.700354	2602.120107
495.067563	2601.633636
495.434713	2602.694799
495.801805	2602.394850
496.168839	2603.398040
496.535815	2602.427617
496.902733	2600.980806
497.269593	2601.948708
497.636395	2602.352000
498.003139	2605.550612
498.369825	2603.138420
498.736453	2605.434666
499.103023	2604.176898
499.469535	2606.626899
499.835989	2607.763679
500.202385	2601.905858
500.568723	2604.519696
500.935003	2604.960797
501.301226	2602.639346
501.667390	2607.476333
502.033497	2612.671242
502.399546	2608.378700
502.765537	2608.663525
503.131470	2609.666714
503.497345	2610.228803
503.863163	2609.429780
504.228923	2610.218721
504.594625	2611.312651
504.960269	2610.226282
505.325856	2613.911366
505.691385	2613.787858
506.056856	2615.821963
506.422270	2616.958743
506.787625	2617.359515
507.152924	2617.102416
507.518164	2616.600822
507.883347	2619.222222
508.248472	2616.653754
508.613540	2619.983436
508.978550	2622.932511
509.343503	2622.209105
509.708398	2624.966616
510.073236	2624.386884
510.438016	2625.228756
510.802738	2628.051802
511.167403	2629.233953
511.532010	2629.763274
511.896561	2632.036835
512.261053	2634.922895
512.625488	2632.762761
512.989866	2634.557412
513.354186	2637.186373
513.718449	2639.558236
514.082655	2641.317599
514.446803	2641.652836
514.810894	2641.874646
515.174927	2646.666263
515.538904	2645.335398
515.902822	2646.804895
516.266684	2651.379742
516.630488	2652.135915
516.994235	2652.745895
517.357925	2658.568427
517.721558	2658.611277
518.085133	2661.988850
518.448651	2660.393325
518.812112	2660.211843
519.175516	2667.125786
519.538863	2667.766012
519.902152	2675.277332
520.265385	2680.888136
520.628560	2682.206398
520.991678	2681.651871
521.354739	2688.054136
521.717743	2690.151256
522.080690	2693.901875
522.443580	2699.028728
522.806413	2704.485777
523.169189	2707.971735
523.531908	2712.077755
523.894569	2715.815770
524.257174	2719.621842
524.619722	2726.936556
524.982213	2727.780949
525.344647	2734.044583
525.707025	2742.969946
526.069345	2746.337436
526.431608	2751.229876
526.793815	2760.961824
527.155964	2762.960641
527.518057	2768.508431
527.880093	2777.098557
528.242072	2784.153652
528.603995	2790.346709
528.965860	2799.657721
529.327669	2807.274904
529.689421	2819.109013
530.051117	2822.708397
530.412755	2832.780622
530.774337	2844.166068
531.135862	2851.861389
531.497331	2867.501569
531.858743	2871.605068
532.220098	2890.118706
532.581396	2894.532236
532.942638	2910.512694
533.303824	2924.212029
533.664953	2940.779781
534.026025	2949.322017
534.387040	2966.482104
534.747999	2987.705362
535.108902	2999.539471
535.469748	3008.331243
535.830537	3031.341590
536.191270	3055.922256
536.551947	3072.023701
536.912567	3077.145513
537.273131	3107.828496
537.633638	3121.006072
537.994089	3153.803819
538.354483	3164.183555
538.714821	3202.758464
539.075103	3236.869432
539.435328	3251.148500
539.795497	3268.326232
540.155609	3305.237560
540.515665	3340.762572
540.875665	3346.252388
541.235609	3380.799415
541.595496	3414.943150
541.955328	3462.750933
542.315102	3491.336796
542.674821	3508.317923
543.034483	3532.828012
543.394090	3572.375864
543.753640	3593.455449
544.113134	3651.552227
544.472571	3684.844007
544.831953	3745.894900
545.191278	3761.812344
545.550548	3801.829023
545.909761	3836.013087
546.268918	3901.727048
546.628019	3939.858336
546.987064	3992.626614
547.346053	4020.884802
547.704986	4065.128488
548.063863	4131.215495
548.422684	4157.336233
548.781449	4195.323848
549.140158	4268.052575
549.498811	4314.647960
549.857408	4327.439887
550.215949	4419.393054
550.574434	4450.565029
550.932864	4524.632182
551.291237	4585.597376
551.649555	4652.024660
552.007817	4716.347263
552.366022	4765.896764
552.724173	4813.893590
553.082267	4881.560998
553.440305	4991.155682
553.798288	4985.123942
554.156215	5105.184062
554.514086	5183.800856
554.871902	5175.435061
555.229661	5271.237149
555.587365	5339.703580
555.945014	5383.480960
556.302606	5508.012583
556.660143	5547.212596
557.017625	5667.673487
557.375050	5690.139389
557.732421	5793.483043
558.089735	5870.156473
558.446994	5934.065701
558.804197	6036.375918
559.161345	6121.425224
559.518437	6119.839782
559.875474	6270.807216
560.232455	6346.396797
560.589381	6435.564726
560.946251	6491.710577
561.303065	6648.611450
561.659825	6748.292705
562.016528	6769.526045
562.373177	6815.304763
562.729770	6936.983094
563.086307	7045.055350
563.442789	7159.829820
563.799216	7218.425672
564.155587	7283.098634
564.511904	7404.698827
564.868164	7449.416382
565.224370	7575.765342
565.580520	7613.967205
565.936615	7763.906244
566.292654	7763.230730
566.648638	7969.938202
567.004567	7992.111717
567.360441	8086.512364
567.716260	8105.502391
568.072023	8312.585429
568.427732	8348.017179
568.783385	8377.081951
569.138982	8534.388636
569.494525	8660.646855
569.850013	8711.217190
570.205445	8812.932551
570.560823	8836.038680
570.916145	8906.297241
571.271412	9013.908231
571.626625	9093.984440
571.981782	9184.810908
572.336884	9209.880567
572.691931	9361.851190
573.046923	9334.621398
573.401860	9448.992576
573.756743	9560.369308
574.111570	9613.283780
574.466342	9675.733593
574.821059	9814.947577
575.175722	9795.029979
575.530330	9929.754815
575.884882	10020.233444
576.239380	10104.892062
576.593823	10153.445935
576.948211	10214.504390
577.302544	10246.177960
577.656823	10302.956476
578.011047	10461.064704
578.365216	10488.327264
578.719330	10543.923629
579.073389	10582.375030
579.427394	10775.652869
579.781344	10739.714483
580.135239	10824.897380
580.489080	10885.509693
580.842866	10853.445434
581.196597	11082.210475
581.550273	11094.069790
581.903895	11213.207379
582.257463	11419.594738
582.610975	11316.482977
582.964434	11535.397603
583.317837	11507.807368
583.671186	11641.884417
584.024481	11726.311141
584.377721	11674.772904
584.730906	11806.110085
585.084037	11930.871081
585.437113	11962.350567
585.790135	12134.387503
586.143103	11976.342289
586.496016	12035.457380
586.848874	12299.739870
587.201679	12333.540807
587.554428	12237.922721
587.907124	12509.661078
588.259765	12463.078296
588.612352	12628.067699
588.964884	12461.235754
589.317362	12650.127789
589.669786	12744.208322
590.022155	12866.612579
590.374470	13077.002614
590.726731	13053.992267
591.078937	12977.323879
591.431090	13120.101959
591.783188	13034.921582
592.135232	13095.392743
592.487222	13271.104681
592.839157	13348.345240
593.191038	13384.308832
593.542866	13367.065565
593.894639	13310.818891
594.246358	13499.226975
594.598022	13515.184748
594.949633	13451.444398
595.301190	13484.363133
595.652692	13672.609900
596.004141	13898.592224
596.355535	13544.824212
596.706876	13617.416827
597.058162	13633.747645
597.409395	13826.082788
597.760573	13983.160100
598.111698	13912.536055
598.462768	13928.864353
598.813785	13955.489207
599.164748	13919.500409
599.515657	13991.888858
599.866511	13925.370833
600.217312	14238.335746
600.568060	13975.792454
600.918753	14263.125620
601.269392	14271.957722
601.619978	14158.473787
601.970510	14405.021498
602.320988	14395.095466
602.671412	14615.093941
603.021783	14602.259163
603.372100	14473.349297
603.722363	14634.411642
604.072572	14651.027285
604.422728	14782.651812
604.772830	14700.813721
605.122878	14679.640874
605.472872	14762.411579
605.822813	14807.852540
606.172701	14837.418908
606.522534	15047.496391
606.872314	15122.032371
607.222041	15022.220046
607.571714	15271.764723
607.921333	15182.163254
608.270899	15291.997394
608.620411	15520.807805
608.969870	15349.973184
609.319276	15410.086423
609.668627	15498.924156
610.017926	15650.244471
610.367171	15792.531039
610.716362	15890.072324
611.065500	15757.966367
611.414585	15916.540903
611.763616	15949.933506
612.112594	15961.812985
612.461518	15960.777028
612.810389	16180.465471
613.159207	16067.493213
613.507971	16042.418514
613.856682	16350.685072
614.205340	16322.159703
614.553945	16497.634707
614.902496	16287.506811
615.250994	16568.112558
615.599439	16549.185546
615.947830	16566.451498
616.296169	16615.658200
616.644454	16652.977862
616.992686	16633.347609
617.340864	16856.574943
617.688990	16697.440839
618.037063	16881.828603
618.385082	16767.734688
618.733048	17046.326494
619.080961	16949.294365
619.428821	17030.492230
619.776628	16982.727297
620.124382	16922.079696
620.472083	16989.989079
620.819731	17054.669604
621.167326	16813.296637
621.514868	16888.278759
621.862357	16709.264866
622.209793	16762.386024
622.557176	16647.379661
622.904506	16511.538209
623.251783	16466.223277
623.599007	16305.095397
623.946179	16287.305165
624.293297	16264.350271
624.640363	16061.469035
624.987376	16101.324397
625.334336	15926.219918
625.681243	15813.033411
626.028097	15839.592730
626.374899	15811.344625
626.721647	15701.792790
627.068343	15553.388782
627.414987	15509.644170
627.761577	15522.728485
628.108115	15588.278608
628.454600	15333.612119
628.801032	15423.253917
629.147412	15370.871287
629.493739	15419.972125
629.840014	15256.840387
630.186236	15358.265882
630.532405	15146.718902
630.878521	15347.838255
631.224585	15253.810653
631.570597	15103.979999
631.916556	15137.980062
632.262462	15127.698628
632.608316	15064.900975
632.954117	15015.969015
633.299866	15039.145720
633.645562	14973.462006
633.991206	14742.499022
634.336797	14632.117917
634.682336	14616.606287
635.027823	14521.056257
635.373257	14436.294296
635.718639	14336.870139
636.063968	14297.781032
636.409245	14073.855499
636.754470	14115.581129
637.099642	13973.977638
637.444762	13762.687757
637.789829	13820.396366
638.134845	13678.921424
638.479808	13704.165002
638.824719	13675.206094
639.169577	13525.224205
639.514383	13576.039036
639.859137	13396.238722
640.203839	13486.235922
640.548489	13334.426615
640.893086	13338.449455
641.237632	13202.829814
641.582125	13359.982744
