Dividing Wavelength (nm)	Counts (n)	Blue Motor Position (mm): 45.900000	Red Motor Position (mm): 0.000000	
326.493990	2270.424787
326.888308	2270.424787
327.282561	2270.424787
327.676750	2230.521534
328.070874	2224.837633
328.464933	2227.736296
328.858929	2230.483725
329.252859	2236.792729
329.646726	2244.152814
330.040528	2256.392735
330.434265	2270.152565
330.827938	2290.400359
331.221547	2306.146403
331.615091	2322.734320
332.008571	2344.638133
332.401986	2361.672192
332.795338	2379.873278
333.188625	2399.715260
333.581847	2422.274423
333.975006	2438.867381
334.368100	2456.549228
334.761129	2477.338947
335.154095	2493.382419
335.546996	2519.639268
335.939833	2559.802141
336.332606	2574.660942
336.725315	2588.945052
337.117960	2603.226640
337.510540	2614.501181
337.903056	2624.764970
338.295508	2632.911475
338.687896	2639.127217
339.080220	2647.097282
339.472480	2654.777480
339.864676	2659.155722
340.256807	2664.564880
340.648875	2668.978410
341.040879	2672.202228
341.432818	2674.616941
341.824694	2675.942764
342.216506	2677.031653
342.608253	2678.836386
342.999937	2677.664318
343.391557	2676.963598
343.783113	2677.558454
344.174605	2678.415450
344.566033	2675.481498
344.957397	2675.042918
345.348697	2674.322033
345.739934	2673.021415
346.131106	2669.522855
346.522215	2669.681651
346.913260	2666.556136
347.304241	2667.455982
347.695159	2664.088491
348.086012	2662.608912
348.476802	2660.468942
348.867528	2654.933755
349.258191	2656.153715
349.648789	2652.912253
350.039324	2650.608445
350.429796	2653.907881
350.820203	2651.500730
351.210548	2650.623569
351.600828	2650.273209
351.991045	2649.844711
352.381198	2646.699031
352.771288	2650.104330
353.161314	2649.247334
353.551276	2647.094761
353.941175	2650.532828
354.331010	2647.654329
354.720782	2647.009062
355.110490	2645.620224
355.500135	2645.831952
355.889717	2646.444452
356.279235	2646.794812
356.668689	2646.877992
357.058080	2646.252888
357.447408	2648.879330
357.836672	2649.204484
358.225873	2649.539721
358.615010	2649.242293
359.004084	2649.023003
359.393095	2649.257416
359.782043	2650.976450
360.170927	2653.522232
360.559748	2651.770431
360.948505	2650.726912
361.337199	2655.793272
361.725830	2653.933086
362.114398	2655.208498
362.502903	2656.153715
362.891344	2658.497851
363.279722	2655.684887
363.668037	2658.263437
364.056289	2657.391318
364.444478	2659.813592
364.832603	2663.317194
365.220665	2658.681853
365.608665	2659.143119
365.996601	2658.878458
366.384474	2660.416010
366.772284	2662.142605
367.160031	2664.275013
367.547715	2663.760816
367.935336	2663.145795
368.322893	2661.336021
368.710388	2659.468273
369.097820	2660.431134
369.485189	2662.059426
369.872495	2667.841630
370.259738	2667.420693
370.646918	2667.098060
371.034035	2668.139058
371.421090	2667.806342
371.808081	2670.629388
372.195010	2671.022598
372.581875	2671.592248
372.968678	2673.964111
373.355418	2677.520645
373.742096	2681.092303
374.128710	2685.841070
374.515262	2691.096472
374.901751	2699.996630
375.288177	2708.995089
375.674540	2719.039588
376.060841	2732.645663
376.447079	2748.164855
376.833254	2770.502207
377.219367	2783.571399
377.605417	2810.959987
377.991404	2832.818431
378.377329	2863.108203
378.763191	2885.558982
379.148991	2922.374529
379.534727	2960.084880
379.920402	2997.149964
380.306013	3022.547297
380.691563	3079.928230
381.077049	3110.144907
381.462474	3153.808861
381.847835	3209.727860
382.233134	3254.808378
382.618371	3290.416568
383.003545	3356.571630
383.388657	3389.903739
383.773706	3458.322279
384.158693	3489.537104
384.543618	3532.465049
384.928480	3592.951334
385.313280	3654.753359
385.698017	3686.187474
386.082692	3779.239613
386.467305	3791.413999
386.851856	3830.029237
387.236344	3914.461003
387.620770	3945.917803
388.005133	4003.880990
388.389435	4049.392527
388.773674	4069.002615
389.157851	4149.489677
389.541965	4215.995099
389.926018	4184.147610
390.310008	4289.613590
390.693936	4344.393288
391.077802	4380.538361
391.461606	4379.724215
391.845348	4452.263898
392.229027	4508.041745
392.612645	4511.273124
392.996200	4613.752220
393.379694	4671.511240
393.763125	4777.040234
394.146494	4805.598371
394.529801	4863.571640
394.913047	4946.249084
395.296230	4895.966095
395.679351	5003.927446
396.062410	5054.777564
396.445408	5029.430643
396.828343	5087.774437
397.211217	5145.435155
397.594028	5028.409809
397.976778	5146.027490
398.359466	5192.333009
398.742092	5216.933840
399.124656	5133.986694
399.507158	5256.479171
399.889598	5315.085105
400.271977	5441.471873
400.654294	5433.479124
401.036549	5478.161391
401.418742	5399.499226
401.800874	5602.788796
402.182944	5665.740205
402.564952	5771.491010
402.946898	5828.922355
403.328783	5666.829094
403.710606	5684.757958
404.092367	6009.383060
404.474067	6030.644126
404.855705	5929.319454
405.237282	5864.976687
405.618797	6120.779957
406.000250	6096.592501
406.381642	6300.532379
406.762972	6325.690258
407.144240	6381.163115
407.525447	6364.842379
407.906593	6382.446088
408.287677	6547.863990
408.668700	6460.505835
409.049661	6571.315438
409.430560	6598.179747
409.811399	6463.177647
410.192176	6727.780250
410.572891	6745.555359
410.953545	6937.323372
411.334138	6668.884450
411.714669	6838.214287
412.095139	6634.738194
412.475547	6878.425051
412.855894	6946.815864
413.236180	7133.514997
413.616405	6797.852289
413.996568	7015.597367
414.376670	7063.299286
414.756711	6964.333874
415.136691	7055.959366
415.516609	7260.282372
415.896466	7244.339723
416.276262	7453.691281
416.655997	7442.159641
417.035670	7608.500074
417.415283	7959.187941
417.794834	8023.369392
418.174324	7880.079635
418.553753	7797.472767
418.933121	8101.454344
419.312428	8202.587452
419.691674	7971.763100
420.070859	8459.315773
420.449983	8138.095971
420.829045	8504.643308
421.208047	8273.718133
421.586988	8583.386131
421.965867	8610.205070
422.344686	8705.029173
422.723444	8771.600131
423.102141	8108.491795
423.480777	8870.507569
423.859352	8395.865290
424.237866	9016.638016
424.616319	8878.712047
424.994712	9299.529926
425.373044	8848.598714
425.751314	9330.999329
426.129524	9212.507008
426.507673	9294.019945
426.885762	9457.270150
427.263789	9370.242191
427.641756	9311.212800
428.019662	9394.333865
428.397508	9664.527108
428.775292	9319.959202
429.153016	9711.540909
429.530679	9544.620744
429.908282	9551.988390
430.285824	9279.065362
430.663305	9975.364655
431.040726	9426.819061
431.418086	9399.990040
431.795385	9735.796421
432.172624	9833.766205
432.549802	9737.611236
432.926920	9819.661056
433.303977	9683.176857
433.680974	9887.620851
434.057910	9991.047684
434.434786	10062.498478
434.811601	9881.856292
435.188355	10444.111304
435.565050	10193.976812
435.941683	10114.185429
436.318257	10593.513460
436.694770	10765.482341
437.071222	10817.272635
437.447614	10642.599175
437.823946	10560.887112
438.200218	10661.228759
438.576429	10509.732003
438.952580	10746.270504
439.328670	10772.933166
439.704700	10576.403784
440.080670	10562.338964
440.456580	11085.542678
440.832429	10871.510409
441.208218	10475.069030
441.583947	10771.161201
441.959616	10957.386465
442.335224	10768.980902
442.710773	10873.935204
443.086261	11102.075142
443.461689	10366.759839
443.837057	11058.814480
444.212365	11296.734257
444.587612	10927.651219
444.962800	11142.618622
445.337927	10881.685978
445.712995	10561.151773
446.088002	11594.457241
446.462949	11292.184615
446.837837	11249.165929
447.212664	11184.843327
447.587431	11773.632452
447.962139	12532.915921
448.336786	14821.960209
448.711374	15312.804756
449.085901	13127.232671
449.460369	12775.581943
449.834776	12221.349928
450.209124	13157.240139
450.583412	13573.394951
450.957640	14503.555891
451.331808	13545.466959
451.705917	12618.181997
452.079965	11864.320289
452.453954	12780.116461
452.827883	12430.409098
453.201752	12722.949777
453.575562	12270.032350
453.949311	12679.018641
454.323001	12667.431549
454.696632	12906.571285
455.070202	13177.598839
455.443713	13373.485475
455.817164	13871.170867
456.190556	13834.186442
456.563888	14199.135734
456.937160	14349.856152
457.310373	13705.763048
457.683526	13812.592660
458.056619	13332.538703
458.429653	13544.040312
458.802628	12902.051890
459.175542	13316.792658
459.548398	14269.598462
459.921194	14634.812414
460.293930	14703.886304
460.666607	15540.291865
461.039224	16615.824558
461.411782	17342.627873
461.784280	17114.697143
462.156719	17227.422384
462.529099	16884.064355
462.901419	15851.986407
463.273680	15614.933709
463.645882	15513.117525
464.018024	15230.787704
464.390106	15467.069105
464.762130	16175.933474
465.134094	16977.106411
465.505999	19031.979021
465.877845	22310.793373
466.249631	25110.448573
466.621358	24720.036414
466.993026	23306.138953
467.364634	22714.589796
467.736184	21242.550188
468.107674	20448.613828
468.479105	20576.936399
468.850477	20037.175015
469.221790	19652.534977
469.593043	18948.190003
469.964238	18365.631744
470.335373	18020.753806
470.706449	18522.288120
471.077467	18104.232793
471.448425	19982.947323
471.819324	24124.996258
472.190164	25953.793283
472.560945	22279.543261
472.931667	19985.946810
473.302330	19362.474546
473.672934	19006.291821
474.043479	19235.175329
474.413965	19039.228200
474.784393	18629.606724
475.154761	19402.171112
475.525070	19326.609257
475.895321	19040.470844
476.265513	19652.033382
476.635645	20241.419884
477.005719	19992.948973
477.375734	20176.870430
477.745691	20665.857312
478.115588	21217.281404
478.485427	21779.927106
478.855207	22869.310370
479.224928	24660.250850
479.594591	26892.257003
479.964194	26789.442670
480.333739	27038.354683
480.703226	26610.156554
481.072653	26334.312178
481.442022	26949.237165
481.811333	27879.768630
482.180584	27762.120702
482.549777	26800.061861
482.918912	26485.723233
483.287988	26622.910674
483.657005	26247.695072
484.025964	26043.089761
484.394864	25911.629072
484.763706	25553.263527
485.132489	25038.027357
485.501213	25202.696648
485.869879	25106.909683
486.238487	24961.542971
486.607036	25093.381747
486.975527	24855.414080
487.343959	25128.808456
487.712333	25039.007862
488.080648	24695.836355
488.448905	25207.931886
488.817104	24980.623738
489.185244	25681.104668
489.553326	25615.458763
489.921350	26679.900918
490.289315	29039.831391
490.657222	30737.152603
491.025070	31259.811872
491.392861	31002.697903
491.760593	30149.832974
492.128267	29229.673683
492.495883	28153.362132
492.863440	27291.155945
493.230939	26426.819871
493.598380	26257.550528
493.965763	25882.770987
494.333088	25375.141918
494.700354	25359.012746
495.067563	25193.582241
495.434713	24946.416989
495.801805	25130.146882
496.168839	24900.461830
496.535815	24766.641881
496.902733	24988.850901
497.269593	24694.843247
497.636395	24850.892165
498.003139	24776.877944
498.369825	24522.166084
498.736453	24735.260698
499.103023	24610.013231
499.469535	24594.980510
499.835989	24827.647404
500.202385	24842.428067
500.568723	24389.818152
500.935003	24570.382200
501.301226	24256.971145
501.667390	25108.404385
502.033497	25296.724249
502.399546	25032.930751
502.765537	24570.178033
503.131470	24959.718073
503.497345	25100.237716
503.863163	24343.694114
504.228923	24874.935948
504.594625	25127.099504
504.960269	24695.198649
505.325856	25169.437635
505.691385	24568.655605
506.056856	25173.699931
506.422270	25160.895400
506.787625	24688.045251
507.152924	25115.041064
507.518164	25158.785677
507.883347	24973.177954
508.248472	24644.948427
508.613540	25419.723362
508.978550	25225.933846
509.343503	25251.479893
509.708398	25445.944923
510.073236	25604.234634
510.438016	25823.880227
510.802738	25477.278215
511.167403	25733.225158
511.532010	25483.872044
511.896561	26227.777473
512.261053	26189.016042
512.625488	26026.310281
512.989866	25904.266467
513.354186	25741.747228
513.718449	25885.881378
514.082655	26240.939926
514.446803	25964.420035
514.810894	26456.590405
515.174927	25952.399403
515.538904	25992.640414
515.902822	26482.275084
516.266684	26230.726548
516.630488	26150.378118
516.994235	26071.232002
517.357925	26424.185868
517.721558	26585.959016
518.085133	26705.036111
518.448651	26586.080004
518.812112	26355.129623
519.175516	26575.150782
519.538863	26718.682514
519.902152	26513.164754
520.265385	26766.903672
520.628560	26576.756390
520.991678	26549.660188
521.354739	26615.520342
521.717743	26713.464920
522.080690	26472.102036
522.443580	26813.826732
522.806413	26781.361701
523.169189	26904.627995
523.531908	26947.992000
523.894569	26570.283548
524.257174	26674.035535
524.619722	26801.924567
524.982213	26529.044389
525.344647	26542.587449
525.707025	26706.359414
526.069345	26660.681519
526.431608	26636.557077
526.793815	26805.478581
527.155964	26306.525338
527.518057	26473.190925
527.880093	26388.802010
528.242072	26604.626409
528.603995	26329.833113
528.965860	26118.961647
529.327669	26165.259604
529.689421	26149.596739
530.051117	25993.136968
530.412755	26161.221640
530.774337	25938.332064
531.135862	25844.049884
531.497331	26022.612594
531.858743	25632.422245
532.220098	26062.523409
532.581396	25763.890497
532.942638	25657.973334
533.303824	25789.640710
533.664953	25769.324860
534.026025	25434.443531
534.387040	25682.357395
534.747999	25725.582768
535.108902	25889.490845
535.469748	25399.760392
535.830537	25543.657608
536.191270	25692.933736
536.551947	25517.824216
536.912567	25139.410002
537.273131	25598.091988
537.633638	25242.186526
537.994089	25470.623892
538.354483	24966.768127
538.714821	25471.846372
539.075103	25506.287535
539.435328	25276.403358
539.795497	24883.021959
540.155609	25218.987136
540.515665	25536.363059
540.875665	24746.875517
541.235609	25093.608599
541.595496	25023.329873
541.955328	25404.103347
542.315102	25321.320039
542.674821	24823.649769
543.034483	24702.372211
543.394090	24874.862851
543.753640	24686.298492
544.113134	25307.693800
544.472571	24882.837957
544.831953	25200.533992
545.191278	24861.723084
545.550548	24734.398661
545.909761	24935.250833
546.268918	25174.115826
546.628019	25150.266127
546.987064	24838.720299
547.346053	24559.752927
547.704986	24667.038763
548.063863	24829.840306
548.422684	24867.974114
548.781449	24351.016390
549.140158	24772.693786
549.498811	24344.251162
549.857408	24119.105669
550.215949	24505.409289
550.574434	24212.314083
550.932864	24393.863677
551.291237	24595.388844
551.649555	24419.787811
552.007817	24487.384643
552.366022	24327.827083
552.724173	24355.702143
553.082267	24341.332334
553.440305	24813.080990
553.798288	24040.100706
554.156215	24525.684809
554.514086	24671.848024
554.871902	24065.543410
555.229661	24327.426311
555.587365	24161.249716
555.945014	24083.005967
556.302606	24294.101763
556.660143	24279.308497
557.017625	24517.959241
557.375050	24029.050497
557.732421	24408.583847
558.089735	24252.918057
558.446994	24296.950015
558.804197	24329.581404
559.161345	24221.448654
559.518437	24029.617627
559.875474	24196.346229
560.232455	24376.174269
560.589381	24188.673592
560.946251	24192.381361
561.303065	24490.956301
561.659825	24579.153808
562.016528	24189.918758
562.373177	23921.666358
562.729770	24292.826352
563.086307	24130.954902
563.442789	24298.916065
563.799216	24149.622294
564.155587	24139.613083
564.511904	24119.824034
564.868164	24074.108330
565.224370	24040.614904
565.580520	23992.101360
565.936615	24091.994344
566.292654	23799.662874
566.648638	24031.092164
567.004567	23877.634400
567.360441	23808.976405
567.716260	23538.803327
568.072023	23858.271328
568.427732	23636.163131
568.783385	23399.299476
569.138982	23638.383759
569.494525	23671.027751
569.850013	23432.172841
570.205445	23527.001986
570.560823	23354.980172
570.916145	23121.783957
571.271412	23304.694663
571.626625	23053.504049
571.981782	23164.744670
572.336884	22965.752684
572.691931	23113.007308
573.046923	22854.837217
573.401860	22725.118246
573.756743	22763.103340
574.111570	22656.286332
574.466342	22565.270819
574.821059	22632.683649
575.175722	22354.787523
575.530330	22312.096512
575.884882	22312.993837
576.239380	22235.730592
576.593823	22135.968678
576.948211	22107.599585
577.302544	21967.342082
577.656823	21822.187098
578.011047	21934.274634
578.365216	21793.712141
578.719330	21678.000016
579.073389	21561.103220
579.427394	21727.589847
579.781344	21468.570321
580.135239	21352.472548
580.489080	21297.450874
580.842866	21086.876837
581.196597	21291.388887
581.550273	21262.253538
581.903895	21131.932149
582.257463	21443.629212
582.610975	20979.205352
582.964434	21315.442752
583.317837	20976.475568
583.671186	21057.650747
584.024481	21060.105789
584.377721	20814.682255
584.730906	20910.048283
585.084037	20884.056094
585.437113	20817.021351
585.790135	21021.349398
586.143103	20463.467588
586.496016	20498.274234
586.848874	20731.422558
587.201679	20638.214144
587.554428	20340.818835
587.907124	20673.703868
588.259765	20430.684964
588.612352	20505.248671
588.964884	20083.604042
589.317362	20240.126828
589.669786	20301.021446
590.022155	20292.814447
590.374470	20552.509488
590.726731	20296.277720
591.078937	20094.946638
591.431090	20173.573515
591.783188	19961.398911
592.135232	19907.503936
592.487222	20015.001500
592.839157	20014.734319
593.191038	19882.940913
593.542866	19791.038158
593.894639	19483.953751
594.246358	19702.790240
594.598022	19583.430840
594.949633	19344.752370
595.301190	19334.977573
595.652692	19500.289610
596.004141	19714.112671
596.355535	19046.908398
596.706876	19073.228262
597.058162	18965.619792
597.409395	19211.560044
597.760573	19251.801055
598.111698	19024.782774
598.462768	18976.007090
598.813785	18956.323904
599.164748	18749.838243
599.515657	18801.709195
599.866511	18595.488194
600.217312	18955.033369
600.568060	18457.045507
600.918753	18770.108722
601.269392	18677.409465
601.619978	18478.029310
601.970510	18654.482297
602.320988	18607.642416
602.671412	18799.521335
603.021783	18738.815760
603.372100	18440.603784
603.722363	18592.677751
604.072572	18546.311739
604.422728	18701.677580
604.772830	18439.383824
605.122878	18408.980626
605.472872	18380.722438
605.822813	18360.492287
606.172701	18365.195684
606.522534	18531.140386
606.872314	18557.414880
607.222041	18397.983348
607.571714	18611.052757
607.921333	18440.807950
608.270899	18519.202934
608.620411	18666.792795
608.969870	18461.307802
609.319276	18457.612637
609.668627	18481.114496
610.017926	18607.788610
610.367171	18730.782681
610.716362	18780.601884
611.065500	18593.822093
611.414585	18753.893851
611.763616	18738.793075
612.112594	18662.838010
612.461518	18645.461153
612.810389	18821.752823
613.159207	18688.207617
613.507971	18593.507021
613.856682	18853.655765
614.205340	18768.936654
614.553945	18937.401933
614.902496	18674.334361
615.250994	18868.020533
615.599439	18824.792639
615.947830	18814.241504
616.296169	18897.959946
616.644454	18848.004632
616.992686	18828.041663
617.340864	19034.567653
617.688990	18793.406415
618.037063	18961.680130
618.385082	18826.085695
618.733048	19091.457074
619.080961	18981.670826
619.428821	19015.658285
619.776628	18881.805568
620.124382	18812.005752
620.472083	18874.470689
620.819731	18882.123161
621.167326	18570.330316
621.514868	18610.561244
621.862357	18392.120487
622.209793	18387.807779
622.557176	18232.368842
622.904506	18061.839210
623.251783	18000.306886
623.599007	17736.725116
623.946179	17678.731682
624.293297	17600.923993
624.640363	17342.050661
624.987376	17363.258795
625.334336	17178.374478
625.681243	17014.042945
626.028097	17034.779731
626.374899	16947.827389
626.721647	16819.540106
627.068343	16649.943088
627.414987	16584.392964
627.761577	16546.584310
628.108115	16581.161585
628.454600	16300.913760
628.801032	16407.254380
629.147412	16341.878176
629.493739	16352.366297
629.840014	16152.580329
630.186236	16263.659633
630.532405	16022.566450
630.878521	16230.304839
631.224585	16129.844725
631.570597	15951.425687
631.916556	15977.148175
632.262462	15950.314113
632.608316	15875.155550
632.954117	15821.958774
633.299866	15797.937676
633.645562	15713.662187
633.991206	15495.226470
634.336797	15354.674060
634.682336	15327.658516
635.027823	15186.448235
635.373257	15056.351178
635.718639	14980.055835
636.063968	14912.706020
