Dividing Wavelength (nm)	Counts (n)	Blue Motor Position (mm): 29.700000	Red Motor Position (mm): 0.000000	
326.493990	2208.118646
326.888308	2208.118646
327.282561	2208.118646
327.676750	2171.444252
328.070874	2167.313026
328.464933	2170.957780
328.858929	2171.524910
329.252859	2178.837104
329.646726	2185.493948
330.040528	2196.667665
330.434265	2208.955478
330.827938	2229.621688
331.221547	2246.880078
331.615091	2264.987903
332.008571	2279.211518
332.401986	2299.602985
332.795338	2317.446149
333.188625	2338.777792
333.581847	2359.416276
333.975006	2376.599049
334.368100	2394.981616
334.761129	2411.047773
335.154095	2431.688778
335.546996	2455.972016
335.939833	2493.795793
336.332606	2507.984121
336.725315	2524.176307
337.117960	2532.053110
337.510540	2546.206149
337.903056	2556.117058
338.295508	2569.821434
338.687896	2574.212279
339.080220	2581.214442
339.472480	2590.343972
339.864676	2594.593664
340.256807	2599.561722
340.648875	2605.868205
341.040879	2606.122783
341.432818	2610.551437
341.824694	2612.658639
342.216506	2614.695265
342.608253	2613.319030
342.999937	2611.544544
343.391557	2614.559154
343.783113	2611.534462
344.174605	2612.071345
344.566033	2613.361880
344.957397	2611.612600
345.348697	2610.170830
345.739934	2606.367279
346.131106	2608.645881
346.522215	2604.285283
346.913260	2601.623553
347.304241	2601.000971
347.695159	2600.149016
348.086012	2600.287648
348.476802	2596.899992
348.867528	2595.037286
349.258191	2586.512695
349.648789	2589.207192
350.039324	2582.845255
350.429796	2588.743405
350.820203	2587.102510
351.210548	2583.551017
351.600828	2585.401120
351.991045	2580.269226
352.381198	2582.512539
352.771288	2582.520101
353.161314	2580.301993
353.551276	2578.608166
353.941175	2580.879205
354.331010	2579.283680
354.720782	2577.423494
355.110490	2578.088927
355.500135	2580.586818
355.889717	2578.860223
356.279235	2580.054977
356.668689	2580.874164
357.058080	2578.497260
357.447408	2579.366859
357.836672	2581.320306
358.225873	2582.018506
358.615010	2581.486664
359.004084	2580.271746
359.393095	2583.034299
359.782043	2582.759556
360.170927	2583.989597
360.559748	2581.753846
360.948505	2584.755853
361.337199	2584.939855
361.725830	2586.089238
362.114398	2585.595205
362.502903	2583.180492
362.891344	2586.641244
363.279722	2584.831470
363.668037	2587.142839
364.056289	2589.396235
364.444478	2587.498240
364.832603	2588.153590
365.220665	2590.835484
365.608665	2590.427151
365.996601	2590.222984
366.384474	2591.165680
366.772284	2591.710124
367.160031	2590.137284
367.547715	2594.424786
367.935336	2592.476380
368.322893	2592.733479
368.710388	2588.977819
369.097820	2590.648962
369.485189	2593.109045
369.872495	2590.742223
370.259738	2594.097111
370.646918	2593.908067
371.034035	2597.020980
371.421090	2595.964858
371.808081	2596.327821
372.195010	2596.153902
372.581875	2596.252204
372.968678	2598.029211
373.355418	2596.171546
373.742096	2598.203131
374.128710	2596.461412
374.515262	2598.581217
374.901751	2596.776484
375.288177	2597.603233
375.674540	2598.800507
376.060841	2598.288830
376.447079	2596.940322
376.833254	2601.527772
377.219367	2599.493666
377.605417	2599.508789
377.991404	2599.861670
378.377329	2599.980137
378.763191	2599.047524
379.148991	2601.933584
379.534727	2603.067844
379.920402	2600.622884
380.306013	2602.677155
380.691563	2602.828389
381.077049	2604.149172
381.462474	2602.931733
381.847835	2603.032556
382.233134	2603.070365
382.618371	2602.536002
383.003545	2604.451641
383.388657	2604.507093
383.773706	2605.099429
384.158693	2606.505911
384.543618	2605.661518
384.928480	2606.984821
385.313280	2606.286621
385.698017	2607.874584
386.082692	2607.746035
386.467305	2608.058586
386.851856	2608.960953
387.236344	2606.778133
387.620770	2605.837958
388.005133	2602.442741
388.389435	2606.636981
388.773674	2604.166816
389.157851	2609.086982
389.541965	2608.557661
389.926018	2609.943978
390.310008	2609.999431
390.693936	2611.998248
391.077802	2609.722167
391.461606	2611.300048
391.845348	2611.978083
392.229027	2612.121756
392.612645	2611.174019
392.996200	2612.209977
393.379694	2614.549072
393.763125	2614.470934
394.146494	2612.900615
394.529801	2616.631068
394.913047	2613.059411
395.296230	2613.518156
395.679351	2615.426233
396.062410	2619.013014
396.445408	2614.004627
396.828343	2616.313476
397.211217	2617.268774
397.594028	2614.801130
397.976778	2616.459669
398.359466	2617.518312
398.742092	2615.703496
399.124656	2616.658795
399.507158	2617.220883
399.889598	2618.556789
400.271977	2619.968312
400.654294	2619.953189
401.036549	2619.938065
401.418742	2617.528394
401.800874	2618.347581
402.182944	2620.825308
402.564952	2619.645678
402.946898	2623.179527
403.328783	2624.490227
403.710606	2618.216511
404.092367	2624.419651
404.474067	2622.836729
404.855705	2621.463014
405.237282	2623.900412
405.618797	2624.974178
406.000250	2624.596092
406.381642	2624.344034
406.762972	2622.975361
407.144240	2624.041565
407.525447	2623.872686
407.906593	2622.604836
408.287677	2626.294960
408.668700	2629.312091
409.049661	2627.918212
409.430560	2630.428707
409.811399	2628.245887
410.192176	2630.537091
410.572891	2629.213788
410.953545	2632.586320
411.334138	2631.016001
411.714669	2632.732514
412.095139	2633.153450
412.475547	2633.125724
412.855894	2634.733852
413.236180	2635.288379
413.616405	2634.895169
413.996568	2635.071609
414.376670	2635.174953
414.756711	2637.113277
415.136691	2635.895838
415.516609	2638.363483
415.896466	2638.955818
416.276262	2638.567649
416.655997	2641.710809
417.035670	2639.633853
417.415283	2638.902886
417.794834	2643.298772
418.174324	2643.810449
418.553753	2642.938330
418.933121	2644.236427
419.312428	2645.093423
419.691674	2644.206180
420.070859	2648.914618
420.449983	2648.387817
420.829045	2648.065183
421.208047	2647.679535
421.586988	2649.910246
421.965867	2652.579537
422.344686	2653.910401
422.723444	2655.914260
423.102141	2652.907212
423.480777	2658.802841
423.859352	2659.291833
424.237866	2662.482883
424.616319	2666.104952
424.994712	2672.129131
425.373044	2675.453772
425.751314	2682.834021
426.129524	2683.023065
426.507673	2695.678881
426.885762	2700.699871
427.263789	2717.645709
427.641756	2730.598954
428.019662	2742.385172
428.397508	2762.350662
428.775292	2781.554937
429.153016	2805.994451
429.530679	2828.969510
429.908282	2856.186699
430.285824	2876.081613
430.663305	2936.159564
431.040726	2949.569033
431.418086	2987.730568
431.795385	3050.878581
432.172624	3103.672065
432.549802	3150.335506
432.926920	3209.997561
433.303977	3251.703027
433.680974	3339.159485
434.057910	3417.067997
434.434786	3491.533401
434.811601	3550.918193
435.188355	3693.063608
435.565050	3737.259404
435.941683	3807.170125
436.318257	3977.838389
436.694770	4087.816201
437.071222	4199.008932
437.447614	4265.738685
437.823946	4339.647042
438.200218	4479.597034
438.576429	4529.779200
438.952580	4688.510011
439.328670	4819.267460
439.704700	4865.406620
440.080670	4968.387311
440.456580	5249.560187
440.832429	5288.636691
441.208218	5266.059884
441.583947	5490.807125
441.959616	5666.128374
442.335224	5715.372885
442.710773	5886.688937
443.086261	6101.898315
443.461689	5914.687505
443.837057	6308.101672
444.212365	6562.750517
444.587612	6531.419746
444.962800	6769.669718
445.337927	6787.424662
445.712995	6685.381626
446.088002	7386.575879
446.462949	7325.247722
446.837837	7437.310051
447.212664	7580.458656
447.587431	7998.337542
447.962139	8542.262919
448.336786	10000.270475
448.711374	10571.919677
449.085901	9392.607270
449.460369	9268.995657
449.834776	9054.136639
450.209124	9752.666642
450.583412	10138.420776
450.957640	10948.055289
451.331808	10528.477534
451.705917	9921.119319
452.079965	9533.056337
452.453954	10323.713427
452.827883	10142.768771
453.201752	10481.889711
453.575562	10191.781389
453.949311	10622.623603
454.323001	10684.982676
454.696632	10964.184461
455.070202	11287.244285
455.443713	11588.417939
455.817164	12053.025801
456.190556	12160.107470
456.563888	12563.193091
456.937160	12817.836895
457.310373	12295.200311
457.683526	12445.398969
458.056619	12124.713529
458.429653	12295.933799
458.802628	11893.768189
459.175542	12259.519024
459.548398	13207.003889
459.921194	13562.410277
460.293930	13658.237570
460.666607	14547.804619
461.039224	15537.057965
461.411782	16248.286634
461.784280	16238.544605
462.156719	16331.909294
462.529099	16100.230467
462.901419	15111.380413
463.273680	14956.861486
463.645882	14839.029556
464.018024	14630.434172
464.390106	14854.090003
464.762130	15600.054744
465.134094	16327.170610
465.505999	18251.023632
465.877845	21444.092998
466.249631	24287.820486
466.621358	24071.980963
466.993026	22664.732785
467.364634	22149.110967
467.736184	20733.703681
468.107674	19959.485793
468.479105	20101.086764
468.850477	19575.627134
469.221790	19175.604014
469.593043	18504.785234
469.964238	17962.636864
470.335373	17650.992733
470.706449	18072.019820
471.077467	17606.212164
471.448425	19415.356250
471.819324	23360.086861
472.190164	25497.188252
472.560945	22034.709542
472.931667	19631.611668
473.302330	18984.037648
473.672934	18461.685889
474.043479	18853.829685
474.413965	18664.773813
474.784393	18302.874419
475.154761	18959.860274
475.525070	18993.666252
475.895321	18633.233834
476.265513	19204.651143
476.635645	19785.379463
477.005719	19576.098482
477.375734	19778.273957
477.745691	20248.570761
478.115588	20750.344529
478.485427	21259.508630
478.855207	22304.991005
479.224928	24053.069075
479.594591	26269.976972
479.964194	26371.261315
480.333739	26552.687401
480.703226	26113.287828
481.072653	25785.978312
481.442022	26346.506729
481.811333	27232.907933
482.180584	27198.862501
482.549777	26233.446251
482.918912	25870.082402
483.287988	25977.958053
483.657005	25699.739293
484.025964	25407.307000
484.394864	25354.314391
484.763706	25059.379164
485.132489	24469.042405
485.501213	24627.750531
485.869879	24558.414501
486.238487	24359.253636
486.607036	24498.437373
486.975527	24180.653117
487.343959	24531.093967
487.712333	24487.344314
488.080648	24153.635053
488.448905	24611.374343
488.817104	24360.493760
489.185244	25017.214953
489.553326	25003.717264
489.921350	25965.390457
490.289315	28220.787564
490.657222	30035.998679
491.025070	30527.826252
491.392861	30321.806897
491.760593	29481.484359
492.128267	28587.302134
492.495883	27558.342140
492.863440	26672.626533
493.230939	25804.007999
493.598380	25656.571893
493.965763	25256.211016
494.333088	24823.657331
494.700354	24715.796803
495.067563	24612.942141
495.434713	24373.809968
495.801805	24503.397868
496.168839	24338.148845
496.535815	24152.944415
496.902733	24369.567837
497.269593	24038.989132
497.636395	24235.543720
498.003139	24214.068405
498.369825	23969.794254
498.736453	24156.276617
499.103023	24037.436457
499.469535	24058.011926
499.835989	24261.740076
500.202385	24290.923316
500.568723	23784.012612
500.935003	24060.270363
501.301226	23655.410256
501.667390	24475.669002
502.033497	24724.341559
502.399546	24444.663385
502.765537	24031.185426
503.131470	24426.505149
503.497345	24550.207502
503.863163	23771.318986
504.228923	24391.022987
504.594625	24568.867333
504.960269	24096.168419
505.325856	24590.498924
505.691385	23998.145703
506.056856	24601.919658
506.422270	24562.412136
506.787625	24167.634337
507.152924	24561.166971
507.518164	24578.032151
507.883347	24386.317070
508.248472	24083.787346
508.613540	24871.124836
508.978550	24656.354038
509.343503	24636.078517
509.708398	24906.667491
510.073236	25069.632871
510.438016	25261.232005
510.802738	24949.981085
511.167403	25195.812952
511.532010	24899.188939
511.896561	25675.241806
512.261053	25640.530941
512.625488	25483.877086
512.989866	25383.003597
513.354186	25218.641817
513.718449	25329.345556
514.082655	25705.566867
514.446803	25446.633041
514.810894	25886.632510
515.174927	25383.419492
515.538904	25421.654124
515.902822	25890.597378
516.266684	25655.553580
516.630488	25563.015639
516.994235	25556.499948
517.357925	25841.118453
517.721558	26024.107296
518.085133	26118.762522
518.448651	26029.413111
518.812112	25756.510247
519.175516	25955.721524
519.538863	26109.610307
519.902152	25888.003704
520.265385	26192.774222
520.628560	25973.274822
520.991678	25979.679607
521.354739	26065.331332
521.717743	26120.068180
522.080690	25916.677787
522.443580	26246.157520
522.806413	26244.839259
523.169189	26345.087644
523.531908	26374.601079
523.894569	25999.793811
524.257174	26057.953603
524.619722	26263.793997
524.982213	25944.121829
525.344647	26009.303948
525.707025	26137.467723
526.069345	26120.363088
526.431608	26078.345071
526.793815	26269.883711
527.155964	25715.797889
527.518057	25898.940488
527.880093	25825.256462
528.242072	26051.359774
528.603995	25764.704643
528.965860	25559.277624
529.327669	25612.250068
529.689421	25594.129641
530.051117	25430.889518
530.412755	25598.636432
530.774337	25405.507308
531.135862	25271.468068
531.497331	25477.179913
531.858743	25020.174111
532.220098	25515.240624
532.581396	25188.677199
532.942638	25131.923889
533.303824	25226.848816
533.664953	25249.778504
534.026025	24900.600462
534.387040	25135.729960
534.747999	25205.683531
535.108902	25366.115732
535.469748	24853.054820
535.830537	25053.992691
536.191270	25155.934904
536.551947	25048.192844
536.912567	24702.407499
537.273131	25036.638519
537.633638	24745.287553
537.994089	24941.481699
538.354483	24492.307330
538.714821	24998.943291
539.075103	25046.342740
539.435328	24821.850077
539.795497	24378.029413
540.155609	24779.431288
540.515665	25072.135804
540.875665	24310.482993
541.235609	24598.610141
541.595496	24562.162599
541.955328	24912.520270
542.315102	24833.011192
542.674821	24388.467122
543.034483	24268.472537
543.394090	24433.945892
543.753640	24222.847574
544.113134	24859.331056
544.472571	24460.449758
544.831953	24752.070426
545.191278	24356.760785
545.550548	24278.950576
545.909761	24485.995805
546.268918	24726.751231
546.628019	24685.900240
546.987064	24392.968873
547.346053	24151.227902
547.704986	24274.073259
548.063863	24432.947743
548.422684	24425.350724
548.781449	23969.330468
549.140158	24373.923393
549.498811	23955.003509
549.857408	23691.953581
550.215949	24124.988696
550.574434	23806.261744
550.932864	24025.125959
551.291237	24174.023999
551.649555	24036.728174
552.007817	24094.048614
552.366022	23958.978459
552.724173	24012.323949
553.082267	23944.374236
553.440305	24415.157511
553.798288	23676.769625
554.156215	24199.978380
554.514086	24291.130003
554.871902	23666.284025
555.229661	23943.852477
555.587365	23808.925994
555.945014	23663.521473
556.302606	23933.407206
556.660143	23861.681669
557.017625	24126.566577
557.375050	23651.029494
557.732421	24038.573237
558.089735	23853.472150
558.446994	23915.932046
558.804197	23947.015801
559.161345	23889.463468
559.518437	23636.911742
559.875474	23837.484130
560.232455	24022.696123
560.589381	23835.760056
560.946251	23822.111132
561.303065	24143.018383
561.659825	24230.048863
562.016528	23835.152597
562.373177	23588.677982
562.729770	23933.790333
563.086307	23792.380927
563.442789	23963.036587
563.799216	23779.369709
564.155587	23796.620537
564.511904	23783.599237
564.868164	23718.013825
565.224370	23697.992883
565.580520	23616.215285
565.936615	23747.610440
566.292654	23423.554988
566.648638	23726.417429
567.004567	23544.903123
567.360441	23491.043435
567.716260	23234.201688
568.072023	23553.883938
568.427732	23318.386437
568.783385	23092.066355
569.138982	23331.790865
569.494525	23372.357030
569.850013	23109.899437
570.205445	23214.760478
570.560823	23002.855576
570.916145	22769.553497
571.271412	22942.565897
571.626625	22714.799004
571.981782	22823.481240
572.336884	22626.455304
572.691931	22759.403133
573.046923	22495.844049
573.401860	22379.645453
573.756743	22374.264021
574.111570	22289.741515
574.466342	22223.208366
574.821059	22307.567035
575.175722	22021.148838
575.530330	22009.297085
575.884882	22031.155528
576.239380	21945.541613
576.593823	21831.114982
576.948211	21808.727218
577.302544	21655.627375
577.656823	21514.795181
578.011047	21620.455245
578.365216	21485.957260
578.719330	21368.793283
579.073389	21265.217736
579.427394	21413.641908
579.781344	21188.294770
580.135239	21071.191287
580.489080	21042.386133
580.842866	20806.366872
581.196597	21000.332828
581.550273	20982.325827
581.903895	20876.764065
582.257463	21175.311278
582.610975	20710.378262
582.964434	21017.946620
583.317837	20727.717310
583.671186	20813.820218
584.024481	20784.475662
584.377721	20558.619366
584.730906	20618.195723
585.084037	20643.028446
585.437113	20543.848786
585.790135	20746.919065
586.143103	20215.420133
586.496016	20226.747606
586.848874	20467.621498
587.201679	20404.377703
587.554428	20069.761034
587.907124	20409.955739
588.259765	20186.246976
588.612352	20259.106772
588.964884	19827.639456
589.317362	19999.205045
589.669786	20055.633200
590.022155	20099.362689
590.374470	20289.063829
590.726731	20081.985832
591.078937	19840.378452
591.431090	19942.449214
591.783188	19686.416572
592.135232	19673.438121
592.487222	19760.539177
592.839157	19773.948647
593.191038	19663.222223
593.542866	19553.176355
593.894639	19267.983159
594.246358	19482.393514
594.598022	19388.486900
594.949633	19148.328852
595.301190	19110.374004
595.652692	19272.915928
596.004141	19511.987608
596.355535	18847.432461
596.706876	18859.115335
597.058162	18753.223378
597.409395	18966.764134
597.760573	19045.464107
598.111698	18832.992076
598.462768	18768.571171
598.813785	18725.607937
599.164748	18554.521258
599.515657	18587.687009
599.866511	18381.657572
600.217312	18738.402385
600.568060	18273.469369
600.918753	18576.331810
601.269392	18477.840267
601.619978	18256.397502
601.970510	18455.475187
602.320988	18410.475328
602.671412	18618.269169
603.021783	18528.193832
603.372100	18251.071522
603.722363	18382.239825
604.072572	18330.109253
604.422728	18472.282394
604.772830	18230.450683
605.122878	18189.166153
605.472872	18174.314914
605.822813	18161.510383
606.172701	18130.187174
606.522534	18322.144230
606.872314	18347.468466
607.222041	18185.279424
607.571714	18403.047188
607.921333	18234.458400
608.270899	18301.926683
608.620411	18488.950970
608.969870	18248.442561
609.319276	18253.990351
609.668627	18276.365512
610.017926	18424.721628
610.367171	18542.551038
610.716362	18577.725689
611.065500	18395.218276
611.414585	18535.211118
611.763616	18504.883536
612.112594	18453.642728
612.461518	18422.085105
612.810389	18627.146641
613.159207	18476.242221
613.507971	18387.681751
613.856682	18667.249019
614.205340	18597.444162
614.553945	18742.016893
614.902496	18489.986927
615.250994	18712.614363
615.599439	18667.521242
615.947830	18643.230442
616.296169	18702.214463
616.644454	18656.665117
616.992686	18622.813769
617.340864	18840.838632
617.688990	18598.863247
618.037063	18779.916287
618.385082	18626.876939
618.733048	18903.966481
619.080961	18771.921017
619.428821	18810.332089
619.776628	18701.352425
620.124382	18628.643863
620.472083	18671.092899
620.819731	18686.453295
621.167326	18381.168580
621.514868	18429.233461
621.862357	18188.984672
622.209793	18208.181386
622.557176	18027.922327
622.904506	17861.060135
623.251783	17766.646885
623.599007	17532.268519
623.946179	17470.234600
624.293297	17417.486487
624.640363	17169.373498
624.987376	17197.349381
625.334336	16977.169425
625.681243	16830.300449
626.028097	16837.937797
626.374899	16763.381652
626.721647	16630.282588
627.068343	16459.959643
627.414987	16398.238276
627.761577	16373.518978
628.108115	16420.810042
628.454600	16134.356557
628.801032	16235.847587
629.147412	16169.274110
629.493739	16184.279104
629.840014	15995.218191
630.186236	16093.152687
630.532405	15859.568302
630.878521	16050.686007
631.224585	15949.986438
631.570597	15766.233860
631.916556	15796.909281
632.262462	15780.523010
632.608316	15693.371543
632.954117	15641.089736
633.299866	15634.150588
633.645562	15560.532098
633.991206	15312.991279
634.336797	15185.992011
634.682336	15142.761596
635.027823	15041.046235
635.373257	14924.288071
635.718639	14818.118850
636.063968	14770.240491
636.409245	14517.224980
636.754470	14542.919741
