Dividing Wavelength (nm)	Counts (n)	Blue Motor Position (mm): 1.300000	Red Motor Position (mm): 0.000000	
326.493990	2167.098777
326.888308	2167.098777
327.282561	2167.098777
327.676750	2126.456995
328.070874	2122.741664
328.464933	2120.074894
328.858929	2122.615636
329.252859	2131.440175
329.646726	2136.027625
330.040528	2149.464821
330.434265	2166.385454
330.827938	2180.820798
331.221547	2200.201514
331.615091	2216.837322
332.008571	2232.873232
332.401986	2254.222518
332.795338	2272.963008
333.188625	2290.975051
333.581847	2308.793009
333.975006	2328.640032
334.368100	2345.704337
334.761129	2362.965248
335.154095	2380.357229
335.546996	2399.652245
335.939833	2414.253947
336.332606	2430.501586
336.725315	2441.219079
337.117960	2453.015379
337.510540	2466.389560
337.903056	2476.681076
338.295508	2484.898157
338.687896	2494.872080
339.080220	2500.472802
339.472480	2509.438494
339.864676	2514.656088
340.256807	2520.067767
340.648875	2524.254445
341.040879	2526.001205
341.432818	2528.559590
341.824694	2531.871628
342.216506	2531.349869
342.608253	2531.241484
342.999937	2536.126362
343.391557	2533.749458
343.783113	2535.891948
344.174605	2533.363810
344.566033	2533.028573
344.957397	2530.245856
345.348697	2527.904240
345.739934	2528.496576
346.131106	2526.076822
346.522215	2522.474918
346.913260	2519.530884
347.304241	2518.454597
347.695159	2516.617097
348.086012	2516.342354
348.476802	2514.459483
348.867528	2509.572084
349.258191	2506.083606
349.648789	2504.210817
350.039324	2502.824500
350.429796	2510.711385
350.820203	2505.019922
351.210548	2503.668893
351.600828	2502.670745
351.991045	2502.222082
352.381198	2502.194356
352.771288	2497.826196
353.161314	2500.114880
353.551276	2500.271155
353.941175	2497.241422
354.331010	2498.567245
354.720782	2499.898110
355.110490	2495.658500
355.500135	2499.008346
355.889717	2498.158912
356.279235	2495.356030
356.668689	2500.702174
357.058080	2498.433655
357.447408	2496.402070
357.836672	2498.930208
358.225873	2502.650580
358.615010	2500.626557
359.004084	2501.365086
359.393095	2499.759478
359.782043	2499.840137
360.170927	2500.437513
360.559748	2503.578152
360.948505	2503.333656
361.337199	2503.003461
361.725830	2503.381547
362.114398	2502.239726
362.502903	2507.328771
362.891344	2507.752228
363.279722	2507.595952
363.668037	2505.977742
364.056289	2505.879439
364.444478	2508.684841
364.832603	2507.575787
365.220665	2507.686693
365.608665	2508.127794
365.996601	2508.430263
366.384474	2507.452279
366.772284	2510.250119
367.160031	2510.030829
367.547715	2509.703154
367.935336	2511.001251
368.322893	2509.854389
368.710388	2505.806342
369.097820	2506.726353
369.485189	2508.064779
369.872495	2513.075686
370.259738	2510.852537
370.646918	2512.571571
371.034035	2511.674245
371.421090	2514.774555
371.808081	2513.733557
372.195010	2516.523835
372.581875	2513.935203
372.968678	2516.256654
373.355418	2515.056860
373.742096	2515.205574
374.128710	2516.733043
374.515262	2514.030985
374.901751	2515.291273
375.288177	2518.116840
375.674540	2517.398476
376.060841	2516.027282
376.447079	2513.937723
376.833254	2518.257992
377.219367	2518.812519
377.605417	2517.269926
377.991404	2516.715399
378.377329	2516.201202
378.763191	2518.436953
379.148991	2515.152642
379.534727	2518.721778
379.920402	2519.634227
380.306013	2517.161541
380.691563	2517.516943
381.077049	2517.680780
381.462474	2518.673887
381.847835	2519.356964
382.233134	2521.343178
382.618371	2518.149608
383.003545	2517.045595
383.388657	2519.674557
383.773706	2521.179341
384.158693	2519.800585
384.543618	2523.203364
384.928480	2520.067767
385.313280	2519.803106
385.698017	2517.307735
386.082692	2518.172293
386.467305	2522.013652
386.851856	2524.196472
387.236344	2523.382325
387.620770	2519.634227
388.005133	2521.348220
388.389435	2518.482324
388.773674	2517.685821
389.157851	2522.608508
389.541965	2522.323683
389.926018	2524.564476
390.310008	2522.169928
390.693936	2525.539939
391.077802	2522.462315
391.461606	2525.494569
391.845348	2523.939373
392.229027	2527.634538
392.612645	2524.471214
392.996200	2526.288550
393.379694	2522.938704
393.763125	2526.165042
394.146494	2523.004239
394.529801	2526.843077
394.913047	2525.005577
395.296230	2528.005063
395.679351	2525.055988
396.062410	2526.394415
396.445408	2525.522295
396.828343	2527.080012
397.211217	2528.867101
397.594028	2526.202851
397.976778	2528.501617
398.359466	2525.786956
398.742092	2528.088242
399.124656	2529.121679
399.507158	2527.558921
399.889598	2527.037162
400.271977	2530.162677
400.654294	2527.448016
401.036549	2529.242667
401.418742	2528.355423
401.800874	2528.257121
402.182944	2530.623943
402.564952	2528.544467
402.946898	2532.224509
403.328783	2530.099663
403.710606	2529.993798
404.092367	2526.991791
404.474067	2531.448171
404.855705	2533.005888
405.237282	2532.400949
405.618797	2529.547656
406.000250	2530.316432
406.381642	2530.523120
406.762972	2528.390712
407.144240	2527.629497
407.525447	2529.605630
407.906593	2528.100845
408.287677	2531.916999
408.668700	2531.695188
409.049661	2532.978162
409.430560	2531.841381
409.811399	2531.609488
410.192176	2533.893131
410.572891	2533.502442
410.953545	2533.525127
411.334138	2532.564787
411.714669	2533.124355
412.095139	2534.533358
412.475547	2534.742565
412.855894	2532.889941
413.236180	2534.382123
413.616405	2535.907072
413.996568	2532.963038
414.376670	2534.377082
414.756711	2534.553522
415.136691	2537.179963
415.516609	2536.320447
415.896466	2537.883204
416.276262	2536.080992
416.655997	2537.724408
417.035670	2533.414221
417.415283	2535.415559
417.794834	2534.132586
418.174324	2536.910262
418.553753	2537.754655
418.933121	2535.586959
419.312428	2536.990920
419.691674	2535.803728
420.070859	2535.483615
420.449983	2535.206352
420.829045	2534.687113
421.208047	2537.174922
421.586988	2535.045035
421.965867	2538.694830
422.344686	2538.344470
422.723444	2538.704912
423.102141	2535.980169
423.480777	2538.460416
423.859352	2539.070396
424.237866	2539.317413
424.616319	2537.908410
424.994712	2538.868750
425.373044	2535.304654
425.751314	2535.387833
426.129524	2532.481608
426.507673	2535.486136
426.885762	2533.860363
427.263789	2539.181301
427.641756	2540.842362
428.019662	2539.062834
428.397508	2540.325643
428.775292	2540.696168
429.153016	2540.502084
429.530679	2540.537372
429.908282	2540.655839
430.285824	2540.333205
430.663305	2540.590304
431.040726	2539.254398
431.418086	2541.449821
431.795385	2541.462423
432.172624	2540.048380
432.549802	2541.467465
432.926920	2540.391178
433.303977	2539.536703
433.680974	2541.311189
434.057910	2540.136600
434.434786	2541.669111
434.811601	2540.423946
435.188355	2542.359749
435.565050	2541.800181
435.941683	2541.439738
436.318257	2541.780016
436.694770	2542.611807
437.071222	2540.635674
437.447614	2544.711447
437.823946	2543.075593
438.200218	2541.064172
438.576429	2542.306817
438.952580	2540.522248
439.328670	2540.902855
439.704700	2545.144986
440.080670	2543.569626
440.456580	2543.597352
440.832429	2540.260108
441.208218	2544.025850
441.583947	2543.531817
441.959616	2539.808925
442.335224	2543.738504
442.710773	2544.653474
443.086261	2544.325799
443.461689	2544.960984
443.837057	2543.851930
444.212365	2542.523586
444.587612	2541.321271
444.962800	2540.318082
445.337927	2544.439225
445.712995	2541.575849
446.088002	2544.774462
446.462949	2542.662218
446.837837	2546.367466
447.212664	2545.664225
447.587431	2542.778165
447.962139	2545.959133
448.336786	2545.235727
448.711374	2544.308155
449.085901	2546.866540
449.460369	2543.819163
449.834776	2546.916952
450.209124	2545.407126
450.583412	2542.712630
450.957640	2544.625748
451.331808	2545.601211
451.705917	2545.150028
452.079965	2544.870243
452.453954	2545.523073
452.827883	2546.155738
453.201752	2545.389482
453.575562	2547.355532
453.949311	2545.780172
454.323001	2548.081458
454.696632	2546.511139
455.070202	2543.980480
455.443713	2546.082641
455.817164	2545.797816
456.190556	2547.688248
456.563888	2547.254709
456.937160	2548.572971
457.310373	2547.305121
457.683526	2546.957281
458.056619	2546.027188
458.429653	2548.275543
458.802628	2546.889226
459.175542	2547.494164
459.548398	2545.911242
459.921194	2548.613300
460.293930	2546.319575
460.666607	2548.320913
461.039224	2548.981304
461.411782	2546.589277
461.784280	2549.152704
462.156719	2548.527601
462.529099	2549.271171
462.901419	2548.567930
463.273680	2545.434853
463.645882	2542.810932
464.018024	2545.492826
464.390106	2544.005686
464.762130	2549.228321
465.134094	2549.485420
465.505999	2548.071376
465.877845	2547.612631
466.249631	2547.723537
466.621358	2547.312682
466.993026	2549.107333
467.364634	2550.128167
467.736184	2549.145142
468.107674	2548.711603
468.479105	2549.634134
468.850477	2547.557178
469.221790	2548.212528
469.593043	2548.406613
469.964238	2550.728064
470.335373	2545.944009
470.706449	2548.262940
471.077467	2548.741850
471.448425	2549.636654
471.819324	2552.177396
472.190164	2550.355019
472.560945	2549.787889
472.931667	2546.906870
473.302330	2549.009031
473.672934	2545.815460
474.043479	2549.016593
474.413965	2549.389638
474.784393	2549.440049
475.154761	2550.367622
475.525070	2550.975081
475.895321	2551.461552
476.265513	2551.476676
476.635645	2551.408620
477.005719	2549.739998
477.375734	2550.652447
477.745691	2550.090358
478.115588	2550.400389
478.485427	2552.280740
478.855207	2552.913404
479.224928	2552.376522
479.594591	2552.081614
479.964194	2550.654967
480.333739	2549.639175
480.703226	2551.650595
481.072653	2551.557334
481.442022	2549.245965
481.811333	2548.504915
482.180584	2547.060625
482.549777	2547.146324
482.918912	2544.169523
483.287988	2552.885678
483.657005	2551.138918
484.025964	2549.140101
484.394864	2551.574978
484.763706	2551.171686
485.132489	2551.335523
485.501213	2551.940462
485.869879	2548.729247
486.238487	2550.753270
486.607036	2550.148332
486.975527	2552.114382
487.343959	2550.476007
487.712333	2549.939124
488.080648	2551.141439
488.448905	2551.469114
488.817104	2549.792930
489.185244	2551.020451
489.553326	2551.544731
489.921350	2549.734957
490.289315	2551.096068
490.657222	2553.543549
491.025070	2553.591440
491.392861	2553.175544
491.760593	2553.591440
492.128267	2552.285781
492.495883	2552.351316
492.863440	2550.039947
493.230939	2551.113712
493.598380	2553.785524
493.965763	2550.791079
494.333088	2550.412992
494.700354	2550.649926
495.067563	2551.834597
495.434713	2553.162942
495.801805	2553.341902
496.168839	2552.220246
496.535815	2553.914073
496.902733	2552.316028
497.269593	2553.198230
497.636395	2552.941131
498.003139	2553.377191
498.369825	2550.118085
498.736453	2551.769062
499.103023	2552.784855
499.469535	2554.067829
499.835989	2553.941800
500.202385	2551.322920
500.568723	2548.230173
500.935003	2551.033054
501.301226	2547.398382
501.667390	2552.227807
502.033497	2556.283416
502.399546	2553.288970
502.765537	2552.305945
503.131470	2551.423743
503.497345	2554.113199
503.863163	2554.282078
504.228923	2550.382745
504.594625	2553.772921
504.960269	2551.164124
505.325856	2553.530946
505.691385	2552.169834
506.056856	2552.454659
506.422270	2552.265616
506.787625	2554.138405
507.152924	2553.896429
507.518164	2553.094886
507.883347	2552.900802
508.248472	2555.244938
508.613540	2554.196378
508.978550	2554.887016
509.343503	2552.222766
509.708398	2553.021789
510.073236	2554.970195
510.438016	2552.384083
510.802738	2552.363919
511.167403	2555.461708
511.532010	2553.765359
511.896561	2556.389280
512.261053	2554.536656
512.625488	2553.840977
512.989866	2554.042623
513.354186	2554.118240
513.718449	2554.806358
514.082655	2553.525905
514.446803	2552.305945
514.810894	2556.679146
515.174927	2554.231666
515.538904	2551.895091
515.902822	2555.832233
516.266684	2554.647561
516.630488	2552.928528
516.994235	2554.050185
517.357925	2555.302911
517.721558	2555.260062
518.085133	2554.642520
518.448651	2551.237221
518.812112	2552.242931
519.175516	2555.393652
519.538863	2549.538352
519.902152	2552.615976
520.265385	2554.087993
520.628560	2554.110678
520.991678	2554.904660
521.354739	2554.176213
521.717743	2554.501368
522.080690	2553.170503
522.443580	2552.429454
522.806413	2556.336348
523.169189	2557.286605
523.531908	2554.783672
523.894569	2554.307283
524.257174	2556.543035
524.619722	2552.492468
524.982213	2554.536656
525.344647	2556.480021
525.707025	2556.709393
526.069345	2554.062787
526.431608	2553.009186
526.793815	2553.866182
527.155964	2555.209650
527.518057	2554.120761
527.880093	2553.732592
528.242072	2554.357695
528.603995	2555.431461
528.965860	2556.842984
529.327669	2555.454146
529.689421	2554.829043
530.051117	2555.491955
530.412755	2553.901471
530.774337	2555.623025
531.135862	2553.629248
531.497331	2556.984136
531.858743	2555.040771
532.220098	2556.477500
532.581396	2553.604042
532.942638	2554.975236
533.303824	2553.861141
533.664953	2555.071018
534.026025	2556.253169
534.387040	2555.665874
534.747999	2553.530946
535.108902	2558.277192
535.469748	2556.240566
535.830537	2555.207129
536.191270	2558.158725
536.551947	2551.206974
536.912567	2551.716130
537.273131	2555.499516
537.633638	2552.742005
537.994089	2556.626214
538.354483	2556.036399
538.714821	2554.587068
539.075103	2555.857438
539.435328	2554.642520
539.795497	2553.790565
540.155609	2555.280226
540.515665	2555.418858
540.875665	2557.412634
541.235609	2556.071687
541.595496	2555.708724
541.955328	2554.647561
542.315102	2555.058415
542.674821	2555.192006
543.034483	2558.282233
543.394090	2556.157387
543.753640	2556.719476
544.113134	2557.551266
544.472571	2554.682849
544.831953	2557.299208
545.191278	2558.186451
545.550548	2556.447253
545.909761	2555.219732
546.268918	2555.247459
546.628019	2555.607901
546.987064	2556.724517
547.346053	2553.125133
547.704986	2554.685370
548.063863	2557.425237
548.422684	2555.416337
548.781449	2555.197047
549.140158	2555.980947
549.498811	2557.006821
549.857408	2550.816284
550.215949	2557.024465
550.574434	2554.652602
550.932864	2556.056564
551.291237	2554.755946
551.649555	2556.863148
552.007817	2555.809547
552.366022	2556.885834
552.724173	2557.074877
553.082267	2556.081770
553.440305	2554.987839
553.798288	2557.188303
554.156215	2555.985988
554.514086	2556.094372
554.871902	2551.648075
555.229661	2552.184958
555.587365	2551.378373
555.945014	2557.518498
556.302606	2556.598488
556.660143	2556.598488
557.017625	2556.820299
557.375050	2556.774928
557.732421	2555.295350
558.089735	2557.110165
558.446994	2558.607388
558.804197	2557.984805
559.161345	2556.984136
559.518437	2554.783672
559.875474	2555.381049
560.232455	2555.933056
560.589381	2555.461708
560.946251	2555.396173
561.303065	2555.433981
561.659825	2557.294167
562.016528	2556.369115
562.373177	2556.961451
562.729770	2554.473642
563.086307	2558.814075
563.442789	2557.904147
563.799216	2559.643345
564.155587	2553.896429
564.511904	2559.199723
564.868164	2557.026986
565.224370	2555.985988
565.580520	2557.778118
565.936615	2555.983467
566.292654	2556.527912
566.648638	2554.975236
567.004567	2554.574465
567.360441	2560.233160
567.716260	2556.190154
568.072023	2557.198385
568.427732	2557.319373
568.783385	2557.125288
569.138982	2556.706873
569.494525	2557.364743
569.850013	2554.488765
570.205445	2555.643189
570.560823	2557.818447
570.916145	2556.601008
571.271412	2556.112017
571.626625	2558.408262
571.981782	2557.778118
572.336884	2553.878785
572.691931	2553.006666
573.046923	2555.706204
573.401860	2550.344937
573.756743	2555.784342
574.111570	2556.548076
574.466342	2557.281564
574.821059	2557.037068
575.175722	2556.565720
575.530330	2555.365926
575.884882	2556.855587
576.239380	2555.885165
576.593823	2558.267110
576.948211	2554.299722
577.302544	2559.378684
577.656823	2555.290308
578.011047	2559.045968
578.365216	2556.540515
578.719330	2557.488252
579.073389	2556.721996
579.427394	2559.071174
579.781344	2559.628221
580.135239	2557.710062
580.489080	2556.588406
580.842866	2555.668395
581.196597	2562.242060
581.550273	2556.817778
581.903895	2555.985988
582.257463	2557.120247
582.610975	2560.303736
582.964434	2555.751574
583.317837	2554.443395
583.671186	2555.134033
584.024481	2556.550597
584.377721	2557.999929
584.730906	2552.900802
585.084037	2556.308622
585.437113	2556.568241
585.790135	2555.711245
586.143103	2559.187120
586.496016	2560.346586
586.848874	2558.103272
587.201679	2557.916750
587.554428	2556.664023
587.907124	2557.246276
588.259765	2559.769374
588.612352	2557.954558
588.964884	2559.978582
589.317362	2559.124106
589.669786	2557.941955
590.022155	2557.014383
590.374470	2550.851572
590.726731	2558.146122
591.078937	2550.833928
591.431090	2556.018755
591.783188	2558.715773
592.135232	2562.436144
592.487222	2556.071687
592.839157	2558.914898
593.191038	2556.384239
593.542866	2559.295505
593.894639	2554.604712
594.246358	2559.209806
594.598022	2558.156204
594.949633	2557.246276
595.301190	2556.820299
595.652692	2556.948848
596.004141	2556.220401
596.355535	2558.924980
596.706876	2558.194013
597.058162	2552.996583
597.409395	2556.301060
597.760573	2556.293498
598.111698	2557.568910
598.462768	2556.492624
598.813785	2558.551935
599.164748	2555.900288
599.515657	2554.952551
599.866511	2556.139743
600.217312	2558.307439
600.568060	2560.974209
600.918753	2559.562686
601.269392	2559.371123
601.619978	2556.545556
601.970510	2557.813406
602.320988	2555.491955
602.671412	2558.022614
603.021783	2556.732078
603.372100	2556.149825
603.722363	2557.546225
604.072572	2557.263920
604.422728	2556.858107
604.772830	2557.954558
605.122878	2557.803324
605.472872	2554.866852
605.822813	2556.026317
606.172701	2557.266441
606.522534	2556.832902
606.872314	2558.047820
607.222041	2558.856925
607.571714	2553.437684
607.921333	2555.590257
608.270899	2556.069167
608.620411	2555.577654
608.969870	2558.582182
609.319276	2559.255176
609.668627	2563.341031
610.017926	2570.275138
610.367171	2572.833524
610.716362	2569.912175
611.065500	2566.353121
611.414585	2570.325550
611.763616	2565.274314
612.112594	2562.471432
612.461518	2560.780125
612.810389	2560.966648
613.159207	2562.882286
613.507971	2561.286761
613.856682	2562.789025
614.205340	2560.875907
614.553945	2560.644014
614.902496	2562.708366
615.250994	2557.793241
615.599439	2559.245094
615.947830	2558.541853
616.296169	2558.408262
616.644454	2557.636966
616.992686	2559.822306
617.340864	2557.589075
617.688990	2558.045299
618.037063	2558.564538
618.385082	2559.517316
618.733048	2560.437327
619.080961	2559.108983
619.428821	2557.130330
619.776628	2557.619322
620.124382	2557.420196
620.472083	2557.828529
620.819731	2557.097562
621.167326	2558.982954
621.514868	2557.455484
621.862357	2557.911708
622.209793	2559.043447
622.557176	2557.407593
622.904506	2557.289126
623.251783	2556.638817
623.599007	2558.015052
623.946179	2557.221070
624.293297	2557.795762
624.640363	2557.064795
624.987376	2554.904660
625.334336	2553.319217
625.681243	2556.003632
626.028097	2551.753939
626.374899	2558.851884
626.721647	2558.118396
627.068343	2557.153015
627.414987	2559.025803
627.761577	2558.259548
628.108115	2556.785011
628.454600	2559.693756
628.801032	2556.711914
629.147412	2557.256358
629.493739	2557.420196
629.840014	2559.509754
630.186236	2558.861966
630.532405	2559.537481
630.878521	2560.084446
631.224585	2557.309291
631.570597	2557.551266
631.916556	2559.361040
632.262462	2558.201575
632.608316	2559.466904
632.954117	2556.505227
633.299866	2560.051678
633.645562	2556.338868
633.991206	2557.173179
634.336797	2556.537994
634.682336	2555.189485
635.027823	2557.263920
635.373257	2554.201419
635.718639	2557.876420
636.063968	2556.311142
636.409245	2556.233004
636.754470	2556.432130
637.099642	2555.880123
637.444762	2559.020762
637.789829	2553.780483
638.134845	2559.575289
638.479808	2555.280226
638.824719	2556.963972
639.169577	2557.210988
639.514383	2557.823488
639.859137	2556.333827
640.203839	2558.884651
640.548489	2556.820299
640.893086	2558.516647
641.237632	2554.224104
641.582125	2557.934394
641.926566	2555.854918
642.270955	2552.326110
642.615292	2553.243600
642.959576	2553.528425
643.303809	2549.281253
643.647990	2557.145453
643.992118	2557.755433
644.336195	2558.655279
