Dividing Wavelength (nm)	Counts (n)	Blue Motor Position (mm): 3.200000	Red Motor Position (mm): 0.000000	
326.493990	2161.682057
326.888308	2161.682057
327.282561	2161.682057
327.676750	2121.723351
328.070874	2114.448966
328.464933	2117.403083
328.858929	2121.511623
329.252859	2127.336676
329.646726	2133.628036
330.040528	2147.685294
330.434265	2158.506130
330.827938	2179.787361
331.221547	2196.788653
331.615091	2211.569316
332.008571	2230.319888
332.401986	2249.882085
332.795338	2266.845568
333.188625	2286.894237
333.581847	2306.312761
333.975006	2323.858497
334.368100	2342.596466
334.761129	2359.655731
335.154095	2377.834131
335.546996	2396.007491
335.939833	2408.829666
336.332606	2422.332396
336.725315	2435.336053
337.117960	2452.695266
337.510540	2460.975361
337.903056	2473.207721
338.295508	2481.944041
338.687896	2491.897799
339.080220	2497.165805
339.472480	2503.852895
339.864676	2511.596107
340.256807	2512.677435
340.648875	2519.145235
341.040879	2520.864269
341.432818	2527.619415
341.824694	2526.074301
342.216506	2528.204189
342.608253	2531.060003
342.999937	2531.186031
343.391557	2527.747964
343.783113	2530.124868
344.174605	2527.599250
344.566033	2525.030783
344.957397	2527.695032
345.348697	2527.148067
345.739934	2524.687984
346.131106	2521.628004
346.522215	2518.230266
346.913260	2519.432581
347.304241	2514.547703
347.695159	2511.878412
348.086012	2517.169103
348.476802	2510.270284
348.867528	2507.686693
349.258191	2504.477998
349.648789	2500.409787
350.039324	2499.923316
350.429796	2499.794766
350.820203	2496.974241
351.210548	2500.288799
351.600828	2498.955414
351.991045	2500.122441
352.381198	2495.736638
352.771288	2494.173880
353.161314	2496.112203
353.551276	2495.582882
353.941175	2495.691267
354.331010	2495.870228
354.720782	2493.382419
355.110490	2495.063643
355.500135	2494.315032
355.889717	2494.708242
356.279235	2495.371154
356.668689	2492.563231
357.058080	2497.541371
357.447408	2495.429127
357.836672	2494.683036
358.225873	2496.021463
358.615010	2497.674961
359.004084	2496.056751
359.393095	2498.821824
359.782043	2497.228819
360.170927	2498.206803
360.559748	2498.060609
360.948505	2498.683192
361.337199	2500.883656
361.725830	2499.840137
362.114398	2501.821310
362.502903	2498.269817
362.891344	2503.925992
363.279722	2504.230982
363.668037	2501.382730
364.056289	2502.824500
364.444478	2503.910868
364.832603	2504.747700
365.220665	2503.913389
365.608665	2504.515807
365.996601	2504.160406
366.384474	2505.002278
366.772284	2504.775426
367.160031	2505.319871
367.547715	2508.314316
367.935336	2505.894563
368.322893	2505.597134
368.710388	2505.854233
369.097820	2506.355828
369.485189	2503.373986
369.872495	2507.560664
370.259738	2508.155520
370.646918	2506.474295
371.034035	2507.028822
371.421090	2509.766169
371.808081	2512.763135
372.195010	2509.665346
372.581875	2510.199708
372.968678	2512.004441
373.355418	2507.885818
373.742096	2510.202228
374.128710	2510.781961
374.515262	2509.660304
374.901751	2511.986797
375.288177	2512.407733
375.674540	2512.763135
376.060841	2511.815398
376.447079	2515.198012
376.833254	2511.759945
377.219367	2512.218690
377.605417	2513.390758
377.991404	2514.688855
378.377329	2512.947137
378.763191	2513.473937
379.148991	2512.253978
379.534727	2511.676766
379.920402	2514.020902
380.306013	2515.180368
380.691563	2515.439987
381.077049	2511.916221
381.462474	2515.613907
381.847835	2515.021572
382.233134	2513.466376
382.618371	2515.245903
383.003545	2514.779596
383.388657	2516.382683
383.773706	2516.032323
384.158693	2514.862775
384.543618	2515.313958
384.928480	2520.322345
385.313280	2516.670029
385.698017	2518.434433
386.082692	2517.307735
386.467305	2516.533918
386.851856	2518.406706
387.236344	2518.361336
387.620770	2516.065090
388.005133	2511.139883
388.389435	2518.492406
388.773674	2515.185409
389.157851	2519.203209
389.541965	2519.147756
389.926018	2519.241017
390.310008	2520.763446
390.693936	2520.302180
391.077802	2519.477952
391.461606	2517.869823
391.845348	2519.954341
392.229027	2522.754702
392.612645	2522.792510
392.996200	2520.133302
393.379694	2522.890813
393.763125	2520.115658
394.146494	2520.208919
394.529801	2523.026924
394.913047	2523.994825
395.296230	2519.959382
395.679351	2520.828981
396.062410	2522.875689
396.445408	2523.599095
396.828343	2524.009949
397.211217	2522.258148
397.594028	2526.361647
397.976778	2522.295957
398.359466	2522.071625
398.742092	2524.002387
399.124656	2521.731347
399.507158	2524.231760
399.889598	2525.492048
400.271977	2523.052130
400.654294	2528.143695
401.036549	2525.550021
401.418742	2526.230577
401.800874	2523.329393
402.182944	2524.725793
402.564952	2524.871986
402.946898	2524.241842
403.328783	2524.607326
403.710606	2527.183355
404.092367	2523.894002
404.474067	2526.994312
404.855705	2527.059847
405.237282	2528.305012
405.618797	2525.686132
406.000250	2526.026410
406.381642	2529.514889
406.762972	2523.843591
407.144240	2523.894002
407.525447	2526.510361
407.906593	2526.769981
408.287677	2527.536236
408.668700	2527.135464
409.049661	2529.141843
409.430560	2525.817203
409.811399	2529.023376
410.192176	2526.248221
410.572891	2528.080681
410.953545	2528.927594
411.334138	2529.782070
411.714669	2529.401463
412.095139	2530.001360
412.475547	2525.587830
412.855894	2530.490352
413.236180	2529.789632
413.616405	2533.179808
413.996568	2530.550846
414.376670	2528.405835
414.756711	2530.099663
415.136691	2527.798376
415.516609	2530.755013
415.896466	2529.247708
416.276262	2529.456916
416.655997	2530.132430
417.035670	2530.820548
417.415283	2531.155784
417.794834	2528.602440
418.174324	2529.769467
418.553753	2529.701412
418.933121	2532.937832
419.312428	2532.862215
419.691674	2534.147709
420.070859	2532.060672
420.449983	2531.667462
420.829045	2530.835671
421.208047	2532.791639
421.586988	2533.124355
421.965867	2535.029911
422.344686	2533.714170
422.723444	2534.417411
423.102141	2531.571680
423.480777	2533.820034
423.859352	2535.029911
424.237866	2532.716022
424.616319	2535.186187
424.994712	2532.713501
425.373044	2533.643594
425.751314	2531.717873
426.129524	2530.863397
426.507673	2532.405991
426.885762	2529.098994
427.263789	2534.576207
427.641756	2534.805580
428.019662	2537.580735
428.397508	2538.105015
428.775292	2536.310364
429.153016	2534.813142
429.530679	2535.014788
429.908282	2535.050076
430.285824	2536.552340
430.663305	2537.182484
431.040726	2535.909593
431.418086	2535.413039
431.795385	2535.428162
432.172624	2536.791794
432.549802	2540.766744
432.926920	2539.375386
433.303977	2538.107536
433.680974	2536.789274
434.057910	2536.406146
434.434786	2538.155427
434.811601	2539.806404
435.188355	2536.746424
435.565050	2538.067206
435.941683	2535.735673
436.318257	2538.324305
436.694770	2537.132072
437.071222	2535.773481
437.447614	2542.475695
437.823946	2536.864891
438.200218	2537.716846
438.576429	2535.433203
438.952580	2538.331867
439.328670	2536.620395
439.704700	2536.335570
440.080670	2537.263142
440.456580	2538.150385
440.832429	2536.668286
441.208218	2540.872608
441.583947	2537.999151
441.959616	2538.851106
442.335224	2538.558719
442.710773	2538.530993
443.086261	2538.626774
443.461689	2537.840354
443.837057	2540.809594
444.212365	2540.960829
444.587612	2537.782381
444.962800	2533.540250
445.337927	2538.984696
445.712995	2536.045704
446.088002	2538.926723
446.462949	2541.404450
446.837837	2539.193904
447.212664	2540.766744
447.587431	2539.781199
447.962139	2538.180632
448.336786	2540.071065
448.711374	2541.843031
449.085901	2540.373534
449.460369	2541.553164
449.834776	2542.233720
450.209124	2538.130221
450.583412	2539.521579
450.957640	2537.729449
451.331808	2541.469985
451.705917	2541.268339
452.079965	2541.175078
452.453954	2540.081147
452.827883	2543.985521
453.201752	2541.563247
453.575562	2541.285983
453.949311	2539.856816
454.323001	2539.927392
454.696632	2541.361600
455.070202	2539.584594
455.443713	2538.704912
455.817164	2541.724563
456.190556	2541.054090
456.563888	2543.297403
456.937160	2538.906558
457.310373	2543.176416
457.683526	2542.969728
458.056619	2544.222455
458.429653	2542.989893
458.802628	2539.945036
459.175542	2546.228834
459.548398	2542.397557
459.921194	2543.083154
460.293930	2541.953936
460.666607	2542.584080
461.039224	2541.674152
461.411782	2544.446787
461.784280	2543.483926
462.156719	2543.403268
462.529099	2543.123484
462.901419	2543.403268
463.273680	2543.655325
463.645882	2538.601569
464.018024	2540.040818
464.390106	2538.173071
464.762130	2545.626417
465.134094	2542.389996
465.505999	2544.542568
465.877845	2543.070552
466.249631	2543.592311
466.621358	2544.154400
466.993026	2546.367466
467.364634	2548.630944
467.736184	2545.482744
468.107674	2545.649102
468.479105	2544.295552
468.850477	2546.332178
469.221790	2546.803526
469.593043	2544.887887
469.964238	2546.949719
470.335373	2546.866540
470.706449	2544.550130
471.077467	2545.122301
471.448425	2540.681045
471.819324	2545.823022
472.190164	2544.971067
472.560945	2544.822352
472.931667	2543.930068
473.302330	2546.639688
473.672934	2543.758669
474.043479	2546.589277
474.413965	2543.788916
474.784393	2542.657177
475.154761	2546.296890
475.525070	2546.112888
475.895321	2544.298072
476.265513	2545.644061
476.635645	2545.661705
477.005719	2546.707744
477.375734	2544.275387
477.745691	2548.063814
478.115588	2543.420912
478.485427	2548.633465
478.855207	2549.341747
479.224928	2545.034081
479.594591	2547.184133
479.964194	2546.521221
480.333739	2545.147507
480.703226	2545.200439
481.072653	2546.879143
481.442022	2545.656663
481.811333	2543.816642
482.180584	2541.938812
482.549777	2546.193546
482.918912	2541.807742
483.287988	2546.518701
483.657005	2546.473330
484.025964	2547.433670
484.394864	2547.211859
484.763706	2546.737991
485.132489	2544.713968
485.501213	2546.304452
485.869879	2546.813608
486.238487	2546.039791
486.607036	2546.395192
486.975527	2548.588094
487.343959	2545.999462
487.712333	2546.858979
488.080648	2545.225645
488.448905	2548.946016
488.817104	2547.902498
489.185244	2545.409647
489.553326	2547.274874
489.921350	2546.803526
490.289315	2547.531973
490.657222	2549.092210
491.025070	2549.707231
491.392861	2547.811757
491.760593	2548.058773
492.128267	2548.313352
492.495883	2547.272353
492.863440	2548.063814
493.230939	2546.304452
493.598380	2552.200081
493.965763	2547.673125
494.333088	2547.017775
494.700354	2549.160265
495.067563	2547.577343
495.434713	2548.086500
495.801805	2547.778989
496.168839	2547.794113
496.535815	2550.004659
496.902733	2548.015923
497.269593	2544.686241
497.636395	2547.625234
498.003139	2547.526932
498.369825	2548.187323
498.736453	2548.351160
499.103023	2548.656150
499.469535	2552.066491
499.835989	2548.883002
500.202385	2545.160110
500.568723	2542.450490
500.935003	2544.764379
501.301226	2543.037784
501.667390	2548.799823
502.033497	2551.461552
502.399546	2548.880481
502.765537	2548.777138
503.131470	2545.787733
503.497345	2550.849052
503.863163	2547.910059
504.228923	2549.936603
504.594625	2549.818136
504.960269	2550.264278
505.325856	2549.566078
505.691385	2548.394010
506.056856	2549.936603
506.422270	2548.850234
506.787625	2544.552651
507.152924	2546.669935
507.518164	2548.441901
507.883347	2548.250337
508.248472	2548.598177
508.613540	2549.596325
508.978550	2548.520039
509.343503	2551.660678
509.708398	2548.532642
510.073236	2549.435008
510.438016	2551.282591
510.802738	2548.860317
511.167403	2551.663198
511.532010	2549.929041
511.896561	2549.916438
512.261053	2549.805533
512.625488	2548.673794
512.989866	2549.049360
513.354186	2550.549103
513.718449	2549.500543
514.082655	2547.940306
514.446803	2550.687735
514.810894	2548.857796
515.174927	2552.416851
515.538904	2550.647406
515.902822	2549.329144
516.266684	2552.096738
516.630488	2550.773435
516.994235	2549.939124
517.357925	2549.505584
517.721558	2551.741336
518.085133	2550.171017
518.448651	2548.807385
518.812112	2546.846376
519.175516	2545.449976
519.538863	2546.183464
519.902152	2549.636654
520.265385	2549.661860
520.628560	2551.101110
520.991678	2549.866027
521.354739	2548.497354
521.717743	2550.884340
522.080690	2550.223949
522.443580	2547.952909
522.806413	2550.297046
523.169189	2552.487427
523.531908	2549.825698
523.894569	2550.932231
524.257174	2550.675132
524.619722	2549.044319
524.982213	2550.057591
525.344647	2551.126315
525.707025	2549.835780
526.069345	2549.578681
526.431608	2551.688404
526.793815	2551.811912
527.155964	2552.444577
527.518057	2551.038095
527.880093	2550.695297
528.242072	2550.150852
528.603995	2550.503733
528.965860	2550.881819
529.327669	2552.386604
529.689421	2552.169834
530.051117	2550.990204
530.412755	2548.353681
530.774337	2551.895091
531.135862	2549.987015
531.497331	2550.044988
531.858743	2550.017262
532.220098	2549.061963
532.581396	2552.724361
532.942638	2550.513815
533.303824	2550.755791
533.664953	2549.170348
534.026025	2550.329813
534.387040	2549.833259
534.747999	2552.129505
535.108902	2552.636141
535.469748	2550.319731
535.830537	2549.737478
536.191270	2551.327962
536.551947	2549.185471
536.912567	2547.254709
537.273131	2550.382745
537.633638	2543.536858
537.994089	2551.098589
538.354483	2551.343085
538.714821	2552.903322
539.075103	2552.406768
539.435328	2551.451470
539.795497	2551.758980
540.155609	2551.169165
540.515665	2552.147149
540.875665	2553.346944
541.235609	2551.736295
541.595496	2552.154711
541.955328	2551.214536
542.315102	2553.621687
542.674821	2552.764690
543.034483	2551.143959
543.394090	2552.051367
543.753640	2551.254865
544.113134	2551.627910
544.472571	2553.077242
544.831953	2554.163611
545.191278	2551.335523
545.550548	2553.059598
545.909761	2553.382232
546.268918	2552.177396
546.628019	2552.250493
546.987064	2549.107333
547.346053	2550.019782
547.704986	2553.919115
548.063863	2553.639331
548.422684	2550.153373
548.781449	2553.107489
549.140158	2550.639844
549.498811	2552.847869
549.857408	2552.023641
550.215949	2548.973743
550.574434	2549.987015
550.932864	2552.623538
551.291237	2550.372663
551.649555	2551.436346
552.007817	2552.971378
552.366022	2553.351985
552.724173	2548.545245
553.082267	2553.273847
553.440305	2552.182437
553.798288	2552.028682
554.156215	2552.991542
554.514086	2547.826880
554.871902	2549.543393
555.229661	2550.753270
555.587365	2547.295038
555.945014	2551.398538
556.302606	2550.917107
556.660143	2552.028682
557.017625	2551.867365
557.375050	2550.458363
557.732421	2553.702345
558.089735	2548.371325
558.446994	2550.292004
558.804197	2553.475493
559.161345	2551.784186
559.518437	2550.554144
559.875474	2552.366439
560.232455	2551.685883
560.589381	2551.441387
560.946251	2551.942982
561.303065	2551.534649
561.659825	2551.645554
562.016528	2551.590102
562.373177	2553.939279
562.729770	2552.215205
563.086307	2549.866027
563.442789	2554.219063
563.799216	2549.442570
564.155587	2552.202602
564.511904	2550.929710
564.868164	2551.685883
565.224370	2553.757798
565.580520	2553.450287
565.936615	2553.407438
566.292654	2550.355019
566.648638	2550.506253
567.004567	2552.603373
567.360441	2551.020451
567.716260	2552.784855
568.072023	2550.891902
568.427732	2553.122612
568.783385	2554.508930
569.138982	2552.421892
569.494525	2552.116902
569.850013	2555.073539
570.205445	2550.077755
570.560823	2551.771583
570.916145	2551.297715
571.271412	2551.723692
571.626625	2552.789896
571.981782	2552.621018
572.336884	2546.969884
572.691931	2547.572302
573.046923	2548.749411
573.401860	2545.041643
573.756743	2548.215049
574.111570	2551.549772
574.466342	2552.689073
574.821059	2550.831408
575.175722	2553.944320
575.530330	2553.349464
575.884882	2552.610935
576.239380	2553.152859
576.593823	2554.423230
576.948211	2551.360729
577.302544	2552.298384
577.656823	2554.791234
578.011047	2554.917263
578.365216	2552.747046
578.719330	2553.510781
579.073389	2552.081614
579.427394	2554.181255
579.781344	2552.096738
580.135239	2556.696790
580.489080	2554.004814
580.842866	2552.734443
581.196597	2555.978426
581.550273	2554.657644
581.903895	2553.397355
582.257463	2553.707386
582.610975	2553.813250
582.964434	2551.776624
583.317837	2553.979608
583.671186	2551.474155
584.024481	2554.987839
584.377721	2553.888868
584.730906	2552.815102
585.084037	2553.992211
585.437113	2552.321069
585.790135	2552.086655
586.143103	2551.247303
586.496016	2553.344423
586.848874	2553.669577
587.201679	2554.718137
587.554428	2554.087993
587.907124	2551.708569
588.259765	2553.364588
588.612352	2553.760318
588.964884	2553.609084
589.317362	2554.576985
589.669786	2554.208981
590.022155	2550.937272
590.374470	2550.846531
590.726731	2551.224618
591.078937	2547.511808
591.431090	2552.926007
591.783188	2553.520863
592.135232	2556.323745
592.487222	2554.952551
592.839157	2550.670091
593.191038	2551.333003
593.542866	2554.854249
593.894639	2553.820812
594.246358	2553.046995
594.598022	2554.846687
594.949633	2551.809392
595.301190	2555.025648
595.652692	2552.966337
596.004141	2551.002807
596.355535	2553.263765
596.706876	2554.231666
597.058162	2550.639844
597.409395	2551.333003
597.760573	2554.861810
598.111698	2552.189999
598.462768	2553.732592
598.813785	2550.816284
599.164748	2552.005997
599.515657	2552.217725
599.866511	2552.537838
600.217312	2553.888868
600.568060	2552.580688
600.918753	2555.416337
601.269392	2552.021120
601.619978	2552.270657
601.970510	2552.678991
602.320988	2553.704866
602.671412	2555.839794
603.021783	2550.735626
603.372100	2555.602860
603.722363	2552.416851
604.072572	2554.748384
604.422728	2553.117571
604.772830	2551.721172
605.122878	2557.069836
605.472872	2553.656975
605.822813	2555.015566
606.172701	2552.159752
606.522534	2554.864331
606.872314	2552.384083
607.222041	2554.093034
607.571714	2552.005997
607.921333	2549.545914
608.270899	2551.771583
608.620411	2550.657488
608.969870	2555.565051
609.319276	2557.218550
609.668627	2561.077553
610.017926	2565.357493
610.367171	2567.036197
610.716362	2567.472257
611.065500	2565.526371
611.414585	2560.830537
611.763616	2560.432285
612.112594	2558.309960
612.461518	2559.645865
612.810389	2558.927501
613.159207	2556.938766
613.507971	2557.878941
613.856682	2556.691749
614.205340	2554.672767
614.553945	2557.150494
614.902496	2555.176883
615.250994	2553.228477
615.599439	2555.285267
615.947830	2552.217725
616.296169	2554.360216
616.644454	2554.019938
616.992686	2553.528425
617.340864	2552.744526
617.688990	2554.269475
618.037063	2552.560524
618.385082	2554.002294
618.733048	2553.044474
619.080961	2554.584547
619.428821	2554.667726
619.776628	2552.298384
620.124382	2554.216543
620.472083	2555.610422
620.819731	2553.999773
621.167326	2552.348795
621.514868	2552.091696
621.862357	2554.839125
622.209793	2551.738816
622.557176	2552.832746
622.904506	2552.605894
623.251783	2556.147305
623.599007	2553.490617
623.946179	2553.407437
624.293297	2556.656461
624.640363	2551.892571
624.987376	2548.799823
625.334336	2550.866696
625.681243	2552.931048
626.028097	2549.233362
626.374899	2554.287119
626.721647	2554.294681
627.068343	2552.487427
627.414987	2554.115720
627.761577	2553.011707
628.108115	2553.596481
628.454600	2552.857952
628.801032	2553.785524
629.147412	2555.451625
629.493739	2555.544887
629.840014	2555.809547
630.186236	2553.510781
630.532405	2556.807696
630.878521	2554.425751
631.224585	2553.059598
631.570597	2553.102448
631.916556	2553.178065
632.262462	2551.111192
632.608316	2552.966337
632.954117	2553.528425
633.299866	2554.332489
633.645562	2553.974567
633.991206	2552.560524
634.336797	2552.742005
634.682336	2554.203940
635.027823	2554.650082
635.373257	2555.701163
635.718639	2553.535987
636.063968	2552.263096
636.409245	2551.244783
636.754470	2552.331151
637.099642	2548.575492
637.444762	2551.350647
637.789829	2552.754608
638.134845	2551.723692
638.479808	2549.339226
638.824719	2554.198899
639.169577	2552.704197
639.514383	2550.856614
639.859137	2553.835936
640.203839	2552.931048
640.548489	2553.069680
640.893086	2552.477345
641.237632	2553.813250
641.582125	2554.443395
641.926566	2551.632951
642.270955	2549.671942
642.615292	2550.044988
642.959576	2548.817467
643.303809	2549.228321
643.647990	2553.543549
643.992118	2551.827036
644.336195	2549.377035
