Dividing Wavelength (nm)	Counts (n)	Blue Motor Position (mm): 9.600000	Red Motor Position (mm): 0.000000	
326.493990	2160.421769
326.888308	2160.421769
327.282561	2160.421769
327.676750	2119.850563
328.070874	2115.966354
328.464933	2117.602208
328.858929	2117.302259
329.252859	2125.910030
329.646726	2133.290279
330.040528	2144.529531
330.434265	2157.933959
330.827938	2178.146466
331.221547	2196.697912
331.615091	2210.946733
332.008571	2230.962635
332.401986	2247.663977
332.795338	2268.579725
333.188625	2286.077570
333.581847	2304.966773
333.975006	2318.787096
334.368100	2339.518842
334.761129	2356.815040
335.154095	2372.656866
335.546996	2394.069167
335.939833	2416.189750
336.332606	2430.390681
336.725315	2443.280911
337.117960	2456.304732
337.510540	2464.889817
337.903056	2476.978504
338.295508	2488.157263
338.687896	2496.923829
339.080220	2503.061434
339.472480	2509.919924
339.864676	2516.607014
340.256807	2521.247397
340.648875	2525.275278
341.040879	2527.962213
341.432818	2530.399611
341.824694	2535.392874
342.216506	2536.315405
342.608253	2534.634181
342.999937	2534.621578
343.391557	2535.055117
343.783113	2535.796167
344.174605	2536.673327
344.566033	2532.332894
344.957397	2532.511855
345.348697	2530.260980
345.739934	2529.996319
346.131106	2528.635207
346.522215	2529.461957
346.913260	2524.244363
347.304241	2521.517098
347.695159	2518.580626
348.086012	2520.818898
348.476802	2518.174813
348.867528	2510.870181
349.258191	2510.010665
349.648789	2507.850530
350.039324	2502.789212
350.429796	2509.607372
350.820203	2507.454800
351.210548	2505.297186
351.600828	2505.982783
351.991045	2501.934736
352.381198	2500.404746
352.771288	2502.932885
353.161314	2500.830723
353.551276	2503.757113
353.941175	2502.776609
354.331010	2499.991371
354.720782	2501.501197
355.110490	2500.671927
355.500135	2500.891217
355.889717	2501.622185
356.279235	2500.414828
356.668689	2502.154026
357.058080	2499.459530
357.447408	2502.234685
357.836672	2500.553460
358.225873	2501.843995
358.615010	2502.111177
359.004084	2504.556136
359.393095	2502.315343
359.782043	2502.058244
360.170927	2503.220230
360.559748	2504.082268
360.948505	2506.373472
361.337199	2506.386075
361.725830	2507.792557
362.114398	2507.066631
362.502903	2507.560664
362.891344	2507.512773
363.279722	2507.411950
363.668037	2510.023268
364.056289	2509.498987
364.444478	2508.957063
364.832603	2509.113339
365.220665	2511.369256
365.608665	2509.975377
365.996601	2511.628875
366.384474	2510.729029
366.772284	2511.654081
367.160031	2511.722136
367.547715	2515.001407
367.935336	2511.308762
368.322893	2512.024606
368.710388	2510.156858
369.097820	2512.437980
369.485189	2509.647702
369.872495	2514.769514
370.259738	2515.908815
370.646918	2515.583660
371.034035	2516.387724
371.421090	2514.197343
371.808081	2515.447549
372.195010	2519.621624
372.581875	2514.028464
372.968678	2517.146418
373.355418	2517.796727
373.742096	2517.930317
374.128710	2516.785975
374.515262	2517.290091
374.901751	2518.530215
375.288177	2517.542148
375.674540	2517.373270
376.060841	2519.641789
376.447079	2516.511233
376.833254	2517.411078
377.219367	2520.128260
377.605417	2518.620955
377.991404	2517.312776
378.377329	2520.244207
378.763191	2519.046933
379.148991	2517.332941
379.534727	2517.128774
379.920402	2520.060205
380.306013	2521.181862
380.691563	2521.522139
381.077049	2523.281502
381.462474	2519.750174
381.847835	2521.343178
382.233134	2521.993487
382.618371	2520.781090
383.003545	2520.740761
383.388657	2521.993487
383.773706	2521.161697
384.158693	2521.557428
384.543618	2523.594054
384.928480	2522.525329
385.313280	2521.668333
385.698017	2520.574403
386.082692	2525.560104
386.467305	2523.820906
386.851856	2523.793179
387.236344	2526.190248
387.620770	2520.818898
388.005133	2522.835360
388.389435	2523.702438
388.773674	2521.113806
389.157851	2524.985412
389.541965	2527.846267
389.926018	2526.021369
390.310008	2523.306708
390.693936	2523.089938
391.077802	2526.003725
391.461606	2526.477594
391.845348	2526.838036
392.229027	2529.164529
392.612645	2525.169414
392.996200	2526.457429
393.379694	2526.407018
393.763125	2527.911802
394.146494	2527.029600
394.529801	2529.545136
394.913047	2529.908099
395.296230	2529.487163
395.679351	2525.991122
396.062410	2528.625125
396.445408	2528.990609
396.828343	2530.056813
397.211217	2529.814837
397.594028	2529.119158
397.976778	2529.358613
398.359466	2529.814838
398.742092	2532.897503
399.124656	2529.744261
399.507158	2530.515558
399.889598	2529.288037
400.271977	2532.849612
400.654294	2530.477749
401.036549	2531.221319
401.418742	2529.648479
401.800874	2529.978675
402.182944	2530.613860
402.564952	2533.499921
402.946898	2534.346835
403.328783	2530.704601
403.710606	2534.135106
404.092367	2531.264169
404.474067	2533.671320
404.855705	2533.111752
405.237282	2535.218954
405.618797	2533.668800
406.000250	2531.725435
406.381642	2532.411032
406.762972	2531.435568
407.144240	2529.668644
407.525447	2532.572349
407.906593	2528.567152
408.287677	2534.888759
408.668700	2532.373223
409.049661	2534.956814
409.430560	2535.400436
409.811399	2534.228368
410.192176	2536.582587
410.572891	2536.116280
410.953545	2535.786084
411.334138	2539.019984
411.714669	2532.882380
412.095139	2535.730632
412.475547	2534.694674
412.855894	2536.459078
413.236180	2534.258615
413.616405	2537.779861
413.996568	2535.859181
414.376670	2533.018491
414.756711	2537.928575
415.136691	2535.433203
415.516609	2536.033101
415.896466	2536.098636
416.276262	2536.874973
416.655997	2538.152906
417.035670	2536.580066
417.415283	2537.316074
417.794834	2539.408153
418.174324	2538.296579
418.553753	2536.328008
418.933121	2540.837320
419.312428	2536.229706
419.691674	2536.897659
420.070859	2537.134593
420.449983	2538.049562
420.829045	2539.032587
421.208047	2539.418236
421.586988	2537.036290
421.965867	2542.601724
422.344686	2538.553678
422.723444	2540.993596
423.102141	2539.539223
423.480777	2539.932433
423.859352	2538.604089
424.237866	2538.407484
424.616319	2538.427649
424.994712	2541.318751
425.373044	2540.537372
425.751314	2536.489325
426.129524	2534.505631
426.507673	2538.833462
426.885762	2536.194418
427.263789	2540.219779
427.641756	2538.674665
428.019662	2540.978473
428.397508	2539.342618
428.775292	2540.081147
429.153016	2540.481919
429.530679	2541.170037
429.908282	2541.164995
430.285824	2544.693803
430.663305	2541.268339
431.040726	2541.316230
431.418086	2541.253216
431.795385	2542.876467
432.172624	2544.053577
432.549802	2542.271529
432.926920	2544.005686
433.303977	2540.935623
433.680974	2542.765562
434.057910	2544.111550
434.434786	2541.076775
434.811601	2542.964687
435.188355	2541.722043
435.565050	2541.101981
435.941683	2542.831097
436.318257	2544.351005
436.694770	2543.090716
437.071222	2541.543082
437.447614	2543.037784
437.823946	2544.923176
438.200218	2542.959646
438.576429	2544.731612
438.952580	2545.089534
439.328670	2543.231868
439.704700	2542.432846
440.080670	2544.018288
440.456580	2544.119112
440.832429	2544.683721
441.208218	2546.927034
441.583947	2546.364946
441.959616	2544.114070
442.335224	2540.686086
442.710773	2543.100798
443.086261	2544.827394
443.461689	2543.630120
443.837057	2543.856972
444.212365	2541.822866
444.587612	2543.743546
444.962800	2539.453524
445.337927	2543.567105
445.712995	2540.461754
446.088002	2543.783875
446.462949	2542.672300
446.837837	2547.098433
447.212664	2543.867054
447.587431	2545.742363
447.962139	2543.262115
448.336786	2542.926879
448.711374	2549.941644
449.085901	2548.598177
449.460369	2542.798329
449.834776	2550.438198
450.209124	2549.044319
450.583412	2547.239586
450.957640	2545.150028
451.331808	2544.872764
451.705917	2545.061807
452.079965	2545.258412
452.453954	2544.401416
452.827883	2548.351160
453.201752	2545.911242
453.575562	2547.199257
453.949311	2544.784544
454.323001	2548.000800
454.696632	2548.804864
455.070202	2547.418547
455.443713	2546.067518
455.817164	2549.104813
456.190556	2545.213042
456.563888	2549.934083
456.937160	2547.915100
457.310373	2546.546427
457.683526	2549.374514
458.056619	2548.411654
458.429653	2547.423588
458.802628	2549.119936
459.175542	2546.811088
459.548398	2549.596325
459.921194	2547.390820
460.293930	2548.618341
460.666607	2547.000131
461.039224	2548.628424
461.411782	2550.705379
461.784280	2549.245965
462.156719	2547.993238
462.529099	2549.762683
462.901419	2548.930893
463.273680	2548.552806
463.645882	2546.475851
464.018024	2547.670604
464.390106	2545.896118
464.762130	2549.039278
465.134094	2550.677653
465.505999	2549.641696
465.877845	2550.223949
466.249631	2550.055070
466.621358	2551.610266
466.993026	2553.704866
467.364634	2552.923487
467.736184	2552.154711
468.107674	2548.736808
468.479105	2551.461552
468.850477	2552.164793
469.221790	2552.747046
469.593043	2550.355019
469.964238	2550.307128
470.335373	2548.630944
470.706449	2548.963660
471.077467	2551.643034
471.448425	2551.741336
471.819324	2551.176727
472.190164	2551.262427
472.560945	2550.395348
472.931667	2552.177396
473.302330	2552.994063
473.672934	2550.264278
474.043479	2552.300904
474.413965	2551.622869
474.784393	2551.738816
475.154761	2550.912066
475.525070	2551.610266
475.895321	2550.092879
476.265513	2554.057746
476.635645	2553.944320
477.005719	2553.248641
477.375734	2552.978939
477.745691	2553.099927
478.115588	2552.545400
478.485427	2555.071018
478.855207	2551.958106
479.224928	2550.450801
479.594591	2554.423230
479.964194	2554.014897
480.333739	2554.965154
480.703226	2554.387942
481.072653	2554.536656
481.442022	2554.077911
481.811333	2551.524567
482.180584	2549.934083
482.549777	2553.062118
482.918912	2549.480379
483.287988	2555.847356
483.657005	2553.079762
484.025964	2553.967006
484.394864	2554.428271
484.763706	2555.345761
485.132489	2555.386090
485.501213	2555.582695
485.869879	2553.604043
486.238487	2557.521019
486.607036	2555.189485
486.975527	2556.684187
487.343959	2553.810730
487.712333	2555.297870
488.080648	2556.747202
488.448905	2554.788714
488.817104	2555.229815
489.185244	2558.221739
489.553326	2556.853066
489.921350	2554.760987
490.289315	2555.184444
490.657222	2559.880279
491.025070	2558.201575
491.392861	2558.773746
491.760593	2559.431616
492.128267	2557.513457
492.495883	2558.806513
492.863440	2557.354661
493.230939	2557.894064
493.598380	2557.775597
493.965763	2557.107644
494.333088	2556.800134
494.700354	2557.165618
495.067563	2558.375495
495.434713	2556.948848
495.801805	2557.062274
496.168839	2556.139743
496.535815	2558.496482
496.902733	2556.774928
497.269593	2559.729044
497.636395	2559.179559
498.003139	2555.280226
498.369825	2557.359702
498.736453	2557.042109
499.103023	2558.766184
499.469535	2560.049158
499.835989	2558.693087
500.202385	2554.415668
500.568723	2554.970195
500.935003	2555.093703
501.301226	2554.491286
501.667390	2558.488921
502.033497	2560.517985
502.399546	2557.740309
502.765537	2555.900288
503.131470	2557.274003
503.497345	2559.945814
503.863163	2558.317521
504.228923	2560.707028
504.594625	2558.340207
504.960269	2556.676626
505.325856	2560.548232
505.691385	2556.689229
506.056856	2560.409600
506.422270	2557.256358
506.787625	2557.785680
507.152924	2560.253324
507.518164	2557.531101
507.883347	2558.403221
508.248472	2559.842470
508.613540	2558.241904
508.978550	2560.487738
509.343503	2558.405742
509.708398	2557.326935
510.073236	2562.201730
510.438016	2560.379353
510.802738	2559.623180
511.167403	2558.902295
511.532010	2559.930691
511.896561	2556.457336
512.261053	2559.928170
512.625488	2560.752399
512.989866	2558.337686
513.354186	2560.258366
513.718449	2560.545711
514.082655	2557.546225
514.446803	2559.035886
514.810894	2561.967317
515.174927	2563.598130
515.538904	2562.264745
515.902822	2560.495300
516.266684	2560.873386
516.630488	2558.330124
516.994235	2558.791390
517.357925	2559.509754
517.721558	2563.252811
518.085133	2561.213664
518.448651	2557.878941
518.812112	2557.823488
519.175516	2558.604867
519.538863	2556.873231
519.902152	2559.303067
520.265385	2562.098387
520.628560	2562.110990
520.991678	2564.636608
521.354739	2562.032852
521.717743	2561.889179
522.080690	2563.335990
522.443580	2562.592420
522.806413	2564.702143
523.169189	2564.437482
523.531908	2565.541495
523.894569	2565.765826
524.257174	2566.161557
524.619722	2566.010322
524.982213	2567.197514
525.344647	2566.227092
525.707025	2565.405384
526.069345	2568.546022
526.431608	2566.842112
526.793815	2569.723132
527.155964	2569.584500
527.518057	2567.820096
527.880093	2568.273800
528.242072	2570.771692
528.603995	2571.709347
528.965860	2571.971487
529.327669	2568.402350
529.689421	2574.325705
530.051117	2570.711198
530.412755	2572.984758
530.774337	2573.267063
531.135862	2574.323185
531.497331	2576.074986
531.858743	2576.271591
532.220098	2577.093299
532.581396	2575.223031
532.942638	2575.379307
533.303824	2576.442990
533.664953	2579.271077
534.026025	2577.584811
534.387040	2577.400809
534.747999	2578.784606
535.108902	2580.138156
535.469748	2577.536920
535.830537	2580.251582
536.191270	2582.091603
536.551947	2582.293249
536.912567	2578.819894
537.273131	2584.231573
537.633638	2579.815522
537.994089	2586.096800
538.354483	2587.352047
538.714821	2587.483117
539.075103	2587.848601
539.435328	2585.406162
539.795497	2587.941862
540.155609	2587.551172
540.515665	2590.054105
540.875665	2589.933118
541.235609	2589.237438
541.595496	2590.003694
541.955328	2592.436051
542.315102	2592.272213
542.674821	2594.094590
543.034483	2594.039137
543.394090	2592.458736
543.753640	2595.029724
544.113134	2594.744899
544.472571	2596.494179
544.831953	2597.262955
545.191278	2600.622884
545.550548	2597.976279
545.909761	2597.245311
546.268918	2597.439396
546.628019	2598.518203
546.987064	2601.575662
547.346053	2600.307812
547.704986	2598.397215
548.063863	2602.536002
548.422684	2601.956270
548.781449	2601.971393
549.140158	2602.478029
549.498811	2606.694954
549.857408	2600.945518
550.215949	2603.256887
550.574434	2603.748400
550.932864	2605.974069
551.291237	2605.127155
551.649555	2606.657146
552.007817	2605.550612
552.366022	2605.825355
552.724173	2605.424583
553.082267	2605.217896
553.440305	2608.862650
553.798288	2607.942640
554.156215	2605.810232
554.514086	2606.415170
554.871902	2599.803697
555.229661	2604.239912
555.587365	2604.028184
555.945014	2603.955087
556.302606	2606.987341
556.660143	2609.618823
557.017625	2611.985645
557.375050	2610.354832
557.732421	2605.210334
558.089735	2607.004985
558.446994	2608.718977
558.804197	2608.910541
559.161345	2609.089502
559.518437	2607.652773
559.875474	2609.689400
560.232455	2607.131014
560.589381	2608.713936
560.946251	2608.096395
561.303065	2608.124121
561.659825	2609.949019
562.016528	2607.897269
562.373177	2608.119080
562.729770	2606.102619
563.086307	2610.564040
563.442789	2609.646550
563.799216	2608.971035
564.155587	2610.687548
564.511904	2611.574791
564.868164	2608.403905
565.224370	2609.921293
565.580520	2605.094388
565.936615	2609.245778
566.292654	2606.425252
566.648638	2611.181581
567.004567	2608.426591
567.360441	2610.135542
567.716260	2607.458689
568.072023	2607.483895
568.427732	2608.819801
568.783385	2605.772423
569.138982	2607.209152
569.494525	2607.879625
569.850013	2609.036570
570.205445	2608.489605
570.560823	2603.544233
570.916145	2607.073041
571.271412	2603.448451
571.626625	2609.548247
571.981782	2609.218052
572.336884	2604.731425
572.691931	2602.568770
573.046923	2600.388471
573.401860	2598.868563
573.756743	2605.374172
574.111570	2606.021960
574.466342	2607.599841
574.821059	2605.538009
575.175722	2603.030035
575.530330	2606.032042
575.884882	2603.554315
576.239380	2603.866867
576.593823	2601.742021
576.948211	2603.032556
577.302544	2601.797473
577.656823	2602.074737
578.011047	2606.745366
578.365216	2604.108842
578.719330	2603.183791
579.073389	2602.092381
579.427394	2602.752772
579.781344	2603.461054
580.135239	2603.899634
580.489080	2600.668255
580.842866	2601.898296
581.196597	2603.090529
581.550273	2603.289655
581.903895	2604.655807
582.257463	2604.320571
582.610975	2601.137082
582.964434	2603.561877
583.317837	2601.643718
583.671186	2603.808894
584.024481	2603.871908
584.377721	2598.825713
584.730906	2602.110025
585.084037	2603.748400
585.437113	2601.452154
585.790135	2602.296547
586.143103	2601.449634
586.496016	2602.500714
586.848874	2604.638163
587.201679	2601.305961
587.554428	2601.608430
587.907124	2602.225971
588.259765	2606.798298
588.612352	2604.436517
588.964884	2602.372165
589.317362	2602.934253
589.669786	2605.953905
590.022155	2600.040631
590.374470	2603.584562
590.726731	2600.620364
591.078937	2599.264293
591.431090	2603.080447
591.783188	2604.166816
592.135232	2604.144130
592.487222	2605.006168
592.839157	2607.040273
593.191038	2606.851230
593.542866	2604.285283
593.894639	2605.792588
594.246358	2606.281580
594.598022	2606.425252
594.949633	2604.862495
595.301190	2606.800818
595.652692	2606.016919
596.004141	2604.670931
596.355535	2607.516662
596.706876	2607.153699
597.058162	2607.352825
597.409395	2605.893411
597.760573	2611.133690
598.111698	2607.320057
598.462768	2610.344750
598.813785	2608.408947
599.164748	2609.865840
599.515657	2610.140583
599.866511	2608.837445
600.217312	2610.692589
600.568060	2610.158227
600.918753	2615.738784
601.269392	2613.964298
601.619978	2610.664863
601.970510	2611.584873
602.320988	2613.553444
602.671412	2614.753239
603.021783	2613.006479
603.372100	2613.394648
603.722363	2617.120060
604.072572	2617.891357
604.422728	2618.987808
604.772830	2619.907818
605.122878	2619.650720
605.472872	2617.288939
605.822813	2620.449742
606.172701	2622.519136
606.522534	2624.795217
606.872314	2626.471401
607.222041	2624.880917
607.571714	2625.160701
607.921333	2621.954527
608.270899	2623.907974
608.620411	2625.881586
608.969870	2631.326032
609.319276	2634.035652
609.668627	2639.522948
610.017926	2644.743063
610.367171	2647.119967
610.716362	2647.170378
611.065500	2648.881850
611.414585	2648.085348
611.763616	2647.225831
612.112594	2647.974442
612.461518	2646.509987
612.810389	2649.539721
613.159207	2648.183650
613.507971	2649.537200
613.856682	2655.226142
614.205340	2651.772952
614.553945	2657.073725
614.902496	2655.077428
615.250994	2658.586071
615.599439	2658.896102
615.947830	2662.712256
616.296169	2662.077070
616.644454	2665.252997
616.992686	2665.782318
617.340864	2671.856909
617.688990	2669.056548
618.037063	2678.579287
618.385082	2680.638599
618.733048	2681.843435
619.080961	2684.976512
619.428821	2690.665454
619.776628	2694.002698
620.124382	2691.933304
620.472083	2695.610826
620.819731	2701.143492
621.167326	2698.451516
621.514868	2698.776670
621.862357	2698.292720
622.209793	2701.725745
622.557176	2701.324974
622.904506	2699.994109
623.251783	2701.541743
623.599007	2705.680531
623.946179	2705.604913
624.293297	2706.408977
624.640363	2705.562063
624.987376	2705.718339
625.334336	2704.702547
625.681243	2709.829400
626.028097	2707.205480
626.374899	2717.844835
626.721647	2715.997252
627.068343	2717.660833
627.414987	2720.625031
627.761577	2726.775239
628.108115	2731.070302
628.454600	2731.173646
628.801032	2735.879563
629.147412	2735.879563
629.493739	2743.332909
629.840014	2748.127046
630.186236	2749.135277
630.532405	2754.519229
630.878521	2761.748244
631.224585	2762.511978
631.570597	2766.670930
631.916556	2772.264091
632.262462	2776.579318
632.608316	2788.063067
632.954117	2788.698252
633.299866	2798.588996
633.645562	2802.442958
633.991206	2802.211065
634.336797	2799.128399
634.682336	2806.591828
635.027823	2806.085192
635.373257	2808.643577
635.718639	2806.924544
636.063968	2808.207517
636.409245	2810.377734
636.754470	2814.723209
637.099642	2817.757983
637.444762	2817.095072
637.789829	2824.777790
638.134845	2824.956751
638.479808	2828.288954
638.824719	2834.204748
639.169577	2837.496621
639.514383	2842.746983
639.859137	2844.438290
640.203839	2851.390041
640.548489	2851.831142
640.893086	2864.025693
641.237632	2857.646113
641.582125	2874.755789
641.926566	2873.694627
642.270955	2877.883825
642.615292	2884.273488
642.959576	2893.730693
643.303809	2902.620767
643.647990	2908.922210
643.992118	2919.896802
644.336195	2917.774476
