Dividing Wavelength (nm)	Counts (n)	Blue Motor Position (mm): 34.800000	Red Motor Position (mm): 0.000000	
326.493990	2228.409290
326.888308	2228.409290
327.282561	2228.409290
327.676750	2190.633404
328.070874	2186.499658
328.464933	2186.839936
328.858929	2189.090811
329.252859	2194.515092
329.646726	2205.376258
330.040528	2216.643237
330.434265	2229.107490
330.827938	2245.713051
331.221547	2261.938004
331.615091	2279.335026
332.008571	2296.810186
332.401986	2316.904225
332.795338	2336.042966
333.188625	2356.762108
333.581847	2376.843545
333.975006	2394.376678
334.368100	2411.579615
334.761129	2433.150713
335.154095	2448.548917
335.546996	2476.802064
335.939833	2514.076355
336.332606	2527.793335
336.725315	2543.675490
337.117960	2553.977088
337.510540	2566.648028
337.903056	2578.141859
338.295508	2584.816347
338.687896	2594.523088
339.080220	2601.225302
339.472480	2609.051694
339.864676	2614.614607
340.256807	2619.648199
340.648875	2621.147942
341.040879	2624.754888
341.432818	2630.252266
341.824694	2632.230919
342.216506	2633.750827
342.608253	2632.266207
342.999937	2633.750827
343.391557	2635.447175
343.783113	2633.302164
344.174605	2631.920888
344.566033	2633.720580
344.957397	2630.466515
345.348697	2628.525671
345.739934	2628.583644
346.131106	2626.967954
346.522215	2626.173973
346.913260	2622.556945
347.304241	2621.926801
347.695159	2620.779938
348.086012	2619.375977
348.476802	2615.388424
348.867528	2612.086468
349.258191	2608.356014
349.648789	2607.942640
350.039324	2605.830396
350.429796	2607.932557
350.820203	2605.563215
351.210548	2605.805191
351.600828	2605.225458
351.991045	2605.427104
352.381198	2602.346959
352.771288	2601.210179
353.161314	2599.942329
353.551276	2600.401074
353.941175	2601.338728
354.331010	2600.126331
354.720782	2599.455857
355.110490	2600.582555
355.500135	2598.712287
355.889717	2598.135075
356.279235	2599.360075
356.668689	2599.062647
357.058080	2602.399891
357.447408	2599.377719
357.836672	2599.581886
358.225873	2598.432503
358.615010	2599.849067
359.004084	2599.864191
359.393095	2602.959459
359.782043	2602.737648
360.170927	2604.386106
360.559748	2602.349480
360.948505	2601.915940
361.337199	2605.709409
361.725830	2605.777464
362.114398	2606.009357
362.502903	2605.144799
362.891344	2610.750562
363.279722	2607.771241
363.668037	2608.686210
364.056289	2609.102105
364.444478	2611.085799
364.832603	2608.643360
365.220665	2610.795933
365.608665	2607.466251
365.996601	2611.325254
366.384474	2608.570263
366.772284	2612.013372
367.160031	2612.479678
367.547715	2613.853393
367.935336	2615.385903
368.322893	2610.243927
368.710388	2609.926334
369.097820	2612.048660
369.485189	2611.121087
369.872495	2615.776593
370.259738	2613.727364
370.646918	2615.703496
371.034035	2616.515122
371.421090	2616.976387
371.808081	2618.897067
372.195010	2617.288939
372.581875	2616.651233
372.968678	2617.591408
373.355418	2617.576285
373.742096	2616.681480
374.128710	2618.345061
374.515262	2619.131481
374.901751	2617.873713
375.288177	2619.650720
375.674540	2617.220883
376.060841	2621.868827
376.447079	2623.240021
376.833254	2619.149125
377.219367	2620.361522
377.605417	2624.006277
377.991404	2620.981584
378.377329	2622.950155
378.763191	2619.338168
379.148991	2621.183230
379.534727	2622.314969
379.920402	2623.545011
380.306013	2622.118364
380.691563	2626.489045
381.077049	2622.728344
381.462474	2625.669857
381.847835	2624.893520
382.233134	2628.049282
382.618371	2627.537605
383.003545	2627.018366
383.388657	2627.295629
383.773706	2629.022225
384.158693	2627.842595
384.543618	2626.549539
384.928480	2630.106073
385.313280	2631.273100
385.698017	2628.084570
386.082692	2629.677575
386.467305	2631.000877
386.851856	2631.096659
387.236344	2634.295272
387.620770	2628.714714
388.005133	2630.373254
388.389435	2631.464664
388.773674	2629.115486
389.157851	2635.323667
389.541965	2637.022536
389.926018	2639.217958
390.310008	2638.366003
390.693936	2639.863226
391.077802	2640.185860
391.461606	2639.540592
391.845348	2639.948926
392.229027	2642.681231
392.612645	2643.830614
392.996200	2643.323978
393.379694	2641.756179
393.763125	2644.123001
394.146494	2642.938330
394.529801	2645.330357
394.913047	2644.901859
395.296230	2647.782879
395.679351	2648.002169
396.062410	2648.559216
396.445408	2648.796151
396.828343	2650.076604
397.211217	2648.347488
397.594028	2648.153403
397.976778	2653.348313
398.359466	2650.240441
398.742092	2652.445946
399.124656	2654.296049
399.507158	2654.827891
399.889598	2653.527273
400.271977	2655.896616
400.654294	2654.278405
401.036549	2658.442398
401.418742	2659.488438
401.800874	2663.506237
402.182944	2660.453819
402.564952	2663.228974
402.946898	2665.671413
403.328783	2669.842968
403.710606	2669.739624
404.092367	2674.206087
404.474067	2680.152127
404.855705	2682.781089
405.237282	2690.234435
405.618797	2702.179449
406.000250	2714.744525
406.381642	2730.430075
406.762972	2746.559247
407.144240	2767.555653
407.525447	2789.230094
407.906593	2816.512818
408.287677	2855.962368
408.668700	2888.432440
409.049661	2935.579831
409.430560	2981.872747
409.811399	3016.412213
410.192176	3092.669747
410.572891	3156.422699
410.953545	3246.215731
411.334138	3270.814041
411.714669	3366.676623
412.095139	3398.219123
412.475547	3516.179602
412.855894	3607.484980
413.236180	3729.067529
413.616405	3736.193200
413.996568	3870.585320
414.376670	3961.089155
414.756711	4015.805839
415.136691	4133.405876
415.516609	4284.259884
415.896466	4380.283783
416.276262	4543.392836
416.655997	4628.631186
417.035670	4807.498886
417.415283	5057.265374
417.794834	5177.716183
418.174324	5225.080344
418.553753	5285.395229
418.933121	5556.727773
419.312428	5706.200506
419.691674	5681.450961
420.070859	6064.384569
420.449983	5990.521583
420.829045	6306.919521
421.208047	6273.542042
421.586988	6571.136477
421.965867	6674.938876
422.344686	6854.368664
422.723444	6981.652758
423.102141	6615.168435
423.480777	7243.714620
423.859352	6973.501212
424.237866	7547.300466
424.616319	7518.729727
424.994712	7927.743744
425.373044	7666.075092
425.751314	8122.612067
426.129524	8082.106396
426.507673	8281.302549
426.885762	8477.615162
427.263789	8454.380484
427.641756	8444.444369
428.019662	8604.395140
428.397508	8863.500365
428.775292	8645.079772
429.153016	9038.030152
429.530679	8932.012167
429.908282	9025.465077
430.285824	8790.118809
430.663305	9464.831881
431.040726	8986.562492
431.418086	9002.510183
431.795385	9335.760699
432.172624	9440.921688
432.549802	9388.546621
432.926920	9493.213577
433.303977	9386.993945
433.680974	9616.515159
434.057910	9711.598883
434.434786	9784.362897
434.811601	9654.359101
435.188355	10221.050328
435.565050	9959.802613
435.941683	9900.992512
436.318257	10399.855014
436.694770	10520.076451
437.071222	10606.640624
437.447614	10459.713675
437.823946	10356.816163
438.200218	10513.775009
438.576429	10327.774076
438.952580	10561.691176
439.328670	10633.290684
439.704700	10410.580069
440.080670	10401.158153
440.456580	10975.504372
440.832429	10712.794722
441.208218	10328.837759
441.583947	10668.092290
441.959616	10798.758998
442.335224	10603.101734
442.710773	10758.371793
443.086261	10953.484612
443.461689	10247.342466
443.837057	10880.355114
444.212365	11175.703715
444.587612	10816.304733
444.962800	11052.376927
445.337927	10840.010759
445.712995	10401.906764
446.088002	11494.972591
446.462949	11145.998716
446.837837	11120.918975
447.212664	11122.390992
447.587431	11617.349121
447.962139	12325.676607
448.336786	14583.042284
448.711374	15146.837369
449.085901	13003.865554
449.460369	12612.477931
449.834776	12062.046946
450.209124	12922.682813
450.583412	13331.437210
450.957640	14285.725113
451.331808	13450.446250
451.705917	12421.463571
452.079965	11742.936866
452.453954	12640.022796
452.827883	12268.895570
453.201752	12564.362638
453.575562	12071.347874
453.949311	12495.881084
454.323001	12448.148919
454.696632	12672.447497
455.070202	12955.924181
455.443713	13211.508160
455.817164	13661.040452
456.190556	13660.894258
456.563888	14025.316749
456.937160	14201.565570
457.310373	13527.449875
457.683526	13609.671094
458.056619	13171.125997
458.429653	13306.155824
458.802628	12750.973551
459.175542	13118.629942
459.548398	14064.088263
459.921194	14385.678591
460.293930	14456.905053
460.666607	15343.928840
461.039224	16380.909310
461.411782	17073.768015
461.784280	16967.871017
462.156719	17016.689551
462.529099	16701.206581
462.901419	15633.613705
463.273680	15419.278967
463.645882	15280.869047
464.018024	15019.908677
464.390106	15238.228447
464.762130	15964.189889
465.134094	16724.494191
465.505999	18701.390234
465.877845	21959.344292
466.249631	24796.621623
466.621358	24494.127186
466.993026	23050.562536
467.364634	22489.461948
467.736184	21032.167715
468.107674	20232.353369
468.479105	20355.720486
468.850477	19822.943621
469.221790	19401.649353
469.593043	18725.975941
469.964238	18167.859717
470.335373	17827.496132
470.706449	18258.353469
471.077467	17808.218760
471.448425	19646.924173
471.819324	23660.486698
472.190164	25694.478849
472.560945	22158.258140
472.931667	19784.277971
473.302330	19143.378438
473.672934	18665.416560
474.043479	18997.681531
474.413965	18805.001069
474.784393	18440.573537
475.154761	19117.794583
475.525070	19118.701990
475.895321	18780.463253
476.265513	19377.290498
476.635645	19942.918041
477.005719	19730.761082
477.375734	19919.209495
477.745691	20405.698485
478.115588	20914.514746
478.485427	21447.561312
478.855207	22499.148525
479.224928	24257.986937
479.594591	26491.248338
479.964194	26528.494903
480.333739	26728.106952
480.703226	26297.176518
481.072653	25956.800331
481.442022	26535.912961
481.811333	27447.628319
482.180584	27374.518986
482.549777	26420.641937
482.918912	26071.615130
483.287988	26206.092950
483.657005	25873.006272
484.025964	25609.449707
484.394864	25529.892738
484.763706	25211.589243
485.132489	24630.472754
485.501213	24820.741023
485.869879	24735.689196
486.238487	24544.425299
486.607036	24700.968249
486.975527	24390.327308
487.343959	24716.915939
487.712333	24657.848740
488.080648	24322.385157
488.448905	24791.330932
488.817104	24543.822881
489.185244	25224.872683
489.553326	25202.139600
489.921350	26191.193820
490.289315	28471.161511
490.657222	30260.483781
491.025070	30753.715314
491.392861	30544.514991
491.760593	29681.411480
492.128267	28796.943558
492.495883	27757.732378
492.863440	26877.065486
493.230939	25987.753015
493.598380	25851.054567
493.965763	25454.272910
494.333088	24988.848381
494.700354	24923.273052
495.067563	24805.998169
495.434713	24546.277923
495.801805	24706.102664
496.168839	24519.695919
496.535815	24346.764177
496.902733	24560.123452
497.269593	24227.871084
497.636395	24412.740278
498.003139	24391.055755
498.369825	24144.639114
498.736453	24344.140257
499.103023	24212.419948
499.469535	24231.387289
499.835989	24433.222486
500.202385	24457.004129
500.568723	23972.559327
500.935003	24210.804258
501.301226	23826.527183
501.667390	24674.600494
502.033497	24910.455918
502.399546	24632.474092
502.765537	24190.443038
503.131470	24577.724641
503.497345	24712.212543
503.863163	23935.481641
504.228923	24528.439800
504.594625	24737.309927
504.960269	24271.706437
505.325856	24773.618838
505.691385	24159.515559
506.056856	24770.231182
506.422270	24730.007816
506.787625	24316.691174
507.152924	24728.263577
507.518164	24757.419090
507.883347	24569.505039
508.248472	24244.262396
508.613540	25026.858681
508.978550	24807.102182
509.343503	24818.033924
509.708398	25062.630708
510.073236	25220.010490
510.438016	25430.082933
510.802738	25110.032678
511.167403	25366.198911
511.532010	25052.868514
511.896561	25840.747928
512.261053	25805.059079
512.625488	25633.483408
512.989866	25531.165629
513.354186	25373.657298
513.718449	25486.377498
514.082655	25872.965942
514.446803	25599.871515
514.810894	26079.756594
515.174927	25547.599791
515.538904	25579.003659
515.902822	26080.212818
516.266684	25830.791649
516.630488	25733.961166
516.994235	25706.680962
517.357925	26006.851427
517.721558	26185.860279
518.085133	26284.200588
518.448651	26192.638111
518.812112	25923.463180
519.175516	26146.141028
519.538863	26294.194675
519.902152	26077.450266
520.265385	26358.628183
520.628560	26148.485165
520.991678	26164.526116
521.354739	26231.971713
521.717743	26298.782125
522.080690	26088.813027
522.443580	26425.489007
522.806413	26407.918065
523.169189	26513.641143
523.531908	26546.869909
523.894569	26152.792831
524.257174	26235.838278
524.619722	26421.849294
524.982213	26118.805371
525.344647	26164.009398
525.707025	26304.488712
526.069345	26293.609902
526.431608	26244.100730
526.793815	26421.448522
527.155964	25882.526491
527.518057	26063.100621
527.880093	25988.932645
528.242072	26223.091721
528.603995	25936.706292
528.965860	25732.242133
529.327669	25764.800425
529.689421	25756.177531
530.051117	25594.033859
530.412755	25778.814832
530.774337	25560.152264
531.135862	25442.895025
531.497331	25643.885829
531.858743	25202.358890
532.220098	25683.721027
532.581396	25352.618042
532.942638	25289.049092
533.303824	25384.510902
533.664953	25403.011937
534.026025	25063.757406
534.387040	25308.202956
534.747999	25354.064853
535.108902	25518.555183
535.469748	25020.247207
535.830537	25199.356883
536.191270	25318.252497
536.551947	25182.350551
536.912567	24835.909855
537.273131	25196.901841
537.633638	24899.599793
537.994089	25099.683189
538.354483	24642.127902
538.714821	25146.258410
539.075103	25183.199985
539.435328	24964.507169
539.795497	24527.383678
540.155609	24917.632000
540.515665	25226.115328
540.875665	24444.567603
541.235609	24747.258644
541.595496	24710.125505
541.955328	25073.431381
542.315102	24981.548790
542.674821	24522.750858
543.034483	24407.542848
543.394090	24579.562141
543.753640	24364.451065
544.113134	24999.885987
544.472571	24599.081489
544.831953	24900.608024
545.191278	24509.364074
545.550548	24433.356077
545.909761	24638.861234
546.268918	24872.407809
546.628019	24832.234854
546.987064	24531.711509
547.346053	24288.301916
547.704986	24401.788371
548.063863	24557.491970
548.422684	24572.043260
548.781449	24095.782771
549.140158	24506.155379
549.498811	24073.987343
549.857408	23830.653367
550.215949	24243.687704
550.574434	23931.168933
550.932864	24137.742815
551.291237	24304.607528
551.649555	24167.087372
552.007817	24224.642225
552.366022	24086.088632
552.724173	24130.723008
553.082267	24070.685387
553.440305	24548.249014
553.798288	23802.871568
554.156215	24320.366175
554.514086	24415.313787
554.871902	23777.983392
555.229661	24077.793414
555.587365	23933.525673
555.945014	23800.981135
556.302606	24040.123392
556.660143	23995.163861
557.017625	24248.058385
557.375050	23776.506333
557.732421	24160.581763
558.089735	23978.283557
558.446994	24046.432396
558.804197	24075.691252
559.161345	24007.212219
559.518437	23773.494244
559.875474	23958.456699
560.232455	24145.160873
560.589381	23975.694925
560.946251	23948.182828
561.303065	24268.107054
561.659825	24365.449214
562.016528	23959.250681
562.373177	23695.227810
562.729770	24046.540780
563.086307	23899.034098
563.442789	24083.643673
563.799216	23916.398353
564.155587	23918.311471
564.511904	23907.203288
564.868164	23835.702083
565.224370	23814.123423
565.580520	23734.989911
565.936615	23873.314131
566.292654	23549.520820
566.648638	23838.913298
567.004567	23672.822402
567.360441	23619.670996
567.716260	23339.299663
568.072023	23673.583616
568.427732	23427.809722
568.783385	23207.425599
569.138982	23444.669861
569.494525	23485.276355
569.850013	23232.764959
570.205445	23325.975894
570.560823	23138.356750
570.916145	22888.764182
571.271412	23072.075660
571.626625	22826.873937
571.981782	22945.603192
572.336884	22750.692020
572.691931	22885.414336
573.046923	22612.118262
573.401860	22497.820181
573.756743	22506.821161
574.111570	22410.058734
574.466342	22343.946522
574.821059	22420.007451
575.175722	22126.266978
575.530330	22122.634827
575.884882	22144.573928
576.239380	22051.433570
576.593823	21945.743259
576.948211	21919.466244
577.302544	21760.254003
577.656823	21629.012604
578.011047	21732.066391
578.365216	21600.751895
578.719330	21481.049697
579.073389	21363.903364
579.427394	21519.798526
579.781344	21293.743105
580.135239	21180.423008
580.489080	21134.530864
580.842866	20912.074827
581.196597	21110.857606
581.550273	21083.806774
581.903895	20964.293619
582.257463	21278.980086
582.610975	20810.790485
582.964434	21122.545521
583.317837	20823.811785
583.671186	20906.648025
584.024481	20876.590145
584.377721	20662.946045
584.730906	20724.848894
585.084037	20733.552446
585.437113	20650.189405
585.790135	20841.274342
586.143103	20312.381686
586.496016	20331.568318
586.848874	20574.493960
587.201679	20495.514202
587.554428	20179.317910
587.907124	20498.286837
588.259765	20276.586973
588.612352	20356.060764
588.964884	19920.676471
589.317362	20093.555280
589.669786	20153.981071
590.022155	20175.771458
590.374470	20384.306349
590.726731	20172.409008
591.078937	19943.044070
591.431090	20029.361227
591.783188	19786.788466
592.135232	19758.255535
592.487222	19852.784731
592.839157	19873.060252
593.191038	19750.028372
593.542866	19643.808740
593.894639	19355.346355
594.246358	19573.025898
594.598022	19480.588781
594.949633	19230.028311
595.301190	19201.848261
595.652692	19363.807932
596.004141	19596.542881
596.355535	18921.119007
596.706876	18938.611810
597.058162	18829.841354
597.409395	19073.573581
597.760573	19130.445358
598.111698	18910.293129
598.462768	18854.850519
598.813785	18815.090938
599.164748	18629.349625
599.515657	18667.380089
599.866511	18467.783165
600.217312	18825.790787
600.568060	18338.520418
600.918753	18657.517072
601.269392	18555.700888
601.619978	18336.463628
601.970510	18539.959885
602.320988	18488.126741
602.671412	18699.570377
603.021783	18601.966077
603.372100	18331.472885
603.722363	18479.889496
604.072572	18413.381553
604.422728	18554.980003
604.772830	18322.212286
605.122878	18274.187733
605.472872	18264.909490
605.822813	18251.840298
606.172701	18217.210092
606.522534	18416.227284
606.872314	18432.737063
607.222041	18269.398637
607.571714	18489.850816
607.921333	18311.651068
608.270899	18391.318943
608.620411	18557.596362
608.969870	18346.447633
609.319276	18339.188371
609.668627	18367.401189
610.017926	18502.120984
610.367171	18617.976782
610.716362	18659.977155
611.065500	18477.099217
611.414585	18618.692626
611.763616	18597.426518
612.112594	18530.779944
612.461518	18505.284308
612.810389	18703.515080
613.159207	18562.337567
613.507971	18468.889698
613.856682	18744.857583
614.205340	18667.314554
614.553945	18816.767122
614.902496	18560.739521
615.250994	18791.805849
615.599439	18733.207476
615.947830	18721.534685
616.296169	18779.631462
616.644454	18735.964987
616.992686	18708.457932
617.340864	18923.773174
617.688990	18677.154887
618.037063	18852.708028
618.385082	18703.590697
618.733048	18985.053440
619.080961	18857.272793
619.428821	18897.864164
619.776628	18779.843191
620.124382	18715.961689
620.472083	18751.385877
620.819731	18770.116284
621.167326	18458.449468
621.514868	18497.667125
621.862357	18277.983722
622.209793	18288.244991
622.557176	18121.440772
622.904506	17941.032999
623.251783	17853.384978
623.599007	17602.804344
623.946179	17552.349955
624.293297	17493.010533
624.640363	17240.690701
624.987376	17268.543076
625.334336	17059.738484
625.681243	16906.172335
626.028097	16913.786998
626.374899	16837.211871
626.721647	16705.322683
627.068343	16543.254628
627.414987	16480.051162
627.761577	16443.046572
628.108115	16479.408415
628.454600	16213.880759
628.801032	16308.898948
629.147412	16236.495376
629.493739	16259.596463
629.840014	16061.191771
630.186236	16160.694066
630.532405	15926.537511
630.878521	16120.122860
631.224585	16024.424116
631.570597	15840.732031
631.916556	15876.108328
632.262462	15851.240316
632.608316	15761.979126
632.954117	15713.730242
633.299866	15699.763726
633.645562	15616.864471
633.991206	15380.015940
634.336797	15244.187091
634.682336	15217.970570
635.027823	15099.127889
635.373257	14980.020547
635.718639	14884.183171
636.063968	14831.520758
