Dividing Wavelength (nm)	Counts (n)	Blue Motor Position (mm): 34.100000	Red Motor Position (mm): 0.000000	
326.493990	2222.629607
326.888308	2222.629607
327.282561	2222.629607
327.676750	2184.551252
328.070874	2182.045798
328.464933	2182.701148
328.858929	2185.917404
329.252859	2193.411080
329.646726	2202.013809
330.040528	2213.116950
330.434265	2226.657489
330.827938	2244.863616
331.221547	2261.328025
331.615091	2277.686569
332.008571	2295.708694
332.401986	2312.946920
332.795338	2334.734787
333.188625	2353.606346
333.581847	2370.433718
333.975006	2390.558004
334.368100	2410.936868
334.761129	2424.492531
335.154095	2445.488937
335.546996	2471.029943
335.939833	2510.542506
336.332606	2525.408869
336.725315	2540.693647
337.117960	2551.005328
337.510540	2565.286917
337.903056	2573.652711
338.295508	2580.380131
338.687896	2592.158787
339.080220	2598.815631
339.472480	2607.269646
339.864676	2612.817436
340.256807	2615.786675
340.648875	2618.425719
341.040879	2621.170627
341.432818	2626.509209
341.824694	2630.731176
342.216506	2628.102214
342.608253	2629.720424
342.999937	2632.845940
343.391557	2632.271248
343.783113	2631.283182
344.174605	2630.839561
344.566033	2628.732358
344.957397	2628.102214
345.348697	2627.177162
345.739934	2623.096348
346.131106	2623.817233
346.522215	2619.958230
346.913260	2620.810185
347.304241	2619.567541
347.695159	2616.588219
348.086012	2613.198043
348.476802	2611.121087
348.867528	2606.823504
349.258191	2604.960797
349.648789	2605.253184
350.039324	2602.495673
350.429796	2605.238061
350.820203	2605.434666
351.210548	2602.052052
351.600828	2603.506424
351.991045	2601.321084
352.381198	2598.356886
352.771288	2598.195569
353.161314	2598.069540
353.551276	2594.036617
353.941175	2594.563418
354.331010	2597.877976
354.720782	2597.308326
355.110490	2595.619539
355.500135	2595.748089
355.889717	2596.562235
356.279235	2594.160125
356.668689	2597.530137
357.058080	2595.823706
357.447408	2595.342276
357.836672	2599.173553
358.225873	2597.802359
358.615010	2598.636670
359.004084	2597.590630
359.393095	2598.387133
359.782043	2601.583224
360.170927	2601.011053
360.559748	2600.161619
360.948505	2601.810076
361.337199	2601.071547
361.725830	2601.300920
362.114398	2603.675303
362.502903	2603.652618
362.891344	2601.714294
363.279722	2602.314192
363.668037	2604.454161
364.056289	2605.356528
364.444478	2605.928699
364.832603	2604.746548
365.220665	2603.531630
365.608665	2606.621857
365.996601	2608.144286
366.384474	2607.138576
366.772284	2606.445417
367.160031	2609.056735
367.547715	2609.830552
367.935336	2610.158227
368.322893	2607.720829
368.710388	2606.243771
369.097820	2607.173864
369.485189	2606.810901
369.872495	2611.100923
370.259738	2610.591766
370.646918	2611.519338
371.034035	2613.248454
371.421090	2612.547734
371.808081	2614.498660
372.195010	2612.971191
372.581875	2613.901284
372.968678	2614.765842
373.355418	2612.356170
373.742096	2612.547734
374.128710	2612.323402
374.515262	2615.002776
374.901751	2616.401696
375.288177	2616.172323
375.674540	2615.209463
376.060841	2617.765328
376.447079	2617.389762
376.833254	2616.615945
377.219367	2617.818260
377.605417	2616.252982
377.991404	2616.986470
378.377329	2619.325565
378.763191	2615.824484
379.148991	2618.193826
379.534727	2619.988477
379.920402	2621.158025
380.306013	2617.876233
380.691563	2621.208436
381.077049	2623.217336
381.462474	2621.279012
381.847835	2620.779938
382.233134	2623.610546
382.618371	2623.061060
383.003545	2623.340844
383.388657	2622.516616
383.773706	2621.861266
384.158693	2624.550721
384.543618	2627.154477
384.928480	2628.061885
385.313280	2626.037862
385.698017	2625.843777
386.082692	2625.475773
386.467305	2626.710856
386.851856	2627.373767
387.236344	2629.455764
387.620770	2626.347892
388.005133	2626.821761
388.389435	2625.039713
388.773674	2626.390742
389.157851	2630.247225
389.541965	2629.201186
389.926018	2632.525827
390.310008	2632.258645
390.693936	2630.872328
391.077802	2634.166722
391.461606	2633.282000
391.845348	2635.888276
392.229027	2636.226033
392.612645	2636.740231
392.996200	2637.617392
393.379694	2638.565129
393.763125	2636.231075
394.146494	2638.333236
394.529801	2639.795170
394.913047	2643.820532
395.296230	2642.096457
395.679351	2637.937505
396.062410	2639.664100
396.445408	2643.089564
396.828343	2640.516055
397.211217	2643.492857
397.594028	2646.588125
397.976778	2645.736170
398.359466	2648.118115
398.742092	2646.036119
399.124656	2646.925882
399.507158	2648.438229
399.889598	2648.092910
400.271977	2649.111223
400.654294	2648.498722
401.036549	2649.746408
401.418742	2652.524084
401.800874	2651.561223
402.182944	2653.214722
402.564952	2652.892088
402.946898	2653.648261
403.328783	2655.606749
403.710606	2655.430309
404.092367	2659.720331
404.474067	2659.639672
404.855705	2660.468942
405.237282	2662.714776
405.618797	2665.447082
406.000250	2667.990344
406.381642	2670.982269
406.762972	2674.415294
407.144240	2678.574246
407.525447	2686.592202
407.906593	2693.722914
408.287677	2708.798484
408.668700	2720.415823
409.049661	2738.163205
409.430560	2756.381935
409.811399	2771.560850
410.192176	2803.131076
410.572891	2832.694922
410.953545	2872.237733
411.334138	2892.498130
411.714669	2941.833383
412.095139	2966.106538
412.475547	3034.857794
412.855894	3094.209819
413.236180	3169.386026
413.616405	3194.543904
413.996568	3286.912966
414.376670	3355.497864
414.756711	3408.203128
415.136691	3498.086901
415.516609	3610.103860
415.896466	3691.871375
416.276262	3810.572904
416.655997	3893.925862
417.035670	4032.345865
417.415283	4222.331830
417.794834	4332.680167
418.174324	4391.104619
418.553753	4461.232111
418.933121	4678.034493
419.312428	4809.235563
419.691674	4831.308256
420.070859	5131.534173
420.449983	5104.044761
420.829045	5371.472931
421.208047	5379.014498
421.586988	5639.301873
421.965867	5750.083750
422.344686	5919.368217
422.723444	6054.584566
423.102141	5803.068797
423.480777	6336.841290
423.859352	6154.661552
424.237866	6655.933726
424.616319	6667.359501
424.994712	7031.421549
425.373044	6857.466453
425.751314	7273.424660
426.129524	7277.392048
426.507673	7478.425702
426.885762	7691.127106
427.263789	7715.208698
427.641756	7736.651246
428.019662	7916.562465
428.397508	8190.032458
428.775292	8027.843416
429.153016	8416.317252
429.530679	8356.095628
429.908282	8476.763207
430.285824	8288.836553
430.663305	8944.849465
431.040726	8534.479377
431.418086	8578.680214
431.795385	8915.194877
432.172624	9043.134321
432.549802	9026.238894
432.926920	9149.482502
433.303977	9074.633971
433.680974	9305.937232
434.057910	9424.817722
434.434786	9519.420016
434.811601	9417.828163
435.188355	9982.313885
435.565050	9752.311241
435.941683	9706.048572
436.318257	10219.880781
436.694770	10354.335916
437.071222	10446.621798
437.447614	10323.138735
437.823946	10228.160876
438.200218	10398.070446
438.576429	10215.711747
438.952580	10464.495209
439.328670	10535.557835
439.704700	10326.100413
440.080670	10339.504841
440.456580	10908.313353
440.832429	10657.342029
441.208218	10263.073387
441.583947	10608.601633
441.959616	10742.038455
442.335224	10551.445031
442.710773	10710.566532
443.086261	10901.719524
443.461689	10207.484583
443.837057	10838.238794
444.212365	11138.321038
444.587612	10780.636049
444.962800	11017.174550
445.337927	10801.042640
445.712995	10364.713131
446.088002	11468.841770
446.462949	11108.726945
446.837837	11082.729714
447.212664	11089.636095
447.587431	11584.707650
447.962139	12288.611523
448.336786	14532.945818
448.711374	15108.335556
449.085901	12971.395482
449.460369	12576.960482
449.834776	12034.015610
450.209124	12880.536246
450.583412	13288.650417
450.957640	14243.959153
451.331808	13428.492025
451.705917	12393.538099
452.079965	11716.856457
452.453954	12604.119698
452.827883	12229.680434
453.201752	12521.026359
453.575562	12038.340920
453.949311	12454.994806
454.323001	12407.297928
454.696632	12636.345274
455.070202	12919.514447
455.443713	13181.951875
455.817164	13628.663641
456.190556	13629.966779
456.563888	13990.431965
456.937160	14172.999872
457.310373	13501.616482
457.683526	13578.854521
458.056619	13135.742139
458.429653	13267.790122
458.802628	12721.815517
459.175542	13081.373294
459.548398	14032.951577
459.921194	14359.676319
460.293930	14420.495320
460.666607	15318.092927
461.039224	16346.833630
461.411782	17043.344652
461.784280	16933.518074
462.156719	16979.609343
462.529099	16673.651634
462.901419	15592.568630
463.273680	15387.287804
463.645882	15244.963428
464.018024	14982.689838
464.390106	15202.010277
464.762130	15922.262612
465.134094	16676.194896
465.505999	18648.914343
465.877845	21915.198908
466.249631	24746.056329
466.621358	24454.901968
466.993026	22998.537828
467.364634	22437.480090
467.736184	20991.989718
468.107674	20171.834317
468.479105	20307.582508
468.850477	19776.784296
469.221790	19356.473053
469.593043	18684.767029
469.964238	18130.512328
470.335373	17790.574722
470.706449	18223.831648
471.077467	17758.323940
471.448425	19586.281612
471.819324	23585.129010
472.190164	25662.422152
472.560945	22129.087503
472.931667	19733.178315
473.302330	19098.804556
473.672934	18616.250187
474.043479	18963.124421
474.413965	18768.077138
474.784393	18394.394047
475.154761	19079.622966
475.525070	19074.707841
475.895321	18742.488241
476.265513	19314.185334
476.635645	19897.111597
477.005719	19683.412044
477.375734	19883.339165
477.745691	20356.630414
478.115588	20865.797035
478.485427	21381.882639
478.855207	22451.733953
479.224928	24193.203069
479.594591	26415.557934
479.964194	26475.414074
480.333739	26666.587231
480.703226	26226.696146
481.072653	25903.923668
481.442022	26477.128066
481.811333	27390.897695
482.180584	27317.359863
482.549777	26359.520468
482.918912	26004.797157
483.287988	26138.773382
483.657005	25817.394783
484.025964	25541.678956
484.394864	25461.892614
484.763706	25166.927140
485.132489	24589.379788
485.501213	24761.086529
485.869879	24686.396794
486.238487	24482.139322
486.607036	24642.148066
486.975527	24331.003010
487.343959	24653.276413
487.712333	24594.153761
488.080648	24265.667135
488.448905	24741.728499
488.817104	24481.395752
489.185244	25160.227447
489.553326	25150.717310
489.921350	26115.573992
490.289315	28408.220185
490.657222	30197.421467
491.025070	30691.749451
491.392861	30474.541255
491.760593	29633.883481
492.128267	28736.842922
492.495883	27682.417539
492.863440	26810.194580
493.230939	25945.573681
493.598380	25784.014783
493.965763	25384.097528
494.333088	24939.979435
494.700354	24868.755493
495.067563	24750.782411
495.434713	24507.287118
495.801805	24641.076821
496.168839	24457.659479
496.535815	24292.917092
496.902733	24504.123794
497.269593	24181.449619
497.636395	24362.893349
498.003139	24341.914587
498.369825	24078.206788
498.736453	24275.666264
499.103023	24156.747965
499.469535	24170.777496
499.835989	24379.037644
500.202385	24406.259875
500.568723	23927.776237
500.935003	24161.970601
501.301226	23775.853504
501.667390	24613.514312
502.033497	24849.798234
502.399546	24576.008128
502.765537	24144.855883
503.131470	24530.879718
503.497345	24665.367621
503.863163	23883.761923
504.228923	24482.761905
504.594625	24682.583161
504.960269	24217.940011
505.325856	24712.315887
505.691385	24112.106027
506.056856	24708.938313
506.422270	24693.033473
506.787625	24263.723770
507.152924	24672.158055
507.518164	24705.152407
507.883347	24509.386759
508.248472	24193.117370
508.613540	24980.714479
508.978550	24762.162816
509.343503	24753.905406
509.708398	25008.614745
510.073236	25177.339644
510.438016	25383.658947
510.802738	25051.608226
511.167403	25311.819984
511.532010	25010.842935
511.896561	25787.329341
512.261053	25742.415181
512.625488	25586.668733
512.989866	25477.391641
513.354186	25310.821836
513.718449	25423.254690
514.082655	25807.400695
514.446803	25541.247937
514.810894	26010.357549
515.174927	25502.667987
515.538904	25527.420052
515.902822	26020.129826
516.266684	25771.018688
516.630488	25684.449474
516.994235	25659.349569
517.357925	25961.080270
517.721558	26136.817414
518.085133	26236.244091
518.448651	26140.346222
518.812112	25871.395623
519.175516	26085.316986
519.538863	26239.661994
519.902152	26016.669074
520.265385	26305.330584
520.628560	26103.770130
520.991678	26107.508146
521.354739	26167.787743
521.717743	26242.774906
522.080690	26037.902414
522.443580	26365.471550
522.806413	26363.878545
523.169189	26451.317358
523.531908	26506.971697
523.894569	26110.714319
524.257174	26193.548039
524.619722	26375.526131
524.982213	26063.950056
525.344647	26125.663861
525.707025	26255.135815
526.069345	26237.269966
526.431608	26194.982247
526.793815	26378.896142
527.155964	25846.449473
527.518057	26015.469279
527.880093	25925.628356
528.242072	26169.111046
528.603995	25873.124739
528.965860	25675.481261
529.327669	25720.889454
529.689421	25700.533275
530.051117	25542.888832
530.412755	25720.521450
530.774337	25517.856983
531.135862	25396.390381
531.497331	25593.953200
531.858743	25149.320911
532.220098	25628.434693
532.581396	25309.453163
532.942638	25242.955302
533.303824	25358.128023
533.664953	25355.877148
534.026025	25036.774630
534.387040	25259.591110
534.747999	25322.073691
535.108902	25485.255841
535.469748	24967.698220
535.830537	25156.549925
536.191270	25278.066939
536.551947	25143.276567
536.912567	24785.251300
537.273131	25142.101978
537.633638	24842.586864
537.994089	25060.957045
538.354483	24597.876653
538.714821	25099.899959
539.075103	25151.826364
539.435328	24930.975935
539.795497	24490.931095
540.155609	24888.000098
540.515665	25170.660115
540.875665	24412.049640
541.235609	24711.741195
541.595496	24671.795092
541.955328	25020.625294
542.315102	24943.984632
542.674821	24482.593026
543.034483	24367.072465
543.394090	24536.419947
543.753640	24339.454504
544.113134	24951.143071
544.472571	24559.533637
544.831953	24855.421641
545.191278	24479.646472
545.550548	24399.169492
545.909761	24601.949905
546.268918	24819.231198
546.628019	24789.684995
546.987064	24491.863708
547.346053	24249.154836
547.704986	24359.730025
548.063863	24522.811352
548.422684	24535.767117
548.781449	24061.142482
549.140158	24462.163750
549.498811	24047.566655
549.857408	23795.811432
550.215949	24203.640778
550.574434	23902.325972
550.932864	24110.576037
551.291237	24272.235759
551.649555	24143.724144
552.007817	24190.432955
552.366022	24052.842223
552.724173	24090.897893
553.082267	24032.327247
553.440305	24514.737944
553.798288	23769.567185
554.156215	24278.648106
554.514086	24389.866043
554.871902	23758.506894
555.229661	24050.540936
555.587365	23891.706781
555.945014	23768.758080
556.302606	24011.013249
556.660143	23970.288287
557.017625	24219.112079
557.375050	23740.210026
557.732421	24131.161589
558.089735	23950.811789
558.446994	24009.906715
558.804197	24034.961250
559.161345	23979.080060
559.518437	23738.755653
559.875474	23930.765641
560.232455	24109.396407
560.589381	23936.794861
560.946251	23912.829216
561.303065	24236.390634
561.659825	24324.749458
562.016528	23919.050000
562.373177	23661.041225
562.729770	24023.059086
563.086307	23876.613567
563.442789	24049.633528
563.799216	23884.959197
564.155587	23886.383323
564.511904	23863.567060
564.868164	23808.767197
565.224370	23787.654845
565.580520	23705.375653
565.936615	23835.961702
566.292654	23525.865205
566.648638	23814.456140
567.004567	23637.912411
567.360441	23586.427107
567.716260	23311.011228
568.072023	23635.185147
568.427732	23396.753694
568.783385	23182.340818
569.138982	23412.139295
569.494525	23456.204021
569.850013	23211.201423
570.205445	23300.109733
570.560823	23109.458336
570.916145	22874.971585
571.271412	23039.066184
571.626625	22798.615749
571.981782	22915.920878
572.336884	22714.045352
572.691931	22858.456765
573.046923	22589.231424
573.401860	22475.097180
573.756743	22487.057317
574.111570	22386.582080
574.466342	22318.362666
574.821059	22409.912540
575.175722	22109.127055
575.530330	22091.989652
575.884882	22113.016305
576.239380	22020.591790
576.593823	21920.136718
576.948211	21899.256258
577.302544	21739.396229
577.656823	21605.987133
578.011047	21710.122248
578.365216	21585.378897
578.719330	21455.790996
579.073389	21346.339984
579.427394	21500.359837
579.781344	21263.597005
580.135239	21151.852269
580.489080	21113.630240
580.842866	20883.693131
581.196597	21086.730643
581.550273	21052.934748
581.903895	20937.641039
582.257463	21261.348651
582.610975	20791.366919
582.964434	21107.210331
583.317837	20808.456430
583.671186	20892.878113
584.024481	20865.544977
584.377721	20644.502984
584.730906	20707.194773
585.084037	20716.677183
585.437113	20629.092177
585.790135	20836.066830
586.143103	20283.667274
586.496016	20314.050308
586.848874	20545.966070
587.201679	20476.072993
587.554428	20157.814868
587.907124	20491.786269
588.259765	20257.793552
588.612352	20332.311888
588.964884	19906.790612
589.317362	20076.037270
589.669786	20139.548247
590.022155	20164.446506
590.374470	20364.792042
590.726731	20152.844290
591.078937	19919.075904
591.431090	20008.357259
591.783188	19766.754920
592.135232	19733.798377
592.487222	19837.351239
592.839157	19857.898982
593.191038	19733.637060
593.542866	19627.132603
593.894639	19336.706688
594.246358	19560.947294
594.598022	19453.497620
594.949633	19214.524243
595.301190	19176.579478
595.652692	19347.971147
596.004141	19577.605787
596.355535	18902.701151
596.706876	18919.425179
597.058162	18817.853491
597.409395	19053.545077
597.760573	19123.947311
598.111698	18896.354338
598.462768	18832.261108
598.813785	18797.426735
599.164748	18609.989073
599.515657	18652.841402
599.866511	18449.322459
600.217312	18798.860943
600.568060	18325.970466
600.918753	18640.256161
601.269392	18535.029636
601.619978	18329.501794
601.970510	18520.135547
602.320988	18472.070666
602.671412	18675.387962
603.021783	18596.740921
603.372100	18316.074681
603.722363	18464.382906
604.072572	18406.288649
604.422728	18548.015649
604.772830	18300.099264
605.122878	18257.004961
605.472872	18242.320079
605.822813	18226.175784
606.172701	18204.677784
606.522534	18394.701557
606.872314	18423.287420
607.222041	18250.902644
607.571714	18463.384758
607.921333	18300.437022
608.270899	18375.678763
608.620411	18542.891316
608.969870	18325.927616
609.319276	18323.487698
609.668627	18350.430144
610.017926	18496.623606
610.367171	18597.933154
610.716362	18639.565523
611.065500	18467.210994
611.414585	18599.011961
611.763616	18583.707018
612.112594	18523.893728
612.461518	18489.059354
612.810389	18683.655455
613.159207	18551.965393
613.507971	18446.383467
613.856682	18728.819152
614.205340	18656.682761
614.553945	18800.058218
614.902496	18544.113796
615.250994	18783.830743
615.599439	18713.945228
615.947830	18708.193271
616.296169	18768.137631
616.644454	18715.326504
616.992686	18697.332105
617.340864	18907.250792
617.688990	18672.174227
618.037063	18840.112705
618.385082	18690.400518
618.733048	18969.143559
619.080961	18843.218056
619.428821	18880.152070
619.776628	18766.859699
620.124382	18691.615437
620.472083	18739.040091
620.819731	18754.375281
621.167326	18457.259756
621.514868	18478.278847
621.862357	18255.079240
622.209793	18269.512063
622.557176	18100.623327
622.904506	17925.546575
623.251783	17842.654882
623.599007	17588.999144
623.946179	17536.545938
624.293297	17476.102503
624.640363	17225.519349
624.987376	17252.459275
625.334336	17039.417593
625.681243	16883.041000
626.028097	16899.278557
626.374899	16823.313410
626.721647	16689.158223
627.068343	16518.502563
627.414987	16460.660364
627.761577	16421.982111
628.108115	16474.485728
628.454600	16192.244127
628.801032	16287.930268
629.147412	16221.719754
629.493739	16233.674850
629.840014	16044.530758
630.186236	16149.616130
630.532405	15917.622230
630.878521	16109.690192
631.224585	15996.526370
631.570597	15820.285111
631.916556	15860.271543
632.262462	15835.078377
632.608316	15747.538741
632.954117	15696.494537
633.299866	15683.944585
633.645562	15607.258553
633.991206	15372.348345
634.336797	15229.139247
634.682336	15210.318099
635.027823	15085.998204
635.373257	14961.262413
635.718639	14870.287231
636.063968	14816.172965
