Dividing Wavelength (nm)	Counts (n)	Blue Motor Position (mm): 28.100000	Red Motor Position (mm): 0.000000	
326.493990	2208.716023
326.888308	2208.716023
327.282561	2208.716023
327.676750	2169.909220
328.070874	2163.486790
328.464933	2165.750268
328.858929	2166.423263
329.252859	2173.216217
329.646726	2180.276353
330.040528	2194.116841
330.434265	2205.623275
330.827938	2226.128168
331.221547	2243.404202
331.615091	2258.043713
332.008571	2276.436363
332.401986	2299.310598
332.795338	2314.247537
333.188625	2332.393171
333.581847	2353.888651
333.975006	2372.288862
334.368100	2390.757129
334.761129	2407.236661
335.154095	2424.605957
335.546996	2449.042950
335.939833	2489.311687
336.332606	2503.058913
336.725315	2516.806140
337.117960	2527.231246
337.510540	2536.902700
337.903056	2553.238559
338.295508	2562.436144
338.687896	2571.187587
339.080220	2576.274111
339.472480	2581.789134
339.864676	2585.209557
340.256807	2594.442430
340.648875	2598.969386
341.040879	2598.447627
341.432818	2602.339397
341.824694	2607.587238
342.216506	2608.960953
342.608253	2606.299224
342.999937	2606.238730
343.391557	2609.369286
343.783113	2609.260902
344.174605	2607.718308
344.566033	2605.354007
344.957397	2607.801487
345.348697	2603.876949
345.739934	2603.261928
346.131106	2599.846547
346.522215	2597.857812
346.913260	2597.325970
347.304241	2596.864704
347.695159	2593.106524
348.086012	2592.408324
348.476802	2588.982860
348.867528	2583.193095
349.258191	2584.216449
349.648789	2582.996490
350.039324	2577.478947
350.429796	2583.714854
350.820203	2580.291911
351.210548	2578.809812
351.600828	2577.327712
351.991045	2576.498443
352.381198	2576.057342
352.771288	2575.986766
353.161314	2575.185222
353.551276	2574.862588
353.941175	2574.265212
354.331010	2572.248750
354.720782	2571.724470
355.110490	2570.761610
355.500135	2574.988617
355.889717	2572.261353
356.279235	2571.953842
356.668689	2573.718246
357.058080	2575.245716
357.447408	2572.185736
357.836672	2576.024574
358.225873	2573.042732
358.615010	2575.270922
359.004084	2575.800243
359.393095	2575.623802
359.782043	2575.943916
360.170927	2576.921900
360.559748	2575.538103
360.948505	2575.394430
361.337199	2579.417271
361.725830	2579.203022
362.114398	2577.219328
362.502903	2578.305696
362.891344	2580.649833
363.279722	2579.984401
363.668037	2581.055646
364.056289	2581.325348
364.444478	2581.219483
364.832603	2581.678228
365.220665	2582.653692
365.608665	2584.458425
365.996601	2584.639906
366.384474	2584.813826
366.772284	2583.767787
367.160031	2584.609659
367.547715	2586.739547
367.935336	2584.861717
368.322893	2588.876996
368.710388	2584.667632
369.097820	2585.118816
369.485189	2583.268712
369.872495	2590.472521
370.259738	2588.183837
370.646918	2588.410689
371.034035	2588.841708
371.421090	2589.676019
371.808081	2589.915474
372.195010	2590.212902
372.581875	2589.499578
372.968678	2590.941348
373.355418	2591.221132
373.742096	2592.173911
374.128710	2587.283991
374.515262	2590.948910
374.901751	2590.061667
375.288177	2590.659044
375.674540	2591.536205
376.060841	2592.352872
376.447079	2592.247007
376.833254	2594.659199
377.219367	2593.300608
377.605417	2594.616350
377.991404	2593.817327
378.377329	2597.315887
378.763191	2592.589806
379.148991	2595.649786
379.534727	2594.296236
379.920402	2595.543922
380.306013	2593.872779
380.691563	2597.983840
381.077049	2597.545260
381.462474	2597.603233
381.847835	2598.810590
382.233134	2599.004674
382.618371	2596.226998
383.003545	2597.751947
383.388657	2594.167687
383.773706	2597.583069
384.158693	2597.825044
384.543618	2595.828747
384.928480	2598.866042
385.313280	2599.014756
385.698017	2599.617174
386.082692	2598.578697
386.467305	2600.206989
386.851856	2602.115066
387.236344	2600.201948
387.620770	2598.394694
388.005133	2599.188676
388.389435	2598.573655
388.773674	2599.937287
389.157851	2601.293358
389.541965	2599.965014
389.926018	2604.844851
390.310008	2603.972731
390.693936	2605.578339
391.077802	2603.186311
391.461606	2604.577670
391.845348	2604.570108
392.229027	2605.313678
392.612645	2604.756631
392.996200	2605.613627
393.379694	2606.097577
393.763125	2604.154213
394.146494	2607.095726
394.529801	2604.209665
394.913047	2607.705706
395.296230	2607.423401
395.679351	2607.073041
396.062410	2608.245109
396.445408	2608.794595
396.828343	2606.362238
397.211217	2611.847013
397.594028	2610.029678
397.976778	2608.474482
398.359466	2609.802826
398.742092	2609.707044
399.124656	2608.658484
399.507158	2612.562857
399.889598	2612.134359
400.271977	2611.806684
400.654294	2610.934565
401.036549	2611.829369
401.418742	2611.806684
401.800874	2614.410440
402.182944	2612.278032
402.564952	2611.489092
402.946898	2613.064452
403.328783	2616.714247
403.710606	2612.507405
404.092367	2613.364401
404.474067	2616.288270
404.855705	2617.256172
405.237282	2616.278188
405.618797	2615.620317
406.000250	2618.697942
406.381642	2614.438167
406.762972	2614.208794
407.144240	2611.176540
407.525447	2614.491099
407.906593	2611.078237
408.287677	2619.386059
408.668700	2619.113837
409.049661	2618.632407
409.430560	2619.214660
409.811399	2618.844135
410.192176	2620.646348
410.572891	2620.961420
410.953545	2620.613580
411.334138	2620.048971
411.714669	2620.442181
412.095139	2620.976543
412.475547	2620.792541
412.855894	2623.424023
413.236180	2621.813375
413.616405	2623.119033
413.996568	2624.346554
414.376670	2624.333952
414.756711	2623.108951
415.136691	2626.113479
415.516609	2625.034672
415.896466	2625.536267
416.276262	2626.042903
416.655997	2626.529374
417.035670	2625.266565
417.415283	2630.688326
417.794834	2628.114817
418.174324	2627.623304
418.553753	2628.344189
418.933121	2630.098511
419.312428	2631.673872
419.691674	2627.986267
420.070859	2631.784777
420.449983	2631.976341
420.829045	2631.202524
421.208047	2633.662607
421.586988	2634.754017
421.965867	2634.534726
422.344686	2633.801238
422.723444	2635.500107
423.102141	2635.298461
423.480777	2637.025056
423.859352	2635.721918
424.237866	2639.031436
424.616319	2638.171919
424.994712	2639.399440
425.373044	2640.130407
425.751314	2636.833492
426.129524	2638.739049
426.507673	2641.355407
426.885762	2638.050931
427.263789	2643.109729
427.641756	2645.065697
428.019662	2646.197436
428.397508	2645.650471
428.775292	2647.119967
429.153016	2649.459062
429.530679	2646.225162
429.908282	2651.964516
430.285824	2652.861841
430.663305	2655.148004
431.040726	2653.370998
431.418086	2655.228663
431.795385	2659.438026
432.172624	2663.322235
432.549802	2665.734427
432.926920	2670.019408
433.303977	2674.188442
433.680974	2682.851665
434.057910	2685.793179
434.434786	2695.973789
434.811601	2700.399922
435.188355	2716.151007
435.565050	2721.900443
435.941683	2732.078533
436.318257	2754.814137
436.694770	2771.838113
437.071222	2789.711524
437.447614	2810.826397
437.823946	2830.481856
438.200218	2856.307687
438.576429	2877.092364
438.952580	2915.369845
439.328670	2951.761935
439.704700	2978.351501
440.080670	3017.634692
440.456580	3088.699838
440.832429	3125.510343
441.208218	3144.172695
441.583947	3217.418140
441.959616	3287.888429
442.335224	3326.299501
442.710773	3405.377561
443.086261	3495.430213
443.461689	3487.616424
443.837057	3629.671098
444.212365	3737.955083
444.587612	3775.730969
444.962800	3886.094430
445.337927	3942.184828
445.712995	3957.482210
446.088002	4226.710072
446.462949	4265.640383
446.837837	4353.903425
447.212664	4461.189261
447.587431	4668.597453
447.962139	4943.604999
448.336786	5592.928299
448.711374	5927.378610
449.085901	5490.010623
449.460369	5481.493593
449.834776	5462.259071
450.209124	5841.489951
450.583412	6107.252020
450.957640	6568.789820
451.331808	6448.218022
451.705917	6221.136727
452.079965	6097.600731
452.453954	6586.327994
452.827883	6568.857875
453.201752	6826.942267
453.575562	6760.255363
453.949311	7068.244657
454.323001	7184.445774
454.696632	7424.863442
455.070202	7718.283802
455.443713	7968.193963
455.817164	8365.257925
456.190556	8505.981734
456.563888	8850.763890
456.937160	9102.957693
457.310373	8884.146411
457.683526	9070.507786
458.056619	8965.855953
458.429653	9180.072224
458.802628	9014.692131
459.175542	9345.918624
459.548398	10066.014683
459.921194	10439.513772
460.293930	10592.651422
460.666607	11327.923876
461.039224	12133.288532
461.411782	12799.260243
461.784280	12932.150099
462.156719	13165.245492
462.529099	13085.126433
462.901419	12454.904065
463.273680	12450.770319
463.645882	12471.557517
464.018024	12398.231413
464.390106	12709.058877
464.762130	13435.325309
465.134094	14100.961783
465.505999	15696.829774
465.877845	18435.005582
466.249631	20971.792336
466.621358	21030.161335
466.993026	20056.154960
467.364634	19796.343973
467.736184	18703.436942
468.107674	18118.043034
468.479105	18341.809771
468.850477	17963.241802
469.221790	17687.621757
469.593043	17192.028443
469.964238	16797.401879
470.335373	16581.501863
470.706449	17015.031011
471.077467	16659.798543
471.448425	18403.894101
471.819324	22164.975478
472.190164	24289.005157
472.560945	21123.755398
472.931667	18883.632987
473.302330	18333.607814
473.672934	17846.697887
474.043479	18280.353065
474.413965	18143.092528
474.784393	17831.002255
475.154761	18505.183485
475.525070	18594.187577
475.895321	18255.474970
476.265513	18844.448098
476.635645	19443.649726
477.005719	19278.942627
477.375734	19489.249483
477.745691	19989.793210
478.115588	20495.594861
478.485427	21021.238493
478.855207	22067.703894
479.224928	23795.108191
479.594591	26018.125967
479.964194	26144.505174
480.333739	26371.173095
480.703226	25953.626924
481.072653	25633.188501
481.442022	26184.166452
481.811333	27078.850272
482.180584	27055.993680
482.549777	26126.475487
482.918912	25763.499807
483.287988	25871.372938
483.657005	25592.271976
484.025964	25309.367463
484.394864	25272.690548
484.763706	24986.471477
485.132489	24406.854731
485.501213	24567.007148
485.869879	24499.856458
486.238487	24301.668535
486.607036	24462.957732
486.975527	24129.787874
487.343959	24475.444670
487.712333	24438.112405
488.080648	24110.860862
488.448905	24572.050822
488.817104	24317.036493
489.185244	24972.618386
489.553326	24965.028929
489.921350	25906.981128
490.289315	28162.300097
490.657222	29973.062394
491.025070	30472.527314
491.392861	30287.363213
491.760593	29449.294071
492.128267	28552.293841
492.495883	27537.282720
492.863440	26652.388821
493.230939	25762.801607
493.598380	25625.568797
493.965763	25219.377826
494.333088	24788.540653
494.700354	24704.386152
495.067563	24598.368166
495.434713	24345.735782
495.801805	24490.492514
496.168839	24320.651000
496.535815	24134.682835
496.902733	24340.341747
497.269593	24017.768395
497.636395	24206.415933
498.003139	24201.657084
498.369825	23956.089877
498.736453	24129.951712
499.103023	24015.714125
499.469535	24032.728019
499.835989	24234.447269
500.202385	24265.808288
500.568723	23763.706844
500.935003	24040.090624
501.301226	23624.717191
501.667390	24457.866167
502.033497	24700.149062
502.399546	24423.258646
502.765537	24013.599361
503.131470	24408.414968
503.497345	24528.434759
503.863163	23734.727771
504.228923	24369.865265
504.594625	24551.966865
504.960269	24064.008378
505.325856	24566.868516
505.691385	23970.820129
506.056856	24581.172790
506.422270	24551.306474
506.787625	24143.593074
507.152924	24542.292891
507.518164	24553.612802
507.883347	24375.171079
508.248472	24069.420057
508.613540	24849.894016
508.978550	24627.654749
509.343503	24618.285764
509.708398	24898.155503
510.073236	25033.402098
510.438016	25241.684931
510.802738	24928.525934
511.167403	25177.228738
511.532010	24864.767941
511.896561	25654.744475
512.261053	25623.892613
512.625488	25474.150179
512.989866	25352.555028
513.354186	25219.400511
513.718449	25312.523225
514.082655	25688.099269
514.446803	25430.186277
514.810894	25871.632557
515.174927	25368.545568
515.538904	25408.572329
515.902822	25895.845219
516.266684	25649.171479
516.630488	25545.984101
516.994235	25535.624530
517.357925	25828.644118
517.721558	26019.580340
518.085133	26100.649656
518.448651	26033.899738
518.812112	25738.450314
519.175516	25930.488028
519.538863	26108.075275
519.902152	25888.033951
520.265385	26178.664032
520.628560	25969.456147
520.991678	25979.548537
521.354739	26052.647789
521.717743	26102.507321
522.080690	25899.462247
522.443580	26234.472126
522.806413	26231.654121
523.169189	26325.958986
523.531908	26387.670271
523.894569	25981.451573
524.257174	26047.798199
524.619722	26247.967295
524.982213	25926.538284
525.344647	26011.025502
525.707025	26121.031041
526.069345	26118.059281
526.431608	26070.760655
526.793815	26261.865756
527.155964	25712.367384
527.518057	25889.637038
527.880093	25811.547044
528.242072	26048.972788
528.603995	25746.107826
528.965860	25550.818567
529.327669	25595.352121
529.689421	25590.661327
530.051117	25422.843836
530.412755	25593.055875
530.774337	25401.781895
531.135862	25268.334991
531.497331	25471.944674
531.858743	25009.562482
532.220098	25507.789799
532.581396	25173.210939
532.942638	25131.402129
533.303824	25208.650250
533.664953	25235.708643
534.026025	24891.102928
534.387040	25142.631299
534.747999	25196.024680
535.108902	25360.371337
535.469748	24848.784962
535.830537	25044.832915
536.191270	25149.578009
536.551947	25031.932602
536.912567	24706.805905
537.273131	25016.219326
537.633638	24744.541462
537.994089	24943.099910
538.354483	24497.852599
538.714821	24991.195038
539.075103	25030.763054
539.435328	24828.622867
539.795497	24374.954309
540.155609	24783.381032
540.515665	25066.376286
540.875665	24321.455064
541.235609	24590.856846
541.595496	24564.128649
541.955328	24912.558079
542.315102	24835.945143
542.674821	24394.340067
543.034483	24265.082361
543.394090	24438.855976
543.753640	24214.761564
544.113134	24860.094791
544.472571	24467.741787
544.831953	24743.603808
545.191278	24358.336146
545.550548	24282.108858
545.909761	24497.739173
546.268918	24721.581527
546.628019	24679.729868
546.987064	24398.985490
547.346053	24154.592872
547.704986	24282.184476
548.063863	24424.045066
548.422684	24430.467496
548.781449	23979.959741
549.140158	24376.149063
549.498811	23960.707574
549.857408	23689.503580
550.215949	24133.851044
550.574434	23802.067504
550.932864	24029.925137
551.291237	24167.329347
551.649555	24047.299474
552.007817	24096.700261
552.366022	23973.776766
552.724173	24013.521223
553.082267	23944.102014
553.440305	24418.711525
553.798288	23682.864380
554.156215	24205.463155
554.514086	24298.679131
554.871902	23663.778572
555.229661	23966.457010
555.587365	23819.023425
555.945014	23668.066073
556.302606	23922.107459
556.660143	23863.070507
557.017625	24124.542554
557.375050	23651.037055
557.732421	24038.459811
558.089735	23854.190514
558.446994	23921.933540
558.804197	23943.925573
559.161345	23896.929417
559.518437	23642.119254
559.875474	23843.362116
560.232455	24023.812738
560.589381	23853.789743
560.946251	23819.953518
561.303065	24152.604137
561.659825	24232.294697
562.016528	23838.383976
562.373177	23580.720521
562.729770	23939.567496
563.086307	23806.712927
563.442789	23964.722853
563.799216	23786.661738
564.155587	23806.846518
564.511904	23802.748060
564.868164	23715.861253
565.224370	23711.851015
565.580520	23617.410039
565.936615	23756.447582
566.292654	23415.826899
566.648638	23729.963881
567.004567	23548.686509
567.360441	23513.927753
567.716260	23229.654567
568.072023	23559.451893
568.427732	23306.678357
568.783385	23104.896092
569.138982	23333.318334
569.494525	23371.812585
569.850013	23117.214151
570.205445	23219.181570
570.560823	23021.822918
570.916145	22785.196197
571.271412	22956.136683
571.626625	22717.710271
571.981782	22834.251665
572.336884	22638.135657
572.691931	22761.084358
573.046923	22493.406651
573.401860	22387.421432
573.756743	22382.697871
574.111570	22295.816105
574.466342	22226.875806
574.821059	22310.226243
575.175722	22020.153210
575.530330	22011.789936
575.884882	22037.890510
576.239380	21938.771343
576.593823	21833.988440
576.948211	21813.055048
577.302544	21655.529073
577.656823	21522.845904
578.011047	21615.313268
578.365216	21506.114314
578.719330	21366.872604
579.073389	21272.250146
579.427394	21423.719175
579.781344	21189.643278
580.135239	21082.549006
580.489080	21050.240251
580.842866	20818.178296
581.196597	21001.469608
581.550273	20982.272894
581.903895	20870.863394
582.257463	21193.298115
582.610975	20720.700024
582.964434	21020.600787
583.317837	20728.801158
583.671186	20818.763069
584.024481	20791.646703
584.377721	20563.567259
584.730906	20619.070363
585.084037	20647.472223
585.437113	20558.301774
585.790135	20748.580126
586.143103	20230.447813
586.496016	20226.762729
586.848874	20480.305041
587.201679	20411.286604
587.554428	20079.936603
587.907124	20418.828170
588.259765	20199.026301
588.612352	20271.676889
588.964884	19832.330249
589.317362	20009.254585
589.669786	20065.889428
590.022155	20107.098340
590.374470	20293.434509
590.726731	20099.095508
591.078937	19847.894812
591.431090	19953.131419
591.783188	19703.536330
592.135232	19663.736421
592.487222	19772.945457
592.839157	19793.205854
593.191038	19678.761580
593.542866	19558.474608
593.894639	19282.660478
594.246358	19504.937554
594.598022	19404.787471
594.949633	19164.538682
595.301190	19116.829202
595.652692	19285.276837
596.004141	19532.043838
596.355535	18855.861270
596.706876	18865.691520
597.058162	18758.524151
597.409395	18986.091918
597.760573	19063.834072
598.111698	18847.245938
598.462768	18778.262789
598.813785	18738.772910
599.164748	18565.410150
599.515657	18592.365200
599.866511	18391.999499
600.217312	18750.823788
600.568060	18282.225853
600.918753	18580.349609
601.269392	18493.608996
601.619978	18259.691896
601.970510	18483.894692
602.320988	18415.357685
602.671412	18635.378845
603.021783	18542.241007
603.372100	18271.929297
603.722363	18408.962982
604.072572	18352.237398
604.422728	18481.706832
604.772830	18245.750585
605.122878	18193.819138
605.472872	18191.018777
605.822813	18169.782917
606.172701	18147.445564
606.522534	18336.508998
606.872314	18362.145786
607.222041	18200.415488
607.571714	18415.423220
607.921333	18239.867558
608.270899	18316.878745
608.620411	18505.397734
608.969870	18272.705634
609.319276	18264.559130
609.668627	18301.629254
610.017926	18434.135983
610.367171	18533.802115
610.716362	18593.076002
611.065500	18411.445750
611.414585	18549.593530
611.763616	18527.326753
612.112594	18475.228949
612.461518	18436.104554
612.810389	18634.473958
613.159207	18489.500455
613.507971	18392.168378
613.856682	18679.234363
614.205340	18602.535727
614.553945	18756.381661
614.902496	18491.872318
615.250994	18729.061127
615.599439	18673.855452
615.947830	18649.100866
616.296169	18707.726964
616.644454	18674.364608
616.992686	18647.089445
617.340864	18854.424541
617.688990	18614.553838
618.037063	18792.418349
618.385082	18634.289956
618.733048	18915.911495
619.080961	18791.160581
619.428821	18823.701229
619.776628	18710.098827
620.124382	18638.277508
620.472083	18672.557354
620.819731	18695.255150
621.167326	18396.216424
621.514868	18418.838602
621.862357	18198.940951
622.209793	18209.489565
622.557176	18038.349954
622.904506	17876.942290
623.251783	17774.047299
623.599007	17540.130198
623.946179	17492.501377
624.293297	17431.805885
624.640363	17184.996033
624.987376	17201.052108
625.334336	16990.238616
625.681243	16838.504927
626.028097	16843.415011
626.374899	16777.759023
626.721647	16646.830175
627.068343	16474.137888
627.414987	16406.588947
627.761577	16381.138682
628.108115	16432.573575
628.454600	16136.443595
628.801032	16239.497383
629.147412	16167.905436
629.493739	16199.059767
629.840014	16002.732031
630.186236	16097.893892
630.532405	15860.110227
630.878521	16060.851493
631.224585	15953.555575
631.570597	15776.530416
631.916556	15815.831252
632.262462	15782.839420
632.608316	15714.516662
632.954117	15652.422250
633.299866	15651.343443
633.645562	15562.064608
633.991206	15313.906248
634.336797	15184.837587
634.682336	15157.133926
635.027823	15041.205031
635.373257	14930.327373
635.718639	14819.479962
636.063968	14785.653819
636.409245	14533.606209
636.754470	14557.725610
637.099642	14403.705757
