Dividing Wavelength (nm)	Counts (n)	Blue Motor Position (mm): 36.100000	Red Motor Position (mm): 0.000000	
326.493990	2232.754765
326.888308	2232.754765
327.282561	2232.754765
327.676750	2193.360668
328.070874	2190.404031
328.464933	2188.528722
328.858929	2194.073991
329.252859	2198.394260
329.646726	2207.924562
330.040528	2217.323793
330.434265	2231.065978
330.827938	2252.238824
331.221547	2265.759199
331.615091	2283.514143
332.008571	2304.467699
332.401986	2323.382108
332.795338	2341.346260
333.188625	2361.619260
333.581847	2379.613659
333.975006	2398.575959
334.368100	2417.013979
334.761129	2438.189346
335.154095	2452.954885
335.546996	2479.642754
335.939833	2516.675070
336.332606	2533.630991
336.725315	2546.241437
337.117960	2558.942624
337.510540	2571.898390
337.903056	2581.922724
338.295508	2589.658375
338.687896	2601.593307
339.080220	2607.657815
339.472480	2613.089658
339.864676	2620.048971
340.256807	2620.815226
340.648875	2626.962913
341.040879	2630.678244
341.432818	2635.706795
341.824694	2635.540437
342.216506	2637.403143
342.608253	2636.102525
342.999937	2636.672176
343.391557	2637.695530
343.783113	2637.582104
344.174605	2637.443472
344.566033	2637.088071
344.957397	2633.672689
345.348697	2634.229737
345.739934	2633.052627
346.131106	2630.146402
346.522215	2627.837553
346.913260	2627.963582
347.304241	2624.316307
347.695159	2623.305556
348.086012	2621.430247
348.476802	2620.638786
348.867528	2615.874895
349.258191	2612.940944
349.648789	2612.857765
350.039324	2605.590942
350.429796	2613.845831
350.820203	2608.212342
351.210548	2606.142948
351.600828	2610.856427
351.991045	2607.244440
352.381198	2605.684203
352.771288	2605.520365
353.161314	2604.282762
353.551276	2605.200252
353.941175	2604.060951
354.331010	2603.435848
354.720782	2603.703029
355.110490	2604.265118
355.500135	2603.824017
355.889717	2604.655807
356.279235	2603.483739
356.668689	2603.322422
357.058080	2605.512804
357.447408	2603.887032
357.836672	2605.742176
358.225873	2608.542537
358.615010	2605.953905
359.004084	2606.158071
359.393095	2606.263936
359.782043	2606.445417
360.170927	2606.705037
360.559748	2608.353494
360.948505	2608.837445
361.337199	2612.192332
361.725830	2609.107146
362.114398	2608.943309
362.502903	2609.742332
362.891344	2611.902466
363.279722	2610.788371
363.668037	2610.846344
364.056289	2612.406582
364.444478	2612.991355
364.832603	2613.051849
365.220665	2613.629061
365.608665	2613.898763
365.996601	2615.920266
366.384474	2616.681480
366.772284	2616.031171
367.160031	2616.797427
367.547715	2618.806326
367.935336	2615.693414
368.322893	2615.937910
368.710388	2614.420522
369.097820	2617.228445
369.485189	2613.271139
369.872495	2617.097375
370.259738	2619.391100
370.646918	2619.680967
371.034035	2619.565020
371.421090	2620.101903
371.808081	2618.556789
372.195010	2623.461832
372.581875	2620.553086
372.968678	2623.567696
373.355418	2622.234311
373.742096	2621.876389
374.128710	2624.061729
374.515262	2623.592902
374.901751	2623.862604
375.288177	2627.030969
375.674540	2625.105248
376.060841	2624.568365
376.447079	2624.525515
376.833254	2625.248921
377.219367	2627.535084
377.605417	2629.150774
377.991404	2626.390742
378.377329	2627.066257
378.763191	2627.852677
379.148991	2629.302009
379.534727	2632.014149
379.920402	2628.654220
380.306013	2630.574900
380.691563	2632.793008
381.077049	2627.885444
381.462474	2631.890641
381.847835	2632.583800
382.233134	2633.259314
382.618371	2632.989613
383.003545	2633.581948
383.388657	2633.685292
383.773706	2634.925416
384.158693	2635.913482
384.543618	2637.249388
384.928480	2635.495066
385.313280	2638.189563
385.698017	2638.245016
386.082692	2639.318781
386.467305	2637.418266
386.851856	2640.697537
387.236344	2639.626292
387.620770	2637.579583
388.005133	2636.546147
388.389435	2639.200314
388.773674	2637.856847
389.157851	2645.433701
389.541965	2646.235244
389.926018	2645.557209
390.310008	2645.741211
390.693936	2646.701551
391.077802	2646.026037
391.461606	2647.220790
391.845348	2647.172899
392.229027	2650.013589
392.612645	2649.330513
392.996200	2649.539721
393.379694	2649.101140
393.763125	2651.024341
394.146494	2650.510143
394.529801	2652.909732
394.913047	2654.752274
395.296230	2654.532984
395.679351	2654.273364
396.062410	2655.079949
396.445408	2655.072387
396.828343	2659.906854
397.211217	2658.114723
397.594028	2657.101452
397.976778	2660.592451
398.359466	2663.541526
398.742092	2667.208965
399.124656	2666.394819
399.507158	2670.737773
399.889598	2676.164575
400.271977	2681.815708
400.654294	2690.055474
401.036549	2698.799356
401.418742	2708.024667
401.800874	2722.409600
402.182944	2740.668659
402.564952	2764.682195
402.946898	2786.701955
403.328783	2809.603917
403.710606	2839.056858
404.092367	2890.882441
404.474067	2932.570262
404.855705	2974.991572
405.237282	3015.363652
405.618797	3096.831219
406.000250	3155.779952
406.381642	3246.523242
406.762972	3319.506546
407.144240	3393.014131
407.525447	3464.185141
407.906593	3548.626989
408.287677	3660.807785
408.668700	3718.773493
409.049661	3836.287830
409.430560	3927.315945
409.811399	3959.488589
410.192176	4137.511896
410.572891	4224.756625
410.953545	4405.242535
411.334138	4382.373341
411.714669	4545.207651
412.095139	4541.396539
412.475547	4745.011263
412.855894	4868.980798
413.236180	5045.348086
413.616405	4973.662878
413.996568	5179.054610
414.376670	5275.938025
414.756711	5302.530111
415.136691	5444.115958
415.516609	5658.571684
415.896466	5742.358182
416.276262	5949.428617
416.655997	6019.165419
417.035670	6240.580457
417.415283	6571.917856
417.794834	6672.705644
418.174324	6661.350445
418.553753	6675.465676
418.933121	7007.629824
419.312428	7153.664489
419.691674	7043.684156
420.070859	7507.553489
420.449983	7303.399361
420.829045	7679.035899
421.208047	7549.526136
421.586988	7869.883901
421.965867	7934.876977
422.344686	8087.681912
422.723444	8156.050040
423.102141	7625.055223
423.480777	8355.170576
423.859352	7943.507432
424.237866	8567.735869
424.616319	8476.243968
424.994712	8879.478302
425.373044	8517.588991
425.751314	8971.083629
426.129524	8856.425106
426.507673	9020.650775
426.885762	9184.334519
427.263789	9113.438252
427.641756	9042.852016
428.019662	9158.080190
428.397508	9403.362572
428.775292	9119.439746
429.153016	9495.784566
429.530679	9336.020318
429.908282	9399.911902
430.285824	9124.561558
430.663305	9801.200351
431.040726	9257.489223
431.418086	9250.998738
431.795385	9575.328932
432.172624	9660.511829
432.549802	9584.438297
432.926920	9670.389970
433.303977	9554.564420
433.680974	9755.280481
434.057910	9836.218726
434.434786	9899.031503
434.811601	9756.568495
435.188355	10318.899125
435.565050	10046.394512
435.941683	9973.302823
436.318257	10471.046189
436.694770	10593.160579
437.071222	10667.562969
437.447614	10512.784422
437.823946	10400.588502
438.200218	10556.269415
438.576429	10364.206495
438.952580	10601.498647
439.328670	10667.631024
439.704700	10437.930849
440.080670	10431.289129
440.456580	11003.092086
440.832429	10742.429144
441.208218	10353.284835
441.583947	10685.625423
441.959616	10827.614562
442.335224	10624.186360
442.710773	10777.548343
443.086261	10971.640328
443.461689	10268.099417
443.837057	10908.688919
444.212365	11189.929851
444.587612	10837.679226
444.962800	11070.729247
445.337927	10841.437406
445.712995	10417.068034
446.088002	11514.902792
446.462949	11158.256281
446.837837	11129.627568
447.212664	11134.583023
447.587431	11640.999694
447.962139	12349.387674
448.336786	14610.564464
448.711374	15157.980839
449.085901	13019.195703
449.460369	12630.653811
449.834776	12077.858525
450.209124	12944.432871
450.583412	13351.309439
450.957640	14301.463595
451.331808	13457.879431
451.705917	12435.548555
452.079965	11764.752459
452.453954	12658.692709
452.827883	12288.488015
453.201752	12573.789596
453.575562	12087.182139
453.949311	12511.042354
454.323001	12465.445118
454.696632	12689.105990
455.070202	12972.151655
455.443713	13229.726890
455.817164	13678.487885
456.190556	13670.628726
456.563888	14041.609758
456.937160	14214.244072
457.310373	13548.277402
457.683526	13625.439823
458.056619	13185.342051
458.429653	13331.006192
458.802628	12765.691199
459.175542	13135.984114
459.548398	14078.848762
459.921194	14421.783335
460.293930	14487.083921
460.666607	15367.178642
461.039224	16403.486117
461.411782	17094.454390
461.784280	16976.176318
462.156719	17030.865275
462.529099	16714.711832
462.901419	15645.765406
463.273680	15438.947028
463.645882	15290.296004
464.018024	15042.087233
464.390106	15261.851294
464.762130	15988.463045
465.134094	16753.173316
465.505999	18735.607066
465.877845	21995.418789
466.249631	24817.355889
466.621358	24512.169476
466.993026	23065.512077
467.364634	22511.645545
467.736184	21057.819626
468.107674	20246.455997
468.479105	20389.274406
468.850477	19829.285393
469.221790	19420.304143
469.593043	18753.677082
469.964238	18183.504937
470.335373	17842.722938
470.706449	18297.530796
471.077467	17837.956527
471.448425	19677.420633
471.819324	23716.388053
472.190164	25723.394908
472.560945	22172.396056
472.931667	19794.773653
473.302330	19164.377365
473.672934	18698.620120
474.043479	19021.097690
474.413965	18830.645418
474.784393	18450.244990
475.154761	19152.036620
475.525070	19135.557088
475.895321	18802.107447
476.265513	19389.570748
476.635645	19966.150199
477.005719	19759.039434
477.375734	19944.127918
477.745691	20421.643655
478.115588	20954.211312
478.485427	21463.380453
478.855207	22530.083566
479.224928	24302.825480
479.594591	26516.479313
479.964194	26546.822018
480.333739	26756.508812
480.703226	26314.452552
481.072653	25993.293243
481.442022	26581.361484
481.811333	27485.502508
482.180584	27404.594510
482.549777	26462.556611
482.918912	26116.370494
483.287988	26223.225312
483.657005	25908.730408
484.025964	25640.004141
484.394864	25565.884056
484.763706	25257.292344
485.132489	24684.564335
485.501213	24843.123747
485.869879	24765.731953
486.238487	24585.364509
486.607036	24733.135852
486.975527	24437.469658
487.343959	24766.777992
487.712333	24697.789802
488.080648	24362.860581
488.448905	24840.948489
488.817104	24586.965076
489.185244	25271.531083
489.553326	25243.358594
489.921350	26235.268628
490.289315	28524.330561
490.657222	30299.487188
491.025070	30803.179116
491.392861	30576.054970
491.760593	29716.074453
492.128267	28818.802001
492.495883	27779.545450
492.863440	26908.948263
493.230939	26032.800766
493.598380	25880.139504
493.965763	25481.447249
494.333088	25022.558577
494.700354	24970.543951
495.067563	24839.874723
495.434713	24578.989970
495.801805	24736.783127
496.168839	24553.514499
496.535815	24388.830085
496.902733	24608.281595
497.269593	24269.775676
497.636395	24455.403563
498.003139	24412.621811
498.369825	24159.260980
498.736453	24373.532704
499.103023	24246.089814
499.469535	24255.012657
499.835989	24469.014678
500.202385	24493.542413
500.568723	23997.192925
500.935003	24245.182407
501.301226	23863.740980
501.667390	24699.491191
502.033497	24929.456027
502.399546	24659.988710
502.765537	24225.789088
503.131470	24610.328303
503.497345	24748.211422
503.863163	23964.296876
504.228923	24561.935747
504.594625	24777.429950
504.960269	24301.333299
505.325856	24803.553209
505.691385	24191.156361
506.056856	24802.469361
506.422270	24769.626244
506.787625	24349.637635
507.152924	24749.965744
507.518164	24784.232987
507.883347	24599.084009
508.248472	24263.408698
508.613540	25066.144393
508.978550	24852.268400
509.343503	24848.306053
509.708398	25094.828558
510.073236	25247.068884
510.438016	25460.244156
510.802738	25134.804908
511.167403	25385.630038
511.532010	25088.327990
511.896561	25864.343049
512.261053	25836.525962
512.625488	25669.686455
512.989866	25561.311729
513.354186	25399.047069
513.718449	25515.908577
514.082655	25889.818520
514.446803	25633.284283
514.810894	26097.355262
515.174927	25582.378711
515.538904	25613.747291
515.902822	26108.372703
516.266684	25858.235691
516.630488	25769.082885
516.994235	25740.305458
517.357925	26047.220987
517.721558	26218.012758
518.085133	26334.385274
518.448651	26236.239050
518.812112	25970.542516
519.175516	26180.778796
519.538863	26330.642218
519.902152	26106.313392
520.265385	26404.081747
520.628560	26185.998911
520.991678	26189.552924
521.354739	26248.151297
521.717743	26321.762225
522.080690	26112.909742
522.443580	26460.598123
522.806413	26433.552332
523.169189	26538.241974
523.531908	26583.413233
523.894569	26188.368253
524.257174	26275.562571
524.619722	26451.904653
524.982213	26141.959391
525.344647	26189.563007
525.707025	26341.359711
526.069345	26307.493239
526.431608	26270.632322
526.793815	26454.669726
527.155964	25917.814568
527.518057	26092.954334
527.880093	26011.085996
528.242072	26240.128300
528.603995	25946.685256
528.965860	25755.375988
529.327669	25803.582021
529.689421	25790.830423
530.051117	25619.721058
530.412755	25799.176053
530.774337	25596.002429
531.135862	25469.764375
531.497331	25669.668811
531.858743	25237.379786
532.220098	25707.953853
532.581396	25399.803242
532.942638	25318.050850
533.303824	25423.383239
533.664953	25428.278200
534.026025	25106.405568
534.387040	25330.484856
534.747999	25393.355607
535.108902	25560.235443
535.469748	25039.832090
535.830537	25220.219698
536.191270	25356.164494
536.551947	25206.651433
536.912567	24855.920716
537.273131	25225.049124
537.633638	24915.925570
537.994089	25135.498067
538.354483	24665.171016
538.714821	25168.507542
539.075103	25215.959923
539.435328	24987.431817
539.795497	24554.043820
540.155609	24942.545383
540.515665	25243.126701
540.875665	24473.125739
541.235609	24783.933039
541.595496	24744.541463
541.955328	25096.902993
542.315102	25012.360322
542.674821	24540.692324
543.034483	24423.387195
543.394090	24598.305151
543.753640	24400.790223
544.113134	25020.290057
544.472571	24619.102431
544.831953	24925.052579
545.191278	24540.790627
545.550548	24455.290137
545.909761	24663.204966
546.268918	24894.193156
546.628019	24861.629822
546.987064	24546.068715
547.346053	24308.872344
547.704986	24421.973151
548.063863	24588.553039
548.422684	24596.170223
548.781449	24121.298571
549.140158	24533.130594
549.498811	24098.051290
549.857408	23847.334545
550.215949	24277.413024
550.574434	23951.585607
550.932864	24165.902701
551.291237	24334.239430
551.649555	24187.395660
552.007817	24239.954730
552.366022	24094.928296
552.724173	24143.207426
553.082267	24099.573719
553.440305	24563.627054
553.798288	23828.687317
554.156215	24322.233923
554.514086	24450.440547
554.871902	23819.214989
555.229661	24105.938176
555.587365	23950.252221
555.945014	23826.431401
556.302606	24062.306989
556.660143	24029.103429
557.017625	24273.009576
557.375050	23788.547129
557.732421	24187.231823
558.089735	24012.492827
558.446994	24061.976793
558.804197	24083.656276
559.161345	24018.080946
559.518437	23786.785246
559.875474	23982.177849
560.232455	24158.784591
560.589381	23982.979392
560.946251	23971.951868
561.303065	24279.747078
561.659825	24372.151428
562.016528	23971.127639
562.373177	23714.820254
562.729770	24081.990174
563.086307	23939.365850
563.442789	24104.357774
563.799216	23927.234313
564.155587	23943.882723
564.511904	23930.742956
564.868164	23867.073183
565.224370	23837.660571
565.580520	23756.480350
565.936615	23877.455439
566.292654	23567.391710
566.648638	23853.913251
567.004567	23689.770761
567.360441	23624.026553
567.716260	23361.689948
568.072023	23682.871942
568.427732	23455.513383
568.783385	23226.090471
569.138982	23466.349343
569.494525	23500.856041
569.850013	23265.512294
570.205445	23355.529658
570.560823	23156.900635
570.916145	22910.670516
571.271412	23085.769954
571.626625	22857.133463
571.981782	22962.712868
572.336884	22784.908851
572.691931	22911.424169
573.046923	22642.428200
573.401860	22513.016739
573.756743	22541.915154
574.111570	22438.022014
574.466342	22361.351105
574.821059	22447.045679
575.175722	22157.189416
575.530330	22139.079070
575.884882	22166.323986
576.239380	22059.149056
576.593823	21961.567441
576.948211	21938.219337
577.302544	21790.631996
577.656823	21661.207933
578.011047	21750.239751
578.365216	21616.606324
578.719330	21498.998725
579.073389	21385.771889
579.427394	21539.181763
579.781344	21297.607150
580.135239	21199.100483
580.489080	21148.923358
580.842866	20929.797003
581.196597	21121.257506
581.550273	21094.710790
581.903895	20978.043366
582.257463	21295.973816
582.610975	20828.348823
582.964434	21139.292234
583.317837	20831.713794
583.671186	20927.044533
584.024481	20897.175697
584.377721	20671.894093
584.730906	20744.738766
585.084037	20743.788509
585.437113	20656.145529
585.790135	20863.848629
586.143103	20328.861218
586.496016	20350.785196
586.848874	20576.727191
587.201679	20499.663072
587.554428	20184.389311
587.907124	20526.729027
588.259765	20298.883997
588.612352	20366.687516
588.964884	19941.143555
589.317362	20111.133783
589.669786	20160.595064
590.022155	20196.349448
590.374470	20396.934439
590.726731	20180.845379
591.078937	19948.803588
591.431090	20047.917714
591.783188	19805.196239
592.135232	19769.066289
592.487222	19874.539831
592.839157	19881.161386
593.191038	19773.784809
593.542866	19654.115379
593.894639	19361.806593
594.246358	19590.294371
594.598022	19489.294854
594.949633	19244.753522
595.301190	19218.458863
595.652692	19387.153515
596.004141	19613.708010
596.355535	18937.296069
596.706876	18957.732907
597.058162	18850.862966
597.409395	19082.461135
597.760573	19149.969747
598.111698	18926.525644
598.462768	18865.257981
598.813785	18835.273198
599.164748	18641.090472
599.515657	18682.785856
599.866511	18480.759095
600.217312	18831.651129
600.568060	18346.245987
600.918753	18675.035082
601.269392	18571.076407
601.619978	18355.456175
601.970510	18553.530671
602.320988	18495.161671
602.671412	18704.704793
603.021783	18633.576632
603.372100	18352.802007
603.722363	18491.902565
604.072572	18436.666643
604.422728	18586.008305
604.772830	18335.717537
605.122878	18296.515004
605.472872	18269.380993
605.822813	18270.512732
606.172701	18240.351509
606.522534	18423.317667
606.872314	18450.920505
607.222041	18285.079146
607.571714	18508.616511
607.921333	18327.467688
608.270899	18395.934119
608.620411	18576.651923
608.969870	18346.329166
609.319276	18342.722220
609.668627	18388.064878
610.017926	18515.860649
610.367171	18630.428432
610.716362	18683.703346
611.065500	18497.478081
611.414585	18635.588053
611.763616	18615.930073
612.112594	18562.211538
612.461518	18518.678654
612.810389	18717.700887
613.159207	18580.309280
613.507971	18483.922419
613.856682	18765.922044
614.205340	18690.687864
614.553945	18831.920830
614.902496	18577.642510
615.250994	18797.698958
615.599439	18744.895392
615.947830	18734.193022
616.296169	18799.223907
616.644454	18748.850177
616.992686	18730.354183
617.340864	18949.659499
617.688990	18701.594401
618.037063	18875.055463
618.385082	18723.152895
618.733048	18997.197580
619.080961	18878.801041
619.428821	18906.832377
619.776628	18788.093039
620.124382	18716.992605
620.472083	18762.085726
620.819731	18783.742523
621.167326	18472.221901
621.514868	18513.791255
621.862357	18291.703223
622.209793	18287.887069
622.557176	18125.889590
622.904506	17954.439948
623.251783	17868.999952
623.599007	17626.407026
623.946179	17568.469045
624.293297	17502.999580
624.640363	17249.303512
624.987376	17280.170497
625.334336	17078.189107
625.681243	16917.351093
626.028097	16931.499092
626.374899	16856.025457
626.721647	16715.125207
627.068343	16541.911161
627.414987	16492.994324
627.761577	16458.069211
628.108115	16496.762587
628.454600	16220.981225
628.801032	16317.405895
629.147412	16252.939619
629.493739	16268.375632
629.840014	16077.807414
630.186236	16170.070612
630.532405	15935.505723
630.878521	16129.396062
631.224585	16034.634973
631.570597	15854.459093
631.916556	15878.825510
632.262462	15857.282139
632.608316	15774.143430
632.954117	15725.443363
633.299866	15718.209308
633.645562	15636.030938
633.991206	15390.945162
634.336797	15263.025883
634.682336	15231.385081
635.027823	15116.623213
635.373257	14993.034286
635.718639	14901.998609
636.063968	14843.574156
