Dividing Wavelength (nm)	Counts (n)	Blue Motor Position (mm): 27.600000	Red Motor Position (mm): 0.000000	
326.493990	2205.219983
326.888308	2205.219983
327.282561	2205.219983
327.676750	2165.893941
328.070874	2162.413025
328.464933	2162.002171
328.858929	2166.380413
329.252859	2172.155054
329.646726	2180.324244
330.040528	2192.536439
330.434265	2204.723429
330.827938	2224.686398
331.221547	2242.738770
331.615091	2257.433733
332.008571	2276.242278
332.401986	2293.601492
332.795338	2311.164872
333.188625	2332.720846
333.581847	2351.892354
333.975006	2369.501104
334.368100	2390.406769
334.761129	2405.096691
335.154095	2425.873807
335.546996	2449.199226
335.939833	2486.665081
336.332606	2502.983296
336.725315	2514.330933
337.117960	2530.041689
337.510540	2538.117618
337.903056	2554.254351
338.295508	2557.052192
338.687896	2570.073492
339.080220	2573.773699
339.472480	2581.085893
339.864676	2588.483786
340.256807	2594.807913
340.648875	2597.267997
341.040879	2598.818151
341.432818	2602.992227
341.824694	2608.638319
342.216506	2606.362238
342.608253	2606.871395
342.999937	2608.207300
343.391557	2606.563884
343.783113	2605.946343
344.174605	2606.682351
344.566033	2605.023812
344.957397	2603.473657
345.348697	2603.382916
345.739934	2601.439551
346.131106	2600.547267
346.522215	2593.832450
346.913260	2595.286823
347.304241	2593.850094
347.695159	2591.475711
348.086012	2590.444795
348.476802	2588.662747
348.867528	2584.239134
349.258191	2583.147725
349.648789	2580.909452
350.039324	2575.507856
350.429796	2582.696541
350.820203	2579.061869
351.210548	2580.090265
351.600828	2575.573391
351.991045	2574.623133
352.381198	2575.996848
352.771288	2572.795715
353.161314	2574.983576
353.551276	2572.896538
353.941175	2570.214644
354.331010	2571.422001
354.720782	2571.364028
355.110490	2573.193966
355.500135	2570.960735
355.889717	2571.142217
356.279235	2568.808163
356.668689	2570.612896
357.058080	2570.993503
357.447408	2571.832855
357.836672	2572.583987
358.225873	2571.018708
358.615010	2572.939388
359.004084	2570.814542
359.393095	2576.435428
359.782043	2575.036508
360.170927	2574.824780
360.559748	2573.743452
360.948505	2576.629513
361.337199	2579.140007
361.725830	2576.838721
362.114398	2576.906776
362.502903	2578.671180
362.891344	2579.646643
363.279722	2579.482806
363.668037	2579.876016
364.056289	2578.467013
364.444478	2581.721078
364.832603	2581.610173
365.220665	2582.724268
365.608665	2581.587487
365.996601	2583.944227
366.384474	2585.098651
366.772284	2583.646799
367.160031	2585.711151
367.547715	2583.102354
367.935336	2584.168558
368.322893	2585.365832
368.710388	2581.370718
369.097820	2583.737540
369.485189	2584.297108
369.872495	2586.227870
370.259738	2587.962027
370.646918	2587.039495
371.034035	2590.689291
371.421090	2587.296594
371.808081	2585.733837
372.195010	2588.980340
372.581875	2588.682912
372.968678	2589.958323
373.355418	2590.517892
373.742096	2590.132243
374.128710	2590.127202
374.515262	2588.768611
374.901751	2588.859352
375.288177	2590.868252
375.674540	2592.224322
376.060841	2590.038982
376.447079	2592.572162
376.833254	2592.804055
377.219367	2590.590988
377.605417	2591.468149
377.991404	2591.758015
378.377329	2592.667944
378.763191	2594.006370
379.148991	2591.117789
379.534727	2592.247007
379.920402	2594.525609
380.306013	2592.710793
380.691563	2594.218098
381.077049	2592.468818
381.462474	2595.312029
381.847835	2592.993098
382.233134	2599.302102
382.618371	2595.319591
383.003545	2597.177256
383.388657	2596.262286
383.773706	2596.199272
384.158693	2597.210023
384.543618	2595.196082
384.928480	2599.647421
385.313280	2599.178594
385.698017	2598.303954
386.082692	2597.489807
386.467305	2597.280599
386.851856	2599.647421
387.236344	2598.903851
387.620770	2595.392687
388.005133	2594.397059
388.389435	2598.089705
388.773674	2595.508634
389.157851	2600.640528
389.541965	2602.213368
389.926018	2600.317895
390.310008	2603.156064
390.693936	2601.242946
391.077802	2601.162288
391.461606	2602.631784
391.845348	2603.917278
392.229027	2602.664552
392.612645	2603.299737
392.996200	2601.943667
393.379694	2607.168823
393.763125	2604.726384
394.146494	2602.220930
394.529801	2603.796291
394.913047	2607.710747
395.296230	2605.971549
395.679351	2605.366610
396.062410	2606.939450
396.445408	2607.952722
396.828343	2605.689244
397.211217	2608.172012
397.594028	2607.035232
397.976778	2607.461210
398.359466	2609.412136
398.742092	2604.980962
399.124656	2606.788216
399.507158	2608.729060
399.889598	2607.990531
400.271977	2605.331322
400.654294	2609.926334
401.036549	2608.895418
401.418742	2610.775768
401.800874	2611.506736
402.182944	2610.133021
402.564952	2610.173350
402.946898	2611.242075
403.328783	2612.754421
403.710606	2611.418515
404.092367	2612.046139
404.474067	2612.492281
404.855705	2615.012858
405.237282	2610.284256
405.618797	2615.161572
406.000250	2613.132508
406.381642	2613.397168
406.762972	2612.401540
407.144240	2613.719802
407.525447	2611.859616
407.906593	2609.893566
408.287677	2614.952364
408.668700	2616.031171
409.049661	2617.097375
409.430560	2617.949330
409.811399	2618.445884
410.192176	2618.902108
410.572891	2616.961264
410.953545	2616.981429
411.334138	2617.122581
411.714669	2619.721296
412.095139	2620.003600
412.475547	2615.479165
412.855894	2619.126440
413.236180	2616.741974
413.616405	2618.972684
413.996568	2620.434619
414.376670	2620.376646
414.756711	2621.866307
415.136691	2621.861266
415.516609	2621.710031
415.896466	2622.791358
416.276262	2622.148611
416.655997	2624.613736
417.035670	2626.257152
417.415283	2628.472739
417.794834	2625.243880
418.174324	2626.098355
418.553753	2625.463170
418.933121	2624.394445
419.312428	2626.020217
419.691674	2625.836215
420.070859	2625.818571
420.449983	2625.304374
420.829045	2625.921915
421.208047	2626.375619
421.586988	2627.857718
421.965867	2627.651031
422.344686	2630.557256
422.723444	2630.771505
423.102141	2631.371402
423.480777	2632.767802
423.859352	2633.249232
424.237866	2633.612195
424.616319	2636.286527
424.994712	2633.433234
425.373044	2634.675879
425.751314	2633.113121
426.129524	2632.041876
426.507673	2635.668986
426.885762	2631.905765
427.263789	2639.359111
427.641756	2638.345839
428.019662	2640.223668
428.397508	2639.601086
428.775292	2641.524286
429.153016	2641.952784
429.530679	2642.030922
429.908282	2641.375572
430.285824	2643.142497
430.663305	2644.082672
431.040726	2647.921510
431.418086	2645.229534
431.795385	2646.603249
432.172624	2648.251706
432.549802	2651.104999
432.926920	2652.826553
433.303977	2654.159938
433.680974	2658.991884
434.057910	2660.602533
434.434786	2662.273675
434.811601	2663.196207
435.188355	2671.234326
435.565050	2672.479491
435.941683	2679.741273
436.318257	2685.120185
436.694770	2693.483459
437.071222	2701.234233
437.447614	2708.632126
437.823946	2718.250648
438.200218	2727.216340
438.576429	2738.243864
438.952580	2757.914446
439.328670	2772.737959
439.704700	2786.412089
440.080670	2807.156437
440.456580	2841.953001
440.832429	2859.435723
441.208218	2874.080275
441.583947	2913.474372
441.959616	2950.105916
442.335224	2976.592138
442.710773	3019.905732
443.086261	3068.121848
443.461689	3076.767427
443.837057	3157.851866
444.212365	3225.148749
444.587612	3256.270312
444.962800	3331.403669
445.337927	3376.224568
445.712995	3399.255080
446.088002	3571.355031
446.462949	3609.067903
446.837837	3682.033563
447.212664	3760.791510
447.587431	3911.385899
447.962139	4104.522585
448.336786	4553.099578
448.711374	4802.097290
449.085901	4524.125546
449.460369	4540.726066
449.834776	4545.762178
450.209124	4831.819933
450.583412	5043.497983
450.957640	5393.880860
451.331808	5326.379810
451.705917	5192.194377
452.079965	5124.811794
452.453954	5498.542776
452.827883	5508.899826
453.201752	5719.894800
453.575562	5699.047108
453.949311	5953.524554
454.323001	6066.587553
454.696632	6278.915912
455.070202	6520.036821
455.443713	6742.432364
455.817164	7069.850265
456.190556	7212.792182
456.563888	7518.482710
456.937160	7749.780931
457.310373	7602.874146
457.683526	7778.452494
458.056619	7725.147333
458.429653	7923.511696
458.802628	7816.281312
459.175542	8130.186400
459.548398	8746.449814
459.921194	9088.708872
460.293930	9253.484027
460.666607	9903.455116
461.039224	10621.191915
461.411782	11216.098480
461.784280	11350.780467
462.156719	11584.485839
462.529099	11561.157899
462.901419	11087.120559
463.273680	11118.196752
463.645882	11175.207161
464.018024	11139.626697
464.390106	11440.495362
464.762130	12102.862648
465.134094	12735.376221
465.505999	14193.093911
465.877845	16617.944364
466.249631	18954.383060
466.621358	19069.344053
466.993026	18281.804917
467.364634	18089.149661
467.736184	17174.137388
468.107674	16702.401335
468.479105	16937.271213
468.850477	16674.589289
469.221790	16477.472612
469.593043	16065.287709
469.964238	15766.072543
470.335373	15599.099445
470.706449	16049.962601
471.077467	15765.253355
471.448425	17404.676915
471.819324	21003.039928
472.190164	23050.391136
472.560945	20142.119236
472.931667	18060.213438
473.302330	17559.374803
473.672934	17135.227242
474.043479	17581.974296
474.413965	17496.834249
474.784393	17233.247437
475.154761	17928.064631
475.525070	18030.705044
475.895321	17739.991784
476.265513	18357.744858
476.635645	18963.610892
477.005719	18826.113421
477.375734	19067.380524
477.745691	19592.197407
478.115588	20102.447875
478.485427	20647.711678
478.855207	21698.346113
479.224928	23394.102047
479.594591	25586.172179
479.964194	25763.298161
480.333739	26034.550047
480.703226	25640.281404
481.072653	25356.214906
481.442022	25912.286942
481.811333	26816.826218
482.180584	26803.754506
482.549777	25894.955455
482.918912	25555.232098
483.287988	25693.384919
483.657005	25418.568937
484.025964	25151.357537
484.394864	25123.026252
484.763706	24865.274577
485.132489	24285.390650
485.501213	24457.573780
485.869879	24394.425766
486.238487	24184.925495
486.607036	24362.182546
486.975527	24034.225242
487.343959	24391.423759
487.712333	24367.586663
488.080648	24041.371077
488.448905	24508.625545
488.817104	24266.604790
489.185244	24919.845067
489.553326	24909.389714
489.921350	25866.120055
490.289315	28095.557741
490.657222	29931.442628
491.025070	30403.889484
491.392861	30224.681506
491.760593	29388.558250
492.128267	28509.532254
492.495883	27484.307755
492.863440	26607.046162
493.230939	25732.511834
493.598380	25571.736835
493.965763	25174.367883
494.333088	24750.966413
494.700354	24673.803992
495.067563	24566.586211
495.434713	24313.275792
495.801805	24451.163953
496.168839	24282.277737
496.535815	24098.353760
496.902733	24313.043899
497.269593	23977.681139
497.636395	24164.990252
498.003139	24162.262988
498.369825	23908.506426
498.736453	24102.593370
499.103023	23971.387259
499.469535	24009.193392
499.835989	24210.647982
500.202385	24233.907866
500.568723	23721.600606
500.935003	24006.161138
501.301226	23590.341563
501.667390	24422.245374
502.033497	24666.247302
502.399546	24394.337546
502.765537	23976.965296
503.131470	24366.028947
503.497345	24510.949517
503.863163	23708.312125
504.228923	24337.009544
504.594625	24512.996225
504.960269	24038.028792
505.325856	24531.857702
505.691385	23951.729279
506.056856	24543.477562
506.422270	24512.756770
506.787625	24108.786428
507.152924	24519.332956
507.518164	24540.583940
507.883347	24336.399565
508.248472	24030.487226
508.613540	24813.668285
508.978550	24587.509520
509.343503	24572.209618
509.708398	24857.415418
510.073236	25013.093810
510.438016	25217.164759
510.802738	24905.099692
511.167403	25156.363403
511.532010	24841.974363
511.896561	25631.000640
512.261053	25596.501504
512.625488	25446.887619
512.989866	25326.731717
513.354186	25191.107035
513.718449	25265.451451
514.082655	25674.352042
514.446803	25402.207873
514.810894	25843.016447
515.174927	25336.035167
515.538904	25366.219075
515.902822	25855.659661
516.266684	25604.620282
516.630488	25515.845563
516.994235	25507.875498
517.357925	25796.612626
517.721558	25988.231925
518.085133	26060.325466
518.448651	26000.693657
518.812112	25709.929986
519.175516	25910.840131
519.538863	26074.070172
519.902152	25852.508940
520.265385	26151.076318
520.628560	25938.143020
520.991678	25951.068539
521.354739	26022.511771
521.717743	26070.458185
522.080690	25864.837082
522.443580	26211.436573
522.806413	26209.024381
523.169189	26290.413810
523.531908	26346.063107
523.894569	25949.979650
524.257174	26025.150815
524.619722	26221.697842
524.982213	25908.611941
525.344647	25966.973379
525.707025	26098.981034
526.069345	26093.198830
526.431608	26042.605810
526.793815	26240.264412
527.155964	25680.776993
527.518057	25856.176379
527.880093	25781.297601
528.242072	26019.391297
528.603995	25719.298970
528.965860	25516.647106
529.327669	25578.013072
529.689421	25562.219137
530.051117	25386.713886
530.412755	25562.095629
530.774337	25375.126794
531.135862	25233.513221
531.497331	25448.246210
531.858743	24974.223993
532.220098	25480.444060
532.581396	25147.846373
532.942638	25098.498518
533.303824	25177.178327
533.664953	25207.236207
534.026025	24862.718712
534.387040	25108.162410
534.747999	25168.681462
535.108902	25321.987992
535.469748	24816.750950
535.830537	25013.877710
536.191270	25123.255625
536.551947	25006.477296
536.912567	24680.879251
537.273131	24985.309491
537.633638	24714.375198
537.994089	24916.797689
538.354483	24468.865964
538.714821	24965.094464
539.075103	25013.802092
539.435328	24796.649349
539.795497	24340.803013
540.155609	24748.390383
540.515665	25041.979622
540.875665	24295.866167
541.235609	24563.768206
541.595496	24535.114288
541.955328	24885.066147
542.315102	24804.652181
542.674821	24368.791499
543.034483	24245.782304
543.394090	24408.220884
543.753640	24199.489388
544.113134	24826.891231
544.472571	24437.207518
544.831953	24728.487908
545.191278	24333.079965
545.550548	24262.667649
545.909761	24468.225738
546.268918	24696.756365
546.628019	24658.604913
546.987064	24360.813873
547.346053	24126.627071
547.704986	24241.976233
548.063863	24400.016406
548.422684	24413.090638
548.781449	23957.705567
549.140158	24342.728733
549.498811	23924.733901
549.857408	23663.584487
550.215949	24106.412044
550.574434	23781.517240
550.932864	24007.658361
551.291237	24153.478777
551.649555	24014.615153
552.007817	24066.579367
552.366022	23935.711013
552.724173	23987.584486
553.082267	23918.596296
553.440305	24398.115891
553.798288	23667.594725
554.156215	24189.192831
554.514086	24272.102168
554.871902	23651.132837
555.229661	23931.975518
555.587365	23788.204331
555.945014	23642.429285
556.302606	23906.689090
556.660143	23843.704914
557.017625	24108.688125
557.375050	23632.833449
557.732421	24030.313306
558.089735	23829.294776
558.446994	23901.801692
558.804197	23910.802672
559.161345	23872.084090
559.518437	23612.346200
559.875474	23826.665814
560.232455	23991.153623
560.589381	23817.374968
560.946251	23793.202635
561.303065	24112.337920
561.659825	24200.162382
562.016528	23813.001767
562.373177	23556.349063
562.729770	23901.463934
563.086307	23771.266054
563.442789	23939.413741
563.799216	23774.215129
564.155587	23786.840699
564.511904	23771.608853
564.868164	23695.532800
565.224370	23689.102808
565.580520	23592.272325
565.936615	23724.262336
566.292654	23400.015320
566.648638	23708.208781
567.004567	23527.836297
567.360441	23475.914933
567.716260	23208.358213
568.072023	23529.915772
568.427732	23302.763901
568.783385	23073.814858
569.138982	23311.943842
569.494525	23338.856042
569.850013	23095.383434
570.205445	23191.747611
570.560823	22997.411130
570.916145	22755.985231
571.271412	22938.638838
571.626625	22681.416483
571.981782	22798.998876
572.336884	22598.116457
572.691931	22737.050657
573.046923	22473.610040
573.401860	22358.291125
573.756743	22361.086445
574.111570	22274.865070
574.466342	22201.407897
574.821059	22299.223925
575.175722	21991.040547
575.530330	21974.848360
575.884882	22009.781036
576.239380	21918.349629
576.593823	21805.349645
576.948211	21783.826438
577.302544	21623.215277
577.656823	21503.482832
578.011047	21589.089186
578.365216	21480.283442
578.719330	21349.021878
579.073389	21252.821539
579.427394	21398.094990
579.781344	21174.003099
580.135239	21057.234852
580.489080	21028.800224
580.842866	20786.106475
581.196597	20978.658387
581.550273	20959.096190
581.903895	20854.056187
582.257463	21167.953714
582.610975	20696.580624
582.964434	21002.019094
583.317837	20706.171419
583.671186	20799.014349
584.024481	20772.903693
584.377721	20548.257275
584.730906	20595.729820
585.084037	20630.871704
585.437113	20521.692914
585.790135	20732.453474
586.143103	20196.460353
586.496016	20207.480316
586.848874	20458.134047
587.201679	20391.333717
587.554428	20062.743748
587.907124	20395.283461
588.259765	20175.211890
588.612352	20239.673124
588.964884	19812.344595
589.317362	19985.805658
589.669786	20033.631084
590.022155	20080.024823
590.374470	20270.673700
590.726731	20063.691485
591.078937	19829.960907
591.431090	19920.328631
591.783188	19664.769857
592.135232	19645.547938
592.487222	19749.032744
592.839157	19773.943606
593.191038	19648.802003
593.542866	19536.061638
593.894639	19251.879193
594.246358	19474.554520
594.598022	19387.995388
594.949633	19125.580645
595.301190	19104.284290
595.652692	19259.685419
596.004141	19500.163581
596.355535	18830.665583
596.706876	18849.332976
597.058162	18734.757631
597.409395	18969.604824
597.760573	19038.522438
598.111698	18825.737855
598.462768	18755.612885
598.813785	18715.941524
599.164748	18549.848108
599.515657	18567.255212
599.866511	18367.592753
600.217312	18726.674141
600.568060	18251.147140
600.918753	18562.171209
601.269392	18463.677145
601.619978	18243.282940
601.970510	18457.957956
602.320988	18402.855624
602.671412	18610.102499
603.021783	18522.502369
603.372100	18244.623887
603.722363	18376.739926
604.072572	18325.037852
604.422728	18453.741031
604.772830	18222.931802
605.122878	18167.078338
605.472872	18163.887287
605.822813	18143.034554
606.172701	18111.988608
606.522534	18317.529054
606.872314	18334.174944
607.222041	18173.788113
607.571714	18380.006594
607.921333	18209.340851
608.270899	18291.360424
608.620411	18477.084093
608.969870	18233.798009
609.319276	18244.646572
609.668627	18270.127084
610.017926	18415.098066
610.367171	18519.001288
610.716362	18561.838492
611.065500	18383.611019
611.414585	18523.535806
611.763616	18497.266353
612.112594	18447.154763
612.461518	18405.250172
612.810389	18603.571685
613.159207	18462.411815
613.507971	18372.964102
613.856682	18650.298140
614.205340	18580.147963
614.553945	18725.980982
614.902496	18465.620510
615.250994	18698.998206
615.599439	18640.795565
615.947830	18631.356004
616.296169	18689.483028
616.644454	18647.865783
616.992686	18613.091904
617.340864	18820.621084
617.688990	18595.082382
618.037063	18754.423172
618.385082	18607.962530
618.733048	18891.910561
619.080961	18752.595754
619.428821	18793.577814
619.776628	18682.652265
620.124382	18608.017982
620.472083	18642.673394
620.819731	18666.886056
621.167326	18349.187500
621.514868	18401.486950
621.862357	18160.439138
622.209793	18184.883693
622.557176	18004.788472
622.904506	17833.096854
623.251783	17745.305160
623.599007	17511.977875
623.946179	17468.150083
624.293297	17399.025782
624.640363	17153.861867
624.987376	17173.444229
625.334336	16963.843135
625.681243	16812.553067
626.028097	16817.130434
626.374899	16746.410608
626.721647	16611.930267
627.068343	16443.124710
627.414987	16373.788680
627.761577	16348.948394
628.108115	16390.532872
628.454600	16116.808301
628.801032	16208.663165
629.147412	16147.075389
629.493739	16162.118192
629.840014	15976.049203
630.186236	16062.406689
630.532405	15826.636965
630.878521	16029.911412
631.224585	15923.243117
631.570597	15750.366828
631.916556	15789.365194
632.262462	15761.250679
632.608316	15674.419325
632.954117	15621.633403
633.299866	15610.222751
633.645562	15541.721032
633.991206	15288.486230
634.336797	15160.277085
634.682336	15131.393794
635.027823	15015.868192
635.373257	14900.662703
635.718639	14797.457681
636.063968	14748.099744
636.409245	14503.727290
636.754470	14533.374316
637.099642	14369.456158
