Dividing Wavelength (nm)	Counts (n)	Blue Motor Position (mm): 11.100000	Red Motor Position (mm): 0.000000	
326.493990	2161.750113
326.888308	2161.750113
327.282561	2161.750113
327.676750	2119.306118
328.070874	2117.942486
328.464933	2117.995418
328.858929	2120.044647
329.252859	2129.648045
329.646726	2136.277163
330.040528	2147.319810
330.434265	2158.246511
330.827938	2179.555468
331.221547	2195.951821
331.615091	2212.121322
332.008571	2229.977089
332.401986	2249.556931
332.795338	2268.763727
333.188625	2288.247786
333.581847	2305.528862
333.975006	2323.666933
334.368100	2340.348111
334.761129	2359.093642
335.154095	2375.116949
335.546996	2397.688716
335.939833	2421.583785
336.332606	2434.789087
336.725315	2451.848352
337.117960	2459.394959
337.510540	2469.825107
337.903056	2485.233393
338.295508	2493.664723
338.687896	2501.841475
339.080220	2507.459841
339.472480	2517.118692
339.864676	2522.306039
340.256807	2528.032790
340.648875	2528.446164
341.040879	2533.363810
341.432818	2536.421270
341.824694	2538.125180
342.216506	2541.119625
342.608253	2540.686086
342.999937	2538.014274
343.391557	2539.856816
343.783113	2539.839172
344.174605	2539.887063
344.566033	2537.812628
344.957397	2536.285158
345.348697	2534.624098
345.739934	2532.894982
346.131106	2530.739889
346.522215	2532.027904
346.913260	2527.982378
347.304241	2525.517254
347.695159	2524.519105
348.086012	2523.175638
348.476802	2524.204033
348.867528	2515.999555
349.258191	2512.783299
349.648789	2514.469565
350.039324	2510.282887
350.429796	2513.620131
350.820203	2514.671211
351.210548	2512.737929
351.600828	2509.052845
351.991045	2508.485716
352.381198	2508.034532
352.771288	2506.398678
353.161314	2508.364728
353.551276	2506.648215
353.941175	2507.666528
354.331010	2503.298368
354.720782	2505.206445
355.110490	2508.024450
355.500135	2507.391785
355.889717	2505.776095
356.279235	2504.578821
356.668689	2503.873060
357.058080	2506.610406
357.447408	2505.861795
357.836672	2503.343739
358.225873	2504.833400
358.615010	2506.154182
359.004084	2505.952536
359.393095	2506.552433
359.782043	2509.602331
360.170927	2510.736591
360.559748	2507.212824
360.948505	2509.264574
361.337199	2510.229955
361.725830	2511.230624
362.114398	2510.298010
362.502903	2512.886643
362.891344	2515.586181
363.279722	2512.349760
363.668037	2512.874040
364.056289	2508.468072
364.444478	2513.166427
364.832603	2514.353619
365.220665	2514.668691
365.608665	2517.121212
365.996601	2515.699607
366.384474	2516.982580
366.772284	2518.910822
367.160031	2516.992663
367.547715	2517.579957
367.935336	2518.731861
368.322893	2514.930831
368.710388	2514.099040
369.097820	2517.053157
369.485189	2514.275481
369.872495	2517.942920
370.259738	2518.988960
370.646918	2518.620955
371.034035	2518.802437
371.421090	2517.859741
371.808081	2520.818898
372.195010	2523.437778
372.581875	2519.901408
372.968678	2520.869310
373.355418	2520.287057
373.742096	2522.225380
374.128710	2519.117509
374.515262	2525.466842
374.901751	2522.452232
375.288177	2520.929804
375.674540	2525.333252
376.060841	2523.316790
376.447079	2525.741585
376.833254	2522.749660
377.219367	2526.044054
377.605417	2523.470545
377.991404	2522.820237
378.377329	2525.212264
378.763191	2524.307377
379.148991	2526.787625
379.534727	2525.005577
379.920402	2527.195958
380.306013	2524.730834
380.691563	2525.746626
381.077049	2525.446678
381.462474	2523.692356
381.847835	2524.120854
382.233134	2526.868283
382.618371	2527.858870
383.003545	2526.769981
383.388657	2523.984743
383.773706	2527.309384
384.158693	2530.107224
384.543618	2528.312574
384.928480	2527.400125
385.313280	2527.868952
385.698017	2526.338962
386.082692	2532.814324
386.467305	2528.284847
386.851856	2528.637728
387.236344	2528.879703
387.620770	2526.228057
388.005133	2525.900382
388.389435	2529.494724
388.773674	2524.246883
389.157851	2531.052441
389.541965	2531.591844
389.926018	2530.034128
390.310008	2529.577903
390.693936	2531.112935
391.077802	2531.619571
391.461606	2532.935312
391.845348	2531.344828
392.229027	2533.189890
392.612645	2530.326515
392.996200	2531.165867
393.379694	2529.741741
393.763125	2534.868594
394.146494	2529.643438
394.529801	2532.584952
394.913047	2533.469674
395.296230	2531.274252
395.679351	2532.658048
396.062410	2534.707277
396.445408	2532.327853
396.828343	2534.303985
397.211217	2532.070754
397.594028	2535.236598
397.976778	2535.312216
398.359466	2534.011598
398.742092	2537.789943
399.124656	2531.869108
399.507158	2532.814324
399.889598	2536.643080
400.271977	2533.245343
400.654294	2533.721732
401.036549	2534.477905
401.418742	2537.164840
401.800874	2538.946888
402.182944	2535.861702
402.564952	2536.759027
402.946898	2536.874973
403.328783	2537.442103
403.710606	2537.341280
404.092367	2536.302802
404.474067	2538.646939
404.855705	2537.147196
405.237282	2539.897145
405.618797	2536.234747
406.000250	2537.742052
406.381642	2535.292051
406.762972	2533.880528
407.144240	2532.345497
407.525447	2535.503780
407.906593	2533.096629
408.287677	2539.211548
408.668700	2537.358924
409.049661	2539.405633
409.430560	2541.086858
409.811399	2537.714326
410.192176	2542.261446
410.572891	2535.859181
410.953545	2538.203317
411.334138	2541.396888
411.714669	2539.866898
412.095139	2542.014430
412.475547	2539.231713
412.855894	2540.141641
413.236180	2539.851775
413.616405	2540.474357
413.996568	2539.755993
414.376670	2542.410160
414.756711	2543.168854
415.136691	2542.823535
415.516609	2541.374203
415.896466	2542.218597
416.276262	2541.631302
416.655997	2542.173226
417.035670	2541.220448
417.415283	2541.228010
417.794834	2542.158103
418.174324	2541.626261
418.553753	2541.389327
418.933121	2544.567774
419.312428	2543.529297
419.691674	2543.678011
420.070859	2543.781354
420.449983	2543.060469
420.829045	2541.238092
421.208047	2542.110212
421.586988	2542.127856
421.965867	2543.083154
422.344686	2544.807229
422.723444	2545.558361
423.102141	2543.103319
423.480777	2543.395706
423.859352	2546.092723
424.237866	2543.012578
424.616319	2542.044677
424.994712	2544.056097
425.373044	2544.174564
425.751314	2540.731456
426.129524	2542.223638
426.507673	2542.125335
426.885762	2542.596683
427.263789	2543.998124
427.641756	2544.121632
428.019662	2545.727240
428.397508	2547.385779
428.775292	2544.744215
429.153016	2547.103475
429.530679	2544.671118
429.908282	2545.081972
430.285824	2547.184133
430.663305	2546.881664
431.040726	2547.211859
431.418086	2543.559543
431.795385	2548.585574
432.172624	2546.654812
432.549802	2546.947199
432.926920	2545.792775
433.303977	2546.795964
433.680974	2547.055584
434.057910	2546.168341
434.434786	2545.094575
434.811601	2549.626572
435.188355	2548.358722
435.565050	2549.896274
435.941683	2547.748742
436.318257	2549.371994
436.694770	2546.927034
437.071222	2549.031716
437.447614	2547.254709
437.823946	2549.061963
438.200218	2548.383928
438.576429	2552.230328
438.952580	2548.225131
439.328670	2546.551468
439.704700	2543.967877
440.080670	2549.175389
440.456580	2548.300749
440.832429	2546.659853
441.208218	2548.726726
441.583947	2549.971891
441.959616	2551.804351
442.335224	2548.653629
442.710773	2547.443753
443.086261	2548.903167
443.461689	2550.594474
443.837057	2551.375852
444.212365	2549.046839
444.587612	2549.598846
444.962800	2543.902342
445.337927	2548.048691
445.712995	2544.320758
446.088002	2549.868547
446.462949	2550.574309
446.837837	2552.961295
447.212664	2550.712941
447.587431	2550.120605
447.962139	2551.297715
448.336786	2550.493651
448.711374	2552.230328
449.085901	2551.222097
449.460369	2547.274874
449.834776	2549.687066
450.209124	2550.050029
450.583412	2555.554969
450.957640	2548.356201
451.331808	2549.959288
451.705917	2547.708413
452.079965	2551.237221
452.453954	2551.653116
452.827883	2551.895091
453.201752	2551.022972
453.575562	2551.610266
453.949311	2551.121274
454.323001	2551.350647
454.696632	2552.310987
455.070202	2552.331151
455.443713	2555.101265
455.817164	2551.489278
456.190556	2551.721172
456.563888	2555.484393
456.937160	2551.108671
457.310373	2551.559855
457.683526	2552.852911
458.056619	2551.920297
458.429653	2552.550441
458.802628	2553.094886
459.175542	2550.707900
459.548398	2555.980947
459.921194	2551.552293
460.293930	2553.009186
460.666607	2552.966337
461.039224	2553.286450
461.411782	2554.032541
461.784280	2556.386759
462.156719	2555.968344
462.529099	2555.325597
462.901419	2553.752757
463.273680	2549.508105
463.645882	2550.551624
464.018024	2552.094217
464.390106	2550.183620
464.762130	2554.871893
465.134094	2556.008673
465.505999	2557.513457
465.877845	2554.040102
466.249631	2555.381049
466.621358	2555.993549
466.993026	2556.444733
467.364634	2561.644683
467.736184	2555.650751
468.107674	2553.893909
468.479105	2556.885834
468.850477	2557.669733
469.221790	2558.219219
469.593043	2555.653272
469.964238	2556.850546
470.335373	2555.683518
470.706449	2553.089845
471.077467	2555.459187
471.448425	2557.455484
471.819324	2557.140412
472.190164	2557.387428
472.560945	2558.320042
472.931667	2560.306257
473.302330	2556.704352
473.672934	2552.189999
474.043479	2560.039075
474.413965	2559.860114
474.784393	2555.383570
475.154761	2560.291133
475.525070	2557.117727
475.895321	2558.380536
476.265513	2554.246790
476.635645	2557.967161
477.005719	2560.172666
477.375734	2557.205947
477.745691	2560.157542
478.115588	2561.075033
478.485427	2558.143602
478.855207	2558.680484
479.224928	2559.736606
479.594591	2560.903633
479.964194	2560.041596
480.333739	2561.916905
480.703226	2560.485217
481.072653	2560.729713
481.442022	2563.908161
481.811333	2560.976730
482.180584	2560.220557
482.549777	2559.978582
482.918912	2555.071018
483.287988	2563.285578
483.657005	2558.869528
484.025964	2562.657955
484.394864	2563.709035
484.763706	2561.463201
485.132489	2561.584189
485.501213	2564.011505
485.869879	2562.809189
486.238487	2562.766340
486.607036	2561.581668
486.975527	2562.282389
487.343959	2562.799107
487.712333	2563.353634
488.080648	2560.321380
488.448905	2564.392112
488.817104	2564.641649
489.185244	2563.504869
489.553326	2563.976217
489.921350	2566.721125
490.289315	2563.814900
490.657222	2564.578634
491.025070	2568.546022
491.392861	2567.152143
491.760593	2564.041752
492.128267	2566.945456
492.495883	2565.846485
492.863440	2565.052503
493.230939	2563.446895
493.598380	2564.223233
493.965763	2564.203068
494.333088	2565.415466
494.700354	2566.053172
495.067563	2565.768347
495.434713	2566.453944
495.801805	2565.037379
496.168839	2566.214489
496.535815	2565.513768
496.902733	2564.986968
497.269593	2566.146433
497.636395	2565.496124
498.003139	2563.126782
498.369825	2564.099725
498.736453	2560.354148
499.103023	2563.285578
499.469535	2568.175498
499.835989	2562.577296
500.202385	2561.301884
500.568723	2560.260886
500.935003	2561.064950
501.301226	2560.765002
501.667390	2564.747513
502.033497	2568.616599
502.399546	2567.583162
502.765537	2565.760785
503.131470	2569.342525
503.497345	2565.715415
503.863163	2566.015363
504.228923	2565.521330
504.594625	2566.877401
504.960269	2566.108625
505.325856	2563.393963
505.691385	2568.737586
506.056856	2565.070147
506.422270	2568.014181
506.787625	2567.782288
507.152924	2568.147771
507.518164	2566.847154
507.883347	2566.481670
508.248472	2566.695919
508.613540	2567.378995
508.978550	2566.350600
509.343503	2565.496124
509.708398	2570.933009
510.073236	2571.336301
510.438016	2566.796742
510.802738	2567.943605
511.167403	2568.664490
511.532010	2570.033163
511.896561	2568.157854
512.261053	2568.407391
512.625488	2569.297154
512.989866	2571.217834
513.354186	2569.400498
513.718449	2568.301527
514.082655	2571.154820
514.446803	2569.529047
514.810894	2571.898390
515.174927	2575.401992
515.538904	2571.197669
515.902822	2571.285890
516.266684	2570.912844
516.630488	2574.343349
516.994235	2574.829821
517.357925	2576.700089
517.721558	2574.587845
518.085133	2574.466858
518.448651	2570.963256
518.812112	2570.020560
519.175516	2574.960891
519.538863	2572.132803
519.902152	2576.783268
520.265385	2578.106571
520.628560	2576.725295
520.991678	2578.988773
521.354739	2579.528176
521.717743	2579.369380
522.080690	2579.883577
522.443580	2578.401478
522.806413	2585.156624
523.169189	2580.125553
523.531908	2582.315934
523.894569	2585.045719
524.257174	2585.932962
524.619722	2584.886923
524.982213	2585.900195
525.344647	2586.520257
525.707025	2587.430185
526.069345	2588.617377
526.431608	2586.490010
526.793815	2589.912953
527.155964	2588.198961
527.518057	2590.427151
527.880093	2588.861872
528.242072	2592.262131
528.603995	2593.093921
528.965860	2594.114755
529.327669	2592.282295
529.689421	2595.455702
530.051117	2594.805393
530.412755	2595.511154
530.774337	2596.244642
531.135862	2595.357399
531.497331	2598.293871
531.858743	2599.677668
532.220098	2599.919643
532.581396	2601.119438
532.942638	2599.352514
533.303824	2601.671444
533.664953	2602.714963
534.026025	2605.117073
534.387040	2604.214707
534.747999	2604.045828
535.108902	2603.992896
535.469748	2605.026332
535.830537	2605.285952
536.191270	2609.709564
536.551947	2606.785695
536.912567	2605.379213
537.273131	2608.706375
537.633638	2605.669079
537.994089	2608.358535
538.354483	2609.268463
538.714821	2614.607045
539.075103	2611.042949
539.435328	2614.665018
539.795497	2613.051849
540.155609	2616.061418
540.515665	2614.894391
540.875665	2612.494802
541.235609	2615.166613
541.595496	2614.324741
541.955328	2619.537294
542.315102	2618.549227
542.674821	2615.159052
543.034483	2617.568723
543.394090	2618.486213
543.753640	2620.744650
544.113134	2623.270268
544.472571	2619.887654
544.831953	2621.725154
545.191278	2619.398662
545.550548	2623.610546
545.909761	2623.744137
546.268918	2628.409724
546.628019	2626.153808
546.987064	2623.711369
547.346053	2624.220526
547.704986	2624.835546
548.063863	2629.080198
548.422684	2626.862090
548.781449	2627.774539
549.140158	2628.082049
549.498811	2629.158336
549.857408	2628.059364
550.215949	2630.519447
550.574434	2629.281844
550.932864	2630.854684
551.291237	2628.288737
551.649555	2634.043214
552.007817	2631.900723
552.366022	2631.406690
552.724173	2631.136989
553.082267	2631.588172
553.440305	2633.345014
553.798288	2633.637401
554.156215	2632.961886
554.514086	2631.273100
554.871902	2626.831843
555.229661	2631.154633
555.587365	2629.075157
555.945014	2636.170581
556.302606	2633.629839
556.660143	2635.328708
557.017625	2635.167391
557.375050	2633.859212
557.732421	2630.587503
558.089735	2635.316105
558.446994	2633.536578
558.804197	2635.956332
559.161345	2638.970942
559.518437	2634.706126
559.875474	2637.514048
560.232455	2635.800056
560.589381	2637.009933
560.946251	2635.605972
561.303065	2638.038328
561.659825	2641.317599
562.016528	2638.083699
562.373177	2638.862557
562.729770	2636.372227
563.086307	2642.918165
563.442789	2641.327681
563.799216	2640.926909
564.155587	2637.103194
564.511904	2644.370017
564.868164	2640.566467
565.224370	2643.336581
565.580520	2642.020840
565.936615	2642.676190
566.292654	2639.543113
566.648638	2644.816160
567.004567	2641.483957
567.360441	2642.396406
567.716260	2641.746097
568.072023	2644.130563
568.427732	2641.015130
568.783385	2641.657877
569.138982	2642.708957
569.494525	2644.057466
569.850013	2644.102836
570.205445	2641.466313
570.560823	2643.334060
570.916145	2643.676859
571.271412	2643.697023
571.626625	2647.989566
571.981782	2648.307159
572.336884	2639.898514
572.691931	2644.712816
573.046923	2643.780202
573.401860	2644.256592
573.756743	2650.011069
574.111570	2646.941006
574.466342	2647.072076
574.821059	2649.189361
575.175722	2646.872950
575.530330	2651.344454
575.884882	2652.549290
576.239380	2651.314207
576.593823	2653.076090
576.948211	2650.931079
577.302544	2651.956954
577.656823	2653.315545
578.011047	2652.340082
578.365216	2655.516009
578.719330	2654.487613
579.073389	2654.991729
579.427394	2659.800989
579.781344	2657.068684
580.135239	2656.665392
580.489080	2654.318735
580.842866	2654.767397
581.196597	2665.391629
581.550273	2661.794766
581.903895	2662.893737
582.257463	2666.399860
582.610975	2665.736948
582.964434	2669.550581
583.317837	2666.268790
583.671186	2670.130314
584.024481	2674.871519
584.377721	2673.139882
584.730906	2672.396312
585.084037	2676.018381
585.437113	2675.872188
585.790135	2676.467044
586.143103	2681.717406
586.496016	2681.669515
586.848874	2688.170083
587.201679	2684.374094
587.554428	2684.414423
587.907124	2689.914322
588.259765	2689.931966
588.612352	2694.741227
588.964884	2696.079653
589.317362	2695.676361
589.669786	2697.934798
590.022155	2699.749613
590.374470	2706.035932
590.726731	2706.361086
591.078937	2702.910417
591.431090	2711.387117
591.783188	2714.245451
592.135232	2716.607232
592.487222	2720.975391
592.839157	2722.820454
593.191038	2724.325238
593.542866	2723.848849
593.894639	2724.226936
594.246358	2734.715056
594.598022	2735.095663
594.949633	2737.921230
595.301190	2737.762434
595.652692	2742.175964
596.004141	2746.135790
596.355535	2746.503794
596.706876	2747.449011
597.058162	2752.230545
597.409395	2754.635176
597.760573	2757.864035
598.111698	2756.926380
598.462768	2766.219747
598.813785	2769.131013
599.164748	2767.424583
599.515657	2771.117228
599.866511	2772.690068
600.217312	2781.476799
600.568060	2780.045112
600.918753	2792.557255
601.269392	2795.702935
601.619978	2795.687812
601.970510	2804.439255
602.320988	2808.159627
602.671412	2820.109682
603.021783	2822.504230
603.372100	2822.761329
603.722363	2832.107628
604.072572	2838.038545
604.422728	2841.406036
604.772830	2849.174454
605.122878	2848.186388
605.472872	2857.280630
605.822813	2863.146012
606.172701	2873.366952
606.522534	2882.758621
606.872314	2887.187275
607.222041	2890.030486
607.571714	2899.701939
607.921333	2913.214752
608.270899	2920.481575
608.620411	2932.545057
608.969870	2930.856270
609.319276	2950.753704
609.668627	2964.747947
610.017926	2975.546099
610.367171	2989.870538
610.716362	3004.101715
611.065500	3007.015502
611.414585	3020.301463
611.763616	3027.190199
612.112594	3038.008516
612.461518	3041.733928
612.810389	3059.138512
613.159207	3064.865263
613.507971	3072.832806
613.856682	3100.501179
614.205340	3108.335132
614.553945	3136.036273
614.902496	3132.726755
615.250994	3162.830005
615.599439	3170.285872
615.947830	3186.601566
616.296169	3199.489276
616.644454	3217.105588
616.992686	3226.973647
617.340864	3258.470776
617.688990	3273.498456
618.037063	3307.291831
618.385082	3319.022596
618.733048	3349.047708
619.080961	3360.440716
619.428821	3389.142525
619.776628	3407.971235
620.124382	3417.315013
620.472083	3441.447017
620.819731	3459.968216
621.167326	3459.829584
621.514868	3472.558498
621.862357	3476.001606
622.209793	3491.999707
622.557176	3496.980368
622.904506	3492.224039
623.251783	3503.208713
623.599007	3514.868902
623.946179	3524.003473
624.293297	3533.155687
624.640363	3543.379147
624.987376	3549.088254
625.334336	3555.533369
625.681243	3563.170717
626.028097	3575.385433
626.374899	3608.808283
626.721647	3605.624795
627.068343	3616.183491
627.414987	3634.704691
627.761577	3660.845594
628.108115	3685.484233
628.454600	3678.592976
628.801032	3702.906461
629.147412	3723.655850
629.493739	3745.771392
629.840014	3759.876541
630.186236	3790.012558
630.532405	3796.245945
630.878521	3843.040456
631.224585	3853.838607
631.570597	3874.701422
631.916556	3892.358064
632.262462	3915.502001
632.608316	3948.942495
632.954117	3963.365236
633.299866	3989.755677
633.645562	4005.985671
633.991206	3995.265658
634.336797	3992.979494
634.682336	4019.755583
635.027823	4020.143752
635.373257	4039.007750
635.718639	4036.078839
636.063968	4052.976787
636.409245	4046.193914
636.754470	4066.471956
637.099642	4076.529058
637.444762	4058.446439
637.789829	4091.047581
638.134845	4094.977160
638.479808	4119.283083
638.824719	4136.019714
639.169577	4136.675064
639.514383	4159.516532
639.859137	4159.405627
640.203839	4193.579609
640.548489	4187.179864
640.893086	4222.281418
641.237632	4208.171229
641.582125	4268.712966
641.926566	4266.089045
642.270955	4284.453969
642.615292	4306.597237
642.959576	4332.425589
643.303809	4366.985219
643.647990	4373.468143
643.992118	4427.169034
644.336195	4397.963109
