Dividing Wavelength (nm)	Counts (n)	Blue Motor Position (mm): 26.800000	Red Motor Position (mm): 0.000000	
326.493990	2203.478264
326.888308	2203.478264
327.282561	2203.478264
327.676750	2162.763385
328.070874	2161.321615
328.464933	2160.041162
328.858929	2164.774805
329.252859	2169.349652
329.646726	2175.550272
330.040528	2190.908147
330.434265	2203.758048
330.827938	2221.475183
331.221547	2235.693758
331.615091	2256.145719
332.008571	2275.453338
332.401986	2293.102418
332.795338	2312.062197
333.188625	2329.718838
333.581847	2348.557630
333.975006	2369.032277
334.368100	2387.969371
334.761129	2405.694068
335.154095	2421.740061
335.546996	2448.274174
335.939833	2484.552838
336.332606	2498.685713
336.725315	2509.055366
337.117960	2524.871986
337.510540	2534.636701
337.903056	2545.840666
338.295508	2558.372974
338.687896	2562.746175
339.080220	2571.742114
339.472480	2579.225707
339.864676	2587.725092
340.256807	2590.633838
340.648875	2594.492841
341.040879	2594.303798
341.432818	2599.450816
341.824694	2601.358893
342.216506	2603.960128
342.608253	2601.799994
342.999937	2604.073554
343.391557	2605.888370
343.783113	2603.995416
344.174605	2605.432145
344.566033	2601.568101
344.957397	2601.792432
345.348697	2600.670775
345.739934	2598.019128
346.131106	2596.610126
346.522215	2593.618201
346.913260	2592.355392
347.304241	2590.437233
347.695159	2587.911615
348.086012	2589.038313
348.476802	2585.038157
348.867528	2580.932137
349.258191	2579.092116
349.648789	2575.883422
350.039324	2574.345870
350.429796	2577.728484
350.820203	2574.766806
351.210548	2576.024574
351.600828	2574.378637
351.991045	2571.081723
352.381198	2572.810839
352.771288	2571.358986
353.161314	2571.114490
353.551276	2569.662638
353.941175	2569.246743
354.331010	2569.123235
354.720782	2570.630540
355.110490	2571.341342
355.500135	2571.348904
355.889717	2569.886969
356.279235	2568.170457
356.668689	2569.178687
357.058080	2568.175498
357.447408	2568.016701
357.836672	2570.141548
358.225873	2572.974676
358.615010	2570.275138
359.004084	2571.147258
359.393095	2570.512072
359.782043	2572.258832
360.170927	2572.422670
360.559748	2571.018708
360.948505	2576.682445
361.337199	2576.266550
361.725830	2574.020716
362.114398	2577.967939
362.502903	2575.182702
362.891344	2577.108422
363.279722	2576.982393
363.668037	2574.272773
364.056289	2574.792012
364.444478	2579.858372
364.832603	2577.708320
365.220665	2578.961046
365.608665	2579.344174
365.996601	2580.760738
366.384474	2581.821901
366.772284	2580.612024
367.160031	2581.237127
367.547715	2579.344174
367.935336	2581.567323
368.322893	2579.344174
368.710388	2576.785788
369.097820	2580.014647
369.485189	2577.030284
369.872495	2583.624114
370.259738	2584.108064
370.646918	2584.413054
371.034035	2583.798033
371.421090	2584.193764
371.808081	2582.999011
372.195010	2585.413723
372.581875	2585.953127
372.968678	2584.642427
373.355418	2583.664443
373.742096	2587.578899
374.128710	2585.325503
374.515262	2585.706110
374.901751	2585.141501
375.288177	2585.489341
375.674540	2588.004876
376.060841	2584.566809
376.447079	2587.329362
376.833254	2588.433374
377.219367	2586.800041
377.605417	2588.607294
377.991404	2589.509661
378.377329	2589.814651
378.763191	2587.447829
379.148991	2592.279775
379.534727	2589.537387
379.920402	2588.204002
380.306013	2591.568972
380.691563	2590.878334
381.077049	2591.384970
381.462474	2589.096286
381.847835	2587.765422
382.233134	2593.429158
382.618371	2594.699529
383.003545	2590.270875
383.388657	2590.354054
383.773706	2596.307657
384.158693	2594.631473
384.543618	2594.732296
384.928480	2593.497213
385.313280	2595.175918
385.698017	2595.206165
386.082692	2595.087697
386.467305	2594.805393
386.851856	2596.723552
387.236344	2596.647935
387.620770	2591.705083
388.005133	2590.396904
388.389435	2595.180959
388.773674	2593.310691
389.157851	2599.057606
389.541965	2598.124993
389.926018	2596.836978
390.310008	2596.973089
390.693936	2597.860332
391.077802	2599.226485
391.461606	2599.415528
391.845348	2599.859150
392.229027	2600.892586
392.612645	2598.840837
392.996200	2600.577514
393.379694	2600.300251
393.763125	2599.728080
394.146494	2601.457195
394.529801	2601.207658
394.913047	2602.644387
395.296230	2604.078595
395.679351	2601.147164
396.062410	2599.778491
396.445408	2601.346290
396.828343	2603.544233
397.211217	2602.316712
397.594028	2607.859461
397.976778	2604.728904
398.359466	2606.677310
398.742092	2603.778647
399.124656	2604.202104
399.507158	2605.469954
399.889598	2604.625561
400.271977	2605.860643
400.654294	2608.441714
401.036549	2603.246805
401.418742	2605.482557
401.800874	2607.720829
402.182944	2606.387444
402.564952	2607.136055
402.946898	2606.069851
403.328783	2608.169492
403.710606	2609.412136
404.092367	2610.001951
404.474067	2608.134204
404.855705	2609.704523
405.237282	2609.480192
405.618797	2611.128649
406.000250	2609.472630
406.381642	2611.489092
406.762972	2609.790223
407.144240	2605.653956
407.525447	2607.902311
407.906593	2608.174533
408.287677	2609.840634
408.668700	2612.598145
409.049661	2614.849021
409.430560	2611.990686
409.811399	2614.901953
410.192176	2615.678290
410.572891	2613.480347
410.953545	2611.554627
411.334138	2613.160234
411.714669	2613.296345
412.095139	2615.055708
412.475547	2616.792385
412.855894	2617.034361
413.236180	2614.397837
413.616405	2616.361367
413.996568	2616.061418
414.376670	2617.039402
414.756711	2616.517642
415.136691	2619.108796
415.516609	2617.021758
415.896466	2617.898919
416.276262	2618.665174
416.655997	2618.740791
417.035670	2619.290277
417.415283	2621.919239
417.794834	2619.179372
418.174324	2619.449073
418.553753	2620.540483
418.933121	2622.526698
419.312428	2621.031996
419.691674	2618.791203
420.070859	2625.047275
420.449983	2621.921759
420.829045	2621.538632
421.208047	2621.508385
421.586988	2624.281019
421.965867	2623.383694
422.344686	2626.894858
422.723444	2624.076853
423.102141	2622.317490
423.480777	2628.434930
423.859352	2624.956534
424.237866	2627.106586
424.616319	2630.398460
424.994712	2628.477780
425.373044	2628.523150
425.751314	2626.423510
426.129524	2625.120372
426.507673	2629.397791
426.885762	2627.764457
427.263789	2631.043727
427.641756	2631.552884
428.019662	2629.712863
428.397508	2633.155971
428.775292	2629.816206
429.153016	2635.278297
429.530679	2631.875518
429.908282	2633.972638
430.285824	2633.392905
430.663305	2635.341311
431.040726	2636.001702
431.418086	2635.250570
431.795385	2637.413225
432.172624	2636.828451
432.549802	2638.751652
432.926920	2636.677217
433.303977	2638.759213
433.680974	2641.000006
434.057910	2644.526293
434.434786	2641.887249
434.811601	2643.976808
435.188355	2646.444452
435.565050	2646.363794
435.941683	2648.065183
436.318257	2651.256234
436.694770	2652.145997
437.071222	2653.071049
437.447614	2657.671102
437.823946	2659.904333
438.200218	2659.896771
438.576429	2665.207627
438.952580	2666.893893
439.328670	2672.671055
439.704700	2676.028464
440.080670	2680.613393
440.456580	2688.175124
440.832429	2696.273737
441.208218	2697.728110
441.583947	2710.083978
441.959616	2721.033365
442.335224	2728.353120
442.710773	2742.682600
443.086261	2756.187851
443.461689	2761.607091
443.837057	2786.553241
444.212365	2809.939154
444.587612	2821.969867
444.962800	2844.955008
445.337927	2868.320757
445.712995	2877.563712
446.088002	2940.409257
446.462949	2963.401959
446.837837	2997.268431
447.212664	3034.716642
447.587431	3102.683999
447.962139	3184.504446
448.336786	3383.539283
448.711374	3499.868949
449.085901	3402.360430
449.460369	3424.677618
449.834776	3448.239972
450.209124	3592.701797
450.583412	3719.595201
450.957640	3909.034201
451.331808	3898.382242
451.705917	3861.985112
452.079965	3852.401878
452.453954	4066.348447
452.827883	4100.656020
453.201752	4242.856888
453.575562	4255.464813
453.949311	4416.207045
454.323001	4517.146068
454.696632	4656.271832
455.070202	4822.405578
455.443713	4984.030011
455.817164	5213.687337
456.190556	5329.046581
456.563888	5549.881887
456.937160	5719.912444
457.310373	5665.185678
457.683526	5796.779958
458.056619	5802.310104
458.429653	5963.208611
458.802628	5938.645589
459.175542	6173.399521
459.548398	6608.009997
459.921194	6890.866618
460.293930	7040.208280
460.666607	7532.164402
461.039224	8092.153415
461.411782	8562.125065
461.784280	8703.816776
462.156719	8901.755161
462.529099	8915.315865
462.901419	8631.629973
463.273680	8701.528092
463.645882	8788.266185
464.018024	8816.080752
464.390106	9085.560672
464.762130	9635.865628
465.134094	10150.446448
465.505999	11303.814557
465.877845	13248.205240
466.249631	15067.081274
466.621358	15217.373193
466.993026	14687.197564
467.364634	14612.444814
467.736184	14020.031099
468.107674	13724.004463
468.479105	13984.707734
468.850477	13862.437068
469.221790	13770.738480
469.593043	13511.948327
469.964238	13350.626363
470.335373	13282.384263
470.706449	13726.877921
471.077467	13547.957289
471.448425	14968.423372
471.819324	18033.349129
472.190164	19859.877635
472.560945	17506.634252
472.931667	15826.909187
473.302330	15487.218597
473.672934	15199.124217
474.043479	15662.799465
474.413965	15653.158258
474.784393	15499.153529
475.154761	16155.259702
475.525070	16322.631051
475.895321	16136.428472
476.265513	16738.228815
476.635645	17346.199531
477.005719	17301.126574
477.375734	17582.412876
477.745691	18145.814751
478.115588	18677.139763
478.485427	19252.597557
478.855207	20290.099786
479.224928	21895.540928
479.594591	24013.284288
479.964194	24233.098761
480.333739	24615.477842
480.703226	24318.873993
481.072653	24134.012361
481.442022	24717.117586
481.811333	25636.099767
482.180584	25690.461050
482.549777	24895.345059
482.918912	24633.623475
483.287988	24821.063657
483.657005	24610.103972
484.025964	24396.374172
484.394864	24423.009108
484.763706	24204.669174
485.132489	23703.172668
485.501213	23909.307970
485.869879	23892.999837
486.238487	23711.969482
486.607036	23927.428397
486.975527	23644.251662
487.343959	24025.088150
487.712333	24021.110680
488.080648	23714.878228
488.448905	24206.630182
488.817104	23978.344051
489.185244	24645.896164
489.553326	24665.211345
489.921350	25598.850681
490.289315	27838.620212
490.657222	29666.572843
491.025070	30175.285760
491.392861	30003.122795
491.760593	29199.141935
492.128267	28333.222939
492.495883	27334.104055
492.863440	26463.199358
493.230939	25612.618072
493.598380	25458.429341
493.965763	25075.737708
494.333088	24650.909592
494.700354	24565.353649
495.067563	24483.550846
495.434713	24236.942641
495.801805	24379.113261
496.168839	24208.422313
496.535815	24032.843965
496.902733	24249.545525
497.269593	23921.830196
497.636395	24124.459375
498.003139	24108.483958
498.369825	23860.123952
498.736453	24052.078488
499.103023	23930.155662
499.469535	23963.500374
499.835989	24158.041021
500.202385	24188.726525
500.568723	23692.082130
500.935003	23966.842659
501.301226	23548.419328
501.667390	24368.088258
502.033497	24628.834379
502.399546	24358.827658
502.765537	23951.489825
503.131470	24324.053779
503.497345	24463.144255
503.863163	23667.935003
504.228923	24312.615401
504.594625	24483.303829
504.960269	23996.824921
505.325856	24501.058773
505.691385	23908.526591
506.056856	24516.638459
506.422270	24486.883048
506.787625	24085.881945
507.152924	24474.300328
507.518164	24511.156204
507.883347	24305.613238
508.248472	23996.829962
508.613540	24783.388594
508.978550	24551.288830
509.343503	24551.286309
509.708398	24831.284597
510.073236	24987.832588
510.438016	25186.196951
510.802738	24870.726584
511.167403	25111.870179
511.532010	24807.094620
511.896561	25597.517296
512.261053	25568.742390
512.625488	25412.406127
512.989866	25290.652179
513.354186	25160.116542
513.718449	25245.952268
514.082655	25631.570290
514.446803	25366.813932
514.810894	25820.842932
515.174927	25314.262423
515.538904	25349.502609
515.902822	25838.028226
516.266684	25578.993576
516.630488	25484.545038
516.994235	25481.767363
517.357925	25766.995847
517.721558	25952.228004
518.085133	26044.133280
518.448651	25963.220240
518.812112	25693.803335
519.175516	25874.165737
519.538863	26044.362653
519.902152	25823.822254
520.265385	26122.868541
520.628560	25898.282617
520.991678	25927.349910
521.354739	26007.544585
521.717743	26051.009414
522.080690	25839.457393
522.443580	26178.041450
522.806413	26175.019278
523.169189	26265.875994
523.531908	26318.225856
523.894569	25924.673057
524.257174	25994.014128
524.619722	26201.734873
524.982213	25877.651695
525.344647	25960.583717
525.707025	26063.486270
526.069345	26068.628247
526.431608	26019.378694
526.793815	26218.113582
527.155964	25655.041903
527.518057	25826.037841
527.880093	25758.428406
528.242072	25993.053789
528.603995	25691.073550
528.965860	25489.734906
529.327669	25545.762290
529.689421	25533.781988
530.051117	25364.631112
530.412755	25547.877054
530.774337	25351.330027
531.135862	25215.450767
531.497331	25419.080615
531.858743	24955.402846
532.220098	25444.208246
532.581396	25118.617763
532.942638	25071.798047
533.303824	25166.702809
533.664953	25191.522930
534.026025	24842.148283
534.387040	25079.206022
534.747999	25145.562730
535.108902	25313.801158
535.469748	24798.794360
535.830537	24991.386602
536.191270	25093.117086
536.551947	25002.956050
536.912567	24657.538709
537.273131	24970.508663
537.633638	24687.092473
537.994089	24898.387396
538.354483	24448.287974
538.714821	24948.728358
539.075103	24986.002649
539.435328	24777.734940
539.795497	24313.353930
540.155609	24725.987496
540.515665	25021.938515
540.875665	24273.382621
541.235609	24541.168713
541.595496	24522.526527
541.955328	24866.665935
542.315102	24782.965137
542.674821	24350.895403
543.034483	24212.931625
543.394090	24394.256888
543.753640	24181.429454
544.113134	24801.098168
544.472571	24406.756428
544.831953	24692.224368
545.191278	24305.104082
545.550548	24239.430450
545.909761	24453.989519
546.268918	24676.349774
546.628019	24639.415761
546.987064	24344.977088
547.346053	24096.798564
547.704986	24235.021961
548.063863	24396.333843
548.422684	24388.275558
548.781449	23935.595067
549.140158	24332.348998
549.498811	23910.898454
549.857408	23656.491584
550.215949	24088.556277
550.574434	23761.125773
550.932864	23992.774354
551.291237	24131.247288
551.649555	24007.302959
552.007817	24055.055289
552.366022	23931.357977
552.724173	23970.782320
553.082267	23911.916767
553.440305	24373.681418
553.798288	23645.199399
554.156215	24185.076729
554.514086	24252.945783
554.871902	23624.462613
555.229661	23918.339197
555.587365	23773.872331
555.945014	23627.053766
556.302606	23882.327714
556.660143	23812.946314
557.017625	24086.121400
557.375050	23619.474391
557.732421	24009.357230
558.089735	23811.549914
558.446994	23878.362847
558.804197	23894.688624
559.161345	23861.537996
559.518437	23602.205919
559.875474	23795.483757
560.232455	23983.181038
560.589381	23804.719151
560.946251	23771.681949
561.303065	24108.942703
561.659825	24182.888868
562.016528	23794.236072
562.373177	23538.745353
562.729770	23889.990268
563.086307	23760.586370
563.442789	23924.754065
563.799216	23746.859308
564.155587	23774.457104
564.511904	23750.347786
564.868164	23682.781201
565.224370	23674.556559
565.580520	23572.982350
565.936615	23700.097565
566.292654	23377.463718
566.648638	23699.258213
567.004567	23508.417772
567.360441	23461.219969
567.716260	23194.565616
568.072023	23522.815307
568.427732	23268.988170
568.783385	23063.467889
569.138982	23292.474906
569.494525	23331.576616
569.850013	23082.193255
570.205445	23176.409900
570.560823	22984.074757
570.916145	22742.192634
571.271412	22916.326691
571.626625	22669.784021
571.981782	22795.717085
572.336884	22594.111261
572.691931	22725.440880
573.046923	22457.468265
573.401860	22349.146472
573.756743	22342.217406
574.111570	22264.046754
574.466342	22193.457997
574.821059	22289.028192
575.175722	21991.138849
575.530330	21973.353658
575.884882	22007.399091
576.239380	21899.752812
576.593823	21806.955252
576.948211	21767.979571
577.302544	21619.560440
577.656823	21496.677274
578.011047	21587.402920
578.365216	21458.417437
578.719330	21346.866785
579.073389	21241.874673
579.427394	21388.199205
579.781344	21160.684370
580.135239	21047.003830
580.489080	21014.677431
580.842866	20779.724374
581.196597	20986.026033
581.550273	20957.120057
581.903895	20843.994044
582.257463	21166.113693
582.610975	20694.395283
582.964434	20996.627580
583.317837	20698.138340
583.671186	20790.041095
584.024481	20752.696228
584.377721	20531.313957
584.730906	20588.863769
585.084037	20620.512133
585.437113	20533.516941
585.790135	20723.928883
586.143103	20194.925322
586.496016	20204.871519
586.848874	20444.003692
587.201679	20379.318127
587.554428	20042.758093
587.907124	20385.932121
588.259765	20166.341980
588.612352	20244.684031
588.964884	19801.370003
589.317362	19980.031016
589.669786	20035.672752
590.022155	20080.329813
590.374470	20263.931157
590.726731	20064.520754
591.078937	19821.176697
591.431090	19922.690412
591.783188	19664.411935
592.135232	19643.639861
592.487222	19734.282328
592.839157	19765.295506
593.191038	19644.595160
593.542866	19527.693323
593.894639	19256.363299
594.246358	19480.054419
594.598022	19380.438698
594.949633	19135.869640
595.301190	19090.032948
595.652692	19245.958358
596.004141	19503.480661
596.355535	18829.775819
596.706876	18852.181228
597.058162	18729.968535
597.409395	18960.137537
597.760573	19036.886584
598.111698	18812.761925
598.462768	18747.786493
598.813785	18724.864367
599.164748	18543.985246
599.515657	18568.240758
599.866511	18361.412298
600.217312	18725.769254
600.568060	18247.474659
600.918753	18563.048369
601.269392	18471.995049
601.619978	18230.604438
601.970510	18454.366134
602.320988	18393.242143
602.671412	18600.889791
603.021783	18505.770779
603.372100	18245.833764
603.722363	18372.913690
604.072572	18319.510227
604.422728	18455.167677
604.772830	18224.373572
605.122878	18170.040016
605.472872	18169.011620
605.822813	18149.431779
606.172701	18110.226725
606.522534	18317.995360
606.872314	18331.558585
607.222041	18171.186878
607.571714	18380.666985
607.921333	18207.463021
608.270899	18288.320608
608.620411	18478.107448
608.969870	18238.876971
609.319276	18239.466786
609.668627	18271.863762
610.017926	18405.252692
610.367171	18522.729221
610.716362	18557.772802
611.065500	18375.272950
611.414585	18515.401904
611.763616	18494.103029
612.112594	18442.955482
612.461518	18409.595646
612.810389	18608.330534
613.159207	18452.256411
613.507971	18371.366056
613.856682	18649.778901
614.205340	18576.820802
614.553945	18722.159788
614.902496	18466.963977
615.250994	18708.906594
615.599439	18641.675246
615.947830	18634.899935
616.296169	18673.956275
616.644454	18643.908477
616.992686	18610.074773
617.340864	18826.814142
617.688990	18579.467407
618.037063	18758.415766
618.385082	18595.999872
618.733048	18895.091529
619.080961	18747.403366
619.428821	18808.469383
619.776628	18686.629735
620.124382	18604.688300
620.472083	18646.446698
620.819731	18672.746398
621.167326	18365.843472
621.514868	18394.202483
621.862357	18173.256272
622.209793	18180.628959
622.557176	18016.960338
622.904506	17835.942586
623.251783	17750.918485
623.599007	17508.754057
623.946179	17462.602293
624.293297	17397.778096
624.640363	17156.682393
624.987376	17174.853232
625.334336	16970.701625
625.681243	16808.794887
626.028097	16824.029253
626.374899	16748.480001
626.721647	16615.136441
627.068343	16443.139833
627.414987	16380.690020
627.761577	16346.037128
628.108115	16403.617187
628.454600	16118.393744
628.801032	16214.972169
629.147412	16140.005170
629.493739	16169.231260
629.840014	15977.238916
630.186236	16082.074751
630.532405	15836.452092
630.878521	16042.163936
631.224585	15929.322748
631.570597	15746.797691
631.916556	15782.746159
632.262462	15762.072387
632.608316	15682.767475
632.954117	15626.049453
633.299866	15616.720798
633.645562	15535.076791
633.991206	15296.960410
634.336797	15165.713969
634.682336	15131.597961
635.027823	15022.247772
635.373257	14905.963476
635.718639	14801.573783
636.063968	14755.129633
636.409245	14503.157640
636.754470	14534.916909
637.099642	14384.370411
