Dividing Wavelength (nm)	Counts (n)	Blue Motor Position (mm): 11.800000	Red Motor Position (mm): 0.000000	
326.493990	2160.071409
326.888308	2160.071409
327.282561	2160.071409
327.676750	2123.689401
328.070874	2117.856786
328.464933	2118.955758
328.858929	2119.527929
329.252859	2129.043107
329.646726	2136.438479
330.040528	2147.881899
330.434265	2161.309012
330.827938	2180.745181
331.221547	2195.866122
331.615091	2212.416230
332.008571	2233.760475
332.401986	2252.808475
332.795338	2270.661721
333.188625	2287.335338
333.581847	2306.741259
333.975006	2324.385298
334.368100	2343.743328
334.761129	2361.024404
335.154095	2378.681045
335.546996	2398.346586
335.939833	2425.115113
336.332606	2437.110539
336.725315	2451.692076
337.117960	2461.345886
337.510540	2473.858030
337.903056	2485.112406
338.295508	2494.257059
338.687896	2504.074706
339.080220	2513.400841
339.472480	2515.515605
339.864676	2521.996008
340.256807	2528.849457
340.648875	2533.086546
341.040879	2535.697864
341.432818	2537.999151
341.824694	2540.401261
342.216506	2539.332536
342.608253	2542.531148
342.999937	2542.579039
343.391557	2543.776313
343.783113	2543.783875
344.174605	2541.202804
344.566033	2541.999306
344.957397	2536.605272
345.348697	2540.202135
345.739934	2536.451517
346.131106	2536.292720
346.522215	2532.496731
346.913260	2528.599919
347.304241	2526.354085
347.695159	2525.993643
348.086012	2527.251411
348.476802	2525.441637
348.867528	2519.057015
349.258191	2515.891171
349.648789	2516.901922
350.039324	2513.655419
350.429796	2514.966119
350.820203	2515.767662
351.210548	2513.746160
351.600828	2514.053670
351.991045	2511.202898
352.381198	2509.181395
352.771288	2506.749038
353.161314	2512.584174
353.551276	2505.957577
353.941175	2508.369769
354.331010	2506.060921
354.720782	2508.029491
355.110490	2508.989831
355.500135	2506.786847
355.889717	2506.257526
356.279235	2508.936899
356.668689	2506.202073
357.058080	2507.081754
357.447408	2509.425891
357.836672	2509.498988
358.225873	2508.437825
358.615010	2509.972856
359.004084	2510.355984
359.393095	2512.813546
359.782043	2509.728360
360.170927	2510.676097
360.559748	2513.471417
360.948505	2513.592404
361.337199	2510.645850
361.725830	2512.727847
362.114398	2514.635923
362.502903	2512.175840
362.891344	2513.463855
363.279722	2513.665501
363.668037	2517.229597
364.056289	2514.361180
364.444478	2518.215143
364.832603	2517.141377
365.220665	2518.378980
365.608665	2516.047446
365.996601	2518.424350
366.384474	2517.597601
366.772284	2520.138343
367.160031	2518.230266
367.547715	2520.687828
367.935336	2519.346882
368.322893	2516.425533
368.710388	2516.213804
369.097820	2518.900739
369.485189	2513.652898
369.872495	2519.387211
370.259738	2524.597243
370.646918	2520.914680
371.034035	2521.244876
371.421090	2524.171266
371.808081	2521.668333
372.195010	2521.633045
372.581875	2524.201513
372.968678	2521.859897
373.355418	2523.906605
373.742096	2524.322500
374.128710	2522.956348
374.515262	2523.654548
374.901751	2524.811492
375.288177	2527.178314
375.674540	2523.851153
376.060841	2524.856863
376.447079	2524.776204
376.833254	2526.888448
377.219367	2524.793848
377.605417	2529.562780
377.991404	2523.188241
378.377329	2524.849301
378.763191	2524.645134
379.148991	2526.764939
379.534727	2528.065557
379.920402	2528.277286
380.306013	2529.633356
380.691563	2529.212420
381.077049	2527.977337
381.462474	2528.920033
381.847835	2528.158818
382.233134	2528.642769
382.618371	2529.986237
383.003545	2528.652852
383.388657	2529.222502
383.773706	2529.945908
384.158693	2530.795342
384.543618	2531.480939
384.928480	2532.164015
385.313280	2528.045393
385.698017	2529.910619
386.082692	2532.330373
386.467305	2532.428676
386.851856	2531.601927
387.236344	2535.072761
387.620770	2527.304343
388.005133	2527.387522
388.389435	2532.290044
388.773674	2526.480114
389.157851	2533.459592
389.541965	2529.961031
389.926018	2535.037473
390.310008	2534.470343
390.693936	2534.767771
391.077802	2534.729963
391.461606	2530.760054
391.845348	2531.778367
392.229027	2535.675179
392.612645	2534.767771
392.996200	2534.087215
393.379694	2537.237937
393.763125	2533.404139
394.146494	2538.052083
394.529801	2532.640404
394.913047	2537.270704
395.296230	2535.239119
395.679351	2535.312216
396.062410	2535.738193
396.445408	2535.458409
396.828343	2536.078471
397.211217	2539.342618
397.594028	2536.171732
397.976778	2536.708615
398.359466	2538.697351
398.742092	2536.282638
399.124656	2536.363296
399.507158	2536.995961
399.889598	2539.506456
400.271977	2536.728780
400.654294	2537.416897
401.036549	2534.808100
401.418742	2539.672814
401.800874	2537.454706
402.182944	2539.498894
402.564952	2537.311033
402.946898	2538.931764
403.328783	2536.038142
403.710606	2541.482588
404.092367	2540.232382
404.474067	2539.834131
404.855705	2540.058462
405.237282	2537.464788
405.618797	2539.617361
406.000250	2538.410005
406.381642	2542.566436
406.762972	2536.335570
407.144240	2536.501928
407.525447	2539.594676
407.906593	2536.191897
408.287677	2538.964532
408.668700	2540.870088
409.049661	2540.799512
409.430560	2542.505942
409.811399	2543.100798
410.192176	2540.986034
410.572891	2540.991076
410.953545	2541.893442
411.334138	2541.860675
411.714669	2543.965356
412.095139	2542.473175
412.475547	2539.929913
412.855894	2544.043494
413.236180	2542.952084
413.616405	2543.620037
413.996568	2544.648433
414.376670	2545.208001
414.756711	2543.660367
415.136691	2542.233720
415.516609	2544.877805
415.896466	2546.364946
416.276262	2546.158258
416.655997	2546.223793
417.035670	2543.524255
417.415283	2546.438042
417.794834	2545.538196
418.174324	2545.860830
418.553753	2544.275387
418.933121	2545.664225
419.312428	2545.230686
419.691674	2546.722868
420.070859	2548.111705
420.449983	2545.001313
420.829045	2543.846889
421.208047	2544.837476
421.586988	2545.979297
421.965867	2546.327137
422.344686	2545.797816
422.723444	2548.729247
423.102141	2549.573640
423.480777	2547.350491
423.859352	2546.163299
424.237866	2547.257230
424.616319	2547.665563
424.994712	2548.474668
425.373044	2550.649926
425.751314	2544.383772
426.129524	2543.418391
426.507673	2543.854451
426.885762	2541.835469
427.263789	2548.469627
427.641756	2549.271171
428.019662	2549.989535
428.397508	2547.786551
428.775292	2549.324103
429.153016	2550.135729
429.530679	2548.003321
429.908282	2547.819318
430.285824	2549.548434
430.663305	2548.900646
431.040726	2547.836963
431.418086	2549.941644
431.795385	2548.378887
432.172624	2550.743188
432.549802	2548.683876
432.926920	2550.226469
433.303977	2551.254865
433.680974	2549.437529
434.057910	2546.927034
434.434786	2551.474155
434.811601	2552.900802
435.188355	2551.083466
435.565050	2554.145967
435.941683	2550.851572
436.318257	2549.777807
436.694770	2551.890050
437.071222	2552.273178
437.447614	2547.864689
437.823946	2551.464073
438.200218	2552.147149
438.576429	2554.899619
438.952580	2550.259237
439.328670	2549.137580
439.704700	2550.188661
440.080670	2552.469783
440.456580	2550.453321
440.832429	2551.864844
441.208218	2551.527087
441.583947	2551.839639
441.959616	2551.058260
442.335224	2550.412992
442.710773	2553.246121
443.086261	2550.092879
443.461689	2551.758980
443.837057	2553.213353
444.212365	2553.457849
444.587612	2551.101110
444.962800	2548.144473
445.337927	2549.724875
445.712995	2549.021634
446.088002	2551.330482
446.462949	2551.721172
446.837837	2553.533466
447.212664	2551.312838
447.587431	2553.818292
447.962139	2553.699824
448.336786	2554.219063
448.711374	2553.858621
449.085901	2553.306614
449.460369	2554.423230
449.834776	2552.638662
450.209124	2554.382901
450.583412	2554.009855
450.957640	2552.003476
451.331808	2554.355174
451.705917	2554.786193
452.079965	2554.924825
452.453954	2554.264434
452.827883	2557.067315
453.201752	2554.526574
453.575562	2553.815771
453.949311	2555.252500
454.323001	2552.673950
454.696632	2551.201933
455.070202	2555.078580
455.443713	2555.746533
455.817164	2554.902140
456.190556	2554.735782
456.563888	2554.642520
456.937160	2554.755946
457.310373	2557.029507
457.683526	2553.593960
458.056619	2556.106975
458.429653	2553.422561
458.802628	2556.520350
459.175542	2555.673436
459.548398	2557.717624
459.921194	2557.740309
460.293930	2556.512788
460.666607	2557.160577
461.039224	2557.536143
461.411782	2558.516647
461.784280	2557.775597
462.156719	2555.638148
462.529099	2558.065464
462.901419	2557.793241
463.273680	2555.776780
463.645882	2553.775442
464.018024	2556.903478
464.390106	2551.529608
464.762130	2559.177038
465.134094	2557.694939
465.505999	2558.294836
465.877845	2559.983623
466.249631	2558.909857
466.621358	2561.075032
466.993026	2559.875238
467.364634	2564.495455
467.736184	2560.165104
468.107674	2558.007490
468.479105	2561.649724
468.850477	2558.302398
469.221790	2561.246432
469.593043	2562.053016
469.964238	2560.306257
470.335373	2560.545711
470.706449	2559.643345
471.077467	2557.914229
471.448425	2559.154353
471.819324	2559.908005
472.190164	2565.002091
472.560945	2561.437996
472.931667	2562.567214
473.302330	2561.566545
473.672934	2558.274672
474.043479	2561.012018
474.413965	2560.911195
474.784393	2559.910526
475.154761	2563.388922
475.525070	2565.942267
475.895321	2562.002605
476.265513	2561.140567
476.635645	2562.335321
477.005719	2562.365568
477.375734	2563.363716
477.745691	2562.267265
478.115588	2563.656103
478.485427	2563.709035
478.855207	2564.681978
479.224928	2563.676268
479.594591	2562.922615
479.964194	2563.938408
480.333739	2566.012843
480.703226	2569.022412
481.072653	2567.144582
481.442022	2564.956721
481.811333	2567.003429
482.180584	2563.535116
482.549777	2562.645352
482.918912	2560.359189
483.287988	2565.319684
483.657005	2566.829510
484.025964	2562.867163
484.394864	2568.356979
484.763706	2564.986968
485.132489	2567.535271
485.501213	2563.230126
485.869879	2566.998388
486.238487	2569.007288
486.607036	2568.208265
486.975527	2568.230950
487.343959	2568.336815
487.712333	2566.401012
488.080648	2565.591906
488.448905	2566.978224
488.817104	2569.259346
489.185244	2565.554098
489.553326	2568.974521
489.921350	2567.794891
490.289315	2568.503173
490.657222	2568.908986
491.025070	2567.550395
491.392861	2571.805128
491.760593	2571.250602
492.128267	2569.745817
492.495883	2569.060220
492.863440	2567.623491
493.230939	2568.210786
493.598380	2568.125086
493.965763	2567.268090
494.333088	2570.040725
494.700354	2571.646332
495.067563	2569.755899
495.434713	2570.580128
495.801805	2569.327401
496.168839	2570.224727
496.535815	2570.048286
496.902733	2570.101218
497.269593	2569.513924
497.636395	2567.399160
498.003139	2569.327401
498.369825	2569.435786
498.736453	2571.361507
499.103023	2571.847978
499.469535	2570.630540
499.835989	2569.781105
500.202385	2567.174829
500.568723	2567.144582
500.935003	2567.220199
501.301226	2563.015877
501.667390	2569.468554
502.033497	2568.314129
502.399546	2572.218503
502.765537	2568.606516
503.131470	2568.641804
503.497345	2570.489387
503.863163	2570.232288
504.228923	2569.486198
504.594625	2570.381002
504.960269	2568.808163
505.325856	2570.292782
505.691385	2570.426373
506.056856	2570.002916
506.422270	2570.370920
506.787625	2571.593400
507.152924	2571.043914
507.518164	2569.944943
507.883347	2572.130283
508.248472	2572.480643
508.613540	2572.699933
508.978550	2569.430745
509.343503	2572.299162
509.708398	2574.497105
510.073236	2574.960891
510.438016	2575.976683
510.802738	2574.315623
511.167403	2575.056673
511.532010	2574.855027
511.896561	2575.815366
512.261053	2576.939544
512.625488	2574.968453
512.989866	2576.521128
513.354186	2576.664801
513.718449	2578.197312
514.082655	2576.695048
514.446803	2577.569688
514.810894	2579.369380
515.174927	2581.083372
515.538904	2580.997672
515.902822	2581.622776
516.266684	2583.707293
516.630488	2581.093454
516.994235	2579.606314
517.357925	2581.408527
517.721558	2583.553537
518.085133	2584.145873
518.448651	2579.485326
518.812112	2583.208218
519.175516	2581.539597
519.538863	2581.723599
519.902152	2585.176789
520.265385	2587.515884
520.628560	2586.784917
520.991678	2587.926738
521.354739	2590.343972
521.717743	2587.904053
522.080690	2589.572675
522.443580	2591.730289
522.806413	2591.589137
523.169189	2592.763726
523.531908	2594.223140
523.894569	2590.280957
524.257174	2592.420927
524.619722	2594.409662
524.982213	2597.000815
525.344647	2596.405959
525.707025	2597.061309
526.069345	2598.016608
526.431608	2598.636670
526.793815	2600.033069
527.155964	2600.917792
527.518057	2597.439396
527.880093	2598.505600
528.242072	2604.474326
528.603995	2601.522730
528.965860	2604.464244
529.327669	2604.617999
529.689421	2607.945160
530.051117	2606.954574
530.412755	2605.691765
530.774337	2609.553288
531.135862	2604.754110
531.497331	2608.603031
531.858743	2609.979266
532.220098	2610.571602
532.581396	2612.225100
532.942638	2612.855244
533.303824	2613.533279
533.664953	2614.402878
534.026025	2612.913218
534.387040	2617.394803
534.747999	2616.094186
535.108902	2618.453446
535.469748	2615.146449
535.830537	2616.056377
536.191270	2619.723816
536.551947	2614.891870
536.912567	2619.353292
537.273131	2620.222891
537.633638	2618.622324
537.994089	2622.130967
538.354483	2620.941255
538.714821	2626.078191
539.075103	2623.988632
539.435328	2623.802110
539.795497	2626.131123
540.155609	2626.814199
540.515665	2623.756739
540.875665	2626.352934
541.235609	2627.028448
541.595496	2629.188583
541.955328	2626.428551
542.315102	2632.304016
542.674821	2627.194806
543.034483	2629.168418
543.394090	2628.145064
543.753640	2632.125055
544.113134	2635.232926
544.472571	2633.904582
544.831953	2634.249901
545.191278	2636.276445
545.550548	2636.316774
545.909761	2637.652680
546.268918	2638.582773
546.628019	2638.373565
546.987064	2637.413225
547.346053	2636.813328
547.704986	2638.103863
548.063863	2639.243164
548.422684	2639.759882
548.781449	2637.138482
549.140158	2639.283493
549.498811	2639.737197
549.857408	2641.252064
550.215949	2640.957156
550.574434	2641.824235
550.932864	2644.596869
551.291237	2643.520583
551.649555	2645.713485
552.007817	2645.501757
552.366022	2646.058804
552.724173	2641.098309
553.082267	2645.592497
553.440305	2646.910759
553.798288	2646.232724
554.156215	2647.505615
554.514086	2648.304638
554.871902	2644.309524
555.229661	2645.113588
555.587365	2644.516211
555.945014	2648.077786
556.302606	2650.414361
556.660143	2651.094917
557.017625	2653.628097
557.375050	2655.904177
557.732421	2654.182623
558.089735	2653.749084
558.446994	2653.481903
558.804197	2653.696152
559.161345	2655.631955
559.518437	2653.857469
559.875474	2656.655309
560.232455	2657.376194
560.589381	2658.742347
560.946251	2659.697646
561.303065	2658.422234
561.659825	2660.259734
562.016528	2660.612615
562.373177	2658.213026
562.729770	2658.586071
563.086307	2662.558501
563.442789	2664.464057
563.799216	2664.111176
564.155587	2663.092863
564.511904	2664.577483
564.868164	2665.716783
565.224370	2669.104439
565.580520	2667.715601
565.936615	2671.176353
566.292654	2666.505724
566.648638	2671.456137
567.004567	2669.364058
567.360441	2672.126611
567.716260	2670.228616
568.072023	2675.864626
568.427732	2676.177178
568.783385	2672.439162
569.138982	2676.623320
569.494525	2679.418640
569.850013	2680.005934
570.205445	2680.883095
570.560823	2677.876047
570.916145	2681.495595
571.271412	2682.493743
571.626625	2687.539938
571.981782	2686.083045
572.336884	2684.386697
572.691931	2687.512212
573.046923	2684.875689
573.401860	2686.393076
573.756743	2696.029242
574.111570	2693.738037
574.466342	2696.220805
574.821059	2698.375899
575.175722	2697.602082
575.530330	2701.496373
575.884882	2702.348328
576.239380	2705.337732
576.593823	2706.366127
576.948211	2708.044832
577.302544	2708.702702
577.656823	2708.642208
578.011047	2711.797971
578.365216	2712.937272
578.719330	2716.650081
579.073389	2715.606562
579.427394	2727.919581
579.781344	2722.923797
580.135239	2726.263562
580.489080	2728.335476
580.842866	2724.816751
581.196597	2738.233782
581.550273	2736.875191
581.903895	2743.118660
582.257463	2746.347519
582.610975	2747.552354
582.964434	2752.371697
583.317837	2757.180958
583.671186	2764.528440
584.024481	2769.390633
584.377721	2769.131013
584.730906	2770.522372
585.084037	2778.172323
585.437113	2782.059052
585.790135	2787.563992
586.143103	2791.851494
586.496016	2792.998356
586.848874	2801.679223
587.201679	2802.085036
587.554428	2806.296920
587.907124	2817.596667
588.259765	2821.047336
588.612352	2832.586537
588.964884	2831.603512
589.317362	2836.606858
589.669786	2845.985924
590.022155	2851.934486
590.374470	2862.341948
590.726731	2863.120806
591.078937	2868.184645
591.431090	2879.933054
591.783188	2884.094527
592.135232	2887.928324
592.487222	2901.854512
592.839157	2903.896179
593.191038	2914.868251
593.542866	2915.725247
593.894639	2922.026689
594.246358	2937.535799
594.598022	2944.255657
594.949633	2948.545679
595.301190	2950.047943
595.652692	2964.276599
596.004141	2976.657673
596.355535	2976.559371
596.706876	2983.498519
597.058162	2989.608398
597.409395	3002.667507
597.760573	3014.529342
598.111698	3019.015968
598.462768	3026.799510
598.813785	3038.694113
599.164748	3043.286604
599.515657	3055.566854
599.866511	3062.140519
600.217312	3077.526121
600.568060	3078.007551
600.918753	3104.408073
601.269392	3116.655557
601.619978	3116.287552
601.970510	3142.249495
602.320988	3150.068324
602.671412	3172.955163
603.021783	3180.176616
603.372100	3187.075435
603.722363	3206.120914
604.072572	3225.738564
604.422728	3234.242991
604.772830	3245.293200
605.122878	3250.036926
605.472872	3274.993158
605.822813	3291.840694
606.172701	3307.707726
606.522534	3334.478773
606.872314	3347.464786
607.222041	3357.027854
607.571714	3382.241185
607.921333	3400.611150
608.270899	3420.006989
608.620411	3456.071404
608.969870	3450.775672
609.319276	3478.186946
609.668627	3507.213910
610.017926	3539.227757
610.367171	3568.335380
610.716362	3601.483487
611.065500	3604.490535
611.414585	3637.847850
611.763616	3657.604132
612.112594	3682.051207
612.461518	3695.793393
612.810389	3734.849732
613.159207	3742.540013
613.507971	3762.059360
613.856682	3822.797702
614.205340	3841.626412
614.553945	3897.976430
614.902496	3886.475037
615.250994	3945.164150
615.599439	3965.177531
615.947830	3995.452180
616.296169	4023.256664
616.644454	4064.405083
616.992686	4076.776074
617.340864	4140.400477
617.688990	4158.931758
618.037063	4223.244279
618.385082	4239.791866
618.733048	4297.729847
619.080961	4316.679545
619.428821	4368.328686
619.776628	4406.827978
620.124382	4412.811828
620.472083	4458.719095
620.819731	4498.473635
621.167326	4491.884847
621.514868	4509.705325
621.862357	4523.792830
622.209793	4545.444586
622.557176	4553.273498
622.904506	4547.077919
623.251783	4565.720106
623.599007	4583.590997
623.946179	4598.469962
624.293297	4615.713229
624.640363	4616.139207
624.987376	4636.543277
625.334336	4634.685612
625.681243	4649.403260
626.028097	4675.650028
626.374899	4722.920927
626.721647	4711.495152
627.068343	4722.414291
627.414987	4747.519237
627.761577	4795.667298
628.108115	4838.849822
628.454600	4813.175225
628.801032	4854.951267
629.147412	4887.161720
629.493739	4926.016413
629.840014	4936.451601
630.186236	4986.343901
630.532405	4985.484384
630.878521	5058.757555
631.224585	5071.284823
631.570597	5097.788689
631.916556	5115.142861
632.262462	5146.329959
632.608316	5187.702709
632.954117	5205.871028
633.299866	5248.398201
633.645562	5268.966109
633.991206	5243.137757
634.336797	5230.670984
634.682336	5270.871665
635.027823	5269.308908
635.373257	5292.067197
635.718639	5284.429848
636.063968	5300.616993
636.409245	5284.444972
636.754470	5317.013346
637.099642	5319.163398
637.444762	5287.177277
637.789829	5343.333211
638.134845	5334.370039
638.479808	5371.155339
638.824719	5393.144852
639.169577	5381.681268
639.514383	5426.640798
639.859137	5417.786012
640.203839	5467.534638
640.548489	5444.015135
640.893086	5497.337940
641.237632	5469.616635
641.582125	5553.937495
641.926566	5544.218150
642.270955	5572.567079
642.615292	5597.634216
642.959576	5626.265450
643.303809	5681.226629
643.647990	5678.206978
643.992118	5751.749851
644.336195	5695.225914
