Dividing Wavelength (nm)	Counts (n)	Blue Motor Position (mm): 49.300000	Red Motor Position (mm): 0.000000	
326.493990	2282.654626
326.888308	2282.654626
327.282561	2282.654626
327.676750	2245.488719
328.070874	2241.206259
328.464933	2243.799933
328.858929	2244.546024
329.252859	2250.781931
329.646726	2262.079157
330.040528	2271.231372
330.434265	2285.134874
330.827938	2303.827472
331.221547	2320.937148
331.615091	2339.082782
332.008571	2357.377129
332.401986	2378.980994
332.795338	2396.337687
333.188625	2417.271078
333.581847	2432.772626
333.975006	2458.674074
334.368100	2475.277115
334.761129	2490.851759
335.154095	2511.855727
335.546996	2538.160468
335.939833	2575.525500
336.332606	2591.054774
336.725315	2604.363421
337.117960	2616.968826
337.510540	2627.409055
337.903056	2637.866929
338.295508	2646.535193
338.687896	2654.719506
339.080220	2660.224446
339.472480	2669.636281
339.864676	2672.708864
340.256807	2679.068279
340.648875	2681.271264
341.040879	2684.656398
341.432818	2687.663447
341.824694	2689.566482
342.216506	2692.563448
342.608253	2692.306349
342.999937	2692.286185
343.391557	2693.614529
343.783113	2692.523119
344.174605	2693.422965
344.566033	2691.141843
344.957397	2688.142356
345.348697	2687.925587
345.739934	2686.244362
346.131106	2688.081862
346.522215	2682.014834
346.913260	2679.973167
347.304241	2679.769000
347.695159	2680.366377
348.086012	2678.730522
348.476802	2678.004596
348.867528	2673.132321
349.258191	2668.761640
349.648789	2667.813903
350.039324	2666.170487
350.429796	2669.086795
350.820203	2668.053358
351.210548	2664.824499
351.600828	2663.748213
351.991045	2662.578665
352.381198	2664.355672
352.771288	2663.435661
353.161314	2662.603871
353.551276	2662.823161
353.941175	2661.237718
354.331010	2662.452636
354.720782	2659.168325
355.110490	2665.285765
355.500135	2661.154539
355.889717	2664.385919
356.279235	2662.500527
356.668689	2663.607061
357.058080	2662.661844
357.447408	2661.572955
357.836672	2662.044303
358.225873	2662.392142
358.615010	2662.253511
359.004084	2665.719304
359.393095	2667.161074
359.782043	2667.652587
360.170927	2667.183759
360.559748	2665.404232
360.948505	2668.217196
361.337199	2669.109480
361.725830	2669.532937
362.114398	2670.193328
362.502903	2671.725839
362.891344	2672.361024
363.279722	2667.773574
363.668037	2669.986641
364.056289	2669.490087
364.444478	2674.982424
364.832603	2674.934533
365.220665	2677.621468
365.608665	2675.471416
365.996601	2675.219358
366.384474	2677.906293
366.772284	2675.433607
367.160031	2677.361849
367.547715	2680.336130
367.935336	2679.489216
368.322893	2676.676252
368.710388	2678.201201
369.097820	2678.891839
369.485189	2678.556602
369.872495	2684.056501
370.259738	2683.628003
370.646918	2691.819878
371.034035	2695.585620
371.421090	2701.529140
371.808081	2706.645912
372.195010	2714.177395
372.581875	2721.953375
372.968678	2732.360837
373.355418	2742.395254
373.742096	2757.249014
374.128710	2770.411467
374.515262	2785.285391
374.901751	2802.722742
375.288177	2818.652788
375.674540	2840.009637
376.060841	2861.182483
376.447079	2885.488406
376.833254	2908.826428
377.219367	2927.914757
377.605417	2966.711477
377.991404	2985.885505
378.377329	3022.839684
378.763191	3043.513456
379.148991	3086.885023
379.534727	3127.279788
379.920402	3163.182886
380.306013	3184.214580
380.691563	3249.336205
381.077049	3268.303547
381.462474	3309.356183
381.847835	3368.289792
382.233134	3407.010895
382.618371	3433.867642
383.003545	3503.128055
383.388657	3524.434491
383.773706	3585.860951
384.158693	3616.032257
384.543618	3647.398316
384.928480	3704.360834
385.313280	3761.961058
385.698017	3781.271197
386.082692	3870.502141
386.467305	3874.651011
386.851856	3906.329622
387.236344	3988.157631
387.620770	4016.574615
388.005133	4066.958427
388.389435	4112.288483
388.773674	4119.005820
389.157851	4198.540104
389.541965	4265.559724
389.926018	4231.297522
390.310008	4330.973736
390.693936	4385.456007
391.077802	4415.808794
391.461606	4417.691665
391.845348	4481.943691
392.229027	4544.285120
392.612645	4538.563411
392.996200	4642.015449
393.379694	4702.698339
393.763125	4811.355369
394.146494	4840.904092
394.529801	4890.201535
394.913047	4975.719669
395.296230	4924.700672
395.679351	5029.508781
396.062410	5087.718984
396.445408	5058.397113
396.828343	5117.907934
397.211217	5174.845246
397.594028	5052.372934
397.976778	5169.375594
398.359466	5223.079006
398.742092	5244.728241
399.124656	5164.261344
399.507158	5281.687461
399.889598	5349.904355
400.271977	5463.405933
400.654294	5466.110512
401.036549	5514.513151
401.418742	5434.837715
401.800874	5637.950844
402.182944	5700.582140
402.564952	5806.143901
402.946898	5868.278643
403.328783	5695.235996
403.710606	5723.506787
404.092367	6044.444285
404.474067	6067.316000
404.855705	5958.996727
405.237282	5897.507253
405.618797	6165.074055
406.000250	6133.476103
406.381642	6347.510892
406.762972	6367.678028
407.144240	6418.966727
407.525447	6404.193626
407.906593	6413.078660
408.287677	6583.663744
408.668700	6501.114850
409.049661	6608.637620
409.430560	6634.264326
409.811399	6500.451938
410.192176	6758.405260
410.572891	6785.776205
410.953545	6970.539534
411.334138	6696.308327
411.714669	6873.918259
412.095139	6673.910480
412.475547	6914.499548
412.855894	6991.835889
413.236180	7174.093765
413.616405	6822.558984
413.996568	7043.404372
414.376670	7110.229907
414.756711	6996.335118
415.136691	7099.421673
415.516609	7302.116387
415.896466	7278.019672
416.276262	7492.147723
416.655997	7481.422668
417.035670	7647.117833
417.415283	7992.363775
417.794834	8071.207421
418.174324	7925.190400
418.553753	7851.768515
418.933121	8140.974470
419.312428	8236.665652
419.691674	8012.540993
420.070859	8489.769384
420.449983	8177.313627
420.829045	8550.532932
421.208047	8309.717012
421.586988	8626.936659
421.965867	8652.817943
422.344686	8738.010922
422.723444	8833.374430
423.102141	8147.711972
423.480777	8920.357019
423.859352	8448.600801
424.237866	9059.069408
424.616319	8924.339530
424.994712	9366.446202
425.373044	8893.149912
425.751314	9391.596519
426.129524	9269.865256
426.507673	9339.622223
426.885762	9497.924536
427.263789	9424.157331
427.641756	9363.512251
428.019662	9446.638357
428.397508	9717.149193
428.775292	9373.629846
429.153016	9764.588971
429.530679	9593.469524
429.908282	9601.797511
430.285824	9328.055295
430.663305	10013.619451
431.040726	9470.520823
431.418086	9442.280279
431.795385	9783.586559
432.172624	9892.631758
432.549802	9788.204256
432.926920	9859.332417
433.303977	9721.776972
433.680974	9932.897975
434.057910	10041.396208
434.434786	10118.142734
434.811601	9918.573536
435.188355	10486.744342
435.565050	10252.948229
435.941683	10152.006685
436.318257	10628.544438
436.694770	10824.002575
437.071222	10864.311642
437.447614	10677.647797
437.823946	10624.337595
438.200218	10687.735146
438.576429	10550.696420
438.952580	10806.368619
439.328670	10803.535491
439.704700	10617.574887
440.080670	10607.172466
440.456580	11113.989909
440.832429	10912.132027
441.208218	10511.498928
441.583947	10787.212235
441.959616	10994.486837
442.335224	10807.550770
442.710773	10901.485110
443.086261	11144.935032
443.461689	10401.813502
443.837057	11105.394742
444.212365	11323.986734
444.587612	10949.479415
444.962800	11160.628144
445.337927	10890.041691
445.712995	10610.038362
446.088002	11630.738425
446.462949	11333.380925
446.837837	11290.747887
447.212664	11196.821108
447.587431	11816.520068
447.962139	12592.270466
448.336786	14900.960131
448.711374	15361.968609
449.085901	13158.487825
449.460369	12816.939569
449.834776	12267.547062
450.209124	13218.296074
450.583412	13650.128874
450.957640	14566.035952
451.331808	13570.508890
451.705917	12675.028568
452.079965	11890.060420
452.453954	12811.638796
452.827883	12475.610604
453.201752	12759.510745
453.575562	12333.568533
453.949311	12746.517171
454.323001	12741.947365
454.696632	12974.946975
455.070202	13241.601328
455.443713	13416.073142
455.817164	13936.547071
456.190556	13887.151325
456.563888	14248.518877
456.937160	14376.135687
457.310373	13753.588475
457.683526	13872.325292
458.056619	13375.970763
458.429653	13616.484213
458.802628	12943.301132
459.175542	13374.408006
459.548398	14324.541998
459.921194	14692.488255
460.293930	14784.166679
460.666607	15605.375682
461.039224	16668.257600
461.411782	17411.119510
461.784280	17142.173952
462.156719	17285.889687
462.529099	16925.331240
462.901419	15912.928916
463.273680	15651.313196
463.645882	15576.880559
464.018024	15293.802127
464.390106	15529.017324
464.762130	16230.614870
465.134094	17048.264818
465.505999	19135.521800
465.877845	22414.716760
466.249631	25191.124679
466.621358	24781.661999
466.993026	23372.513305
467.364634	22769.833281
467.736184	21293.841408
468.107674	20516.369456
468.479105	20648.571195
468.850477	20078.530121
469.221790	19715.080573
469.593043	18999.889556
469.964238	18428.706661
470.335373	18066.512360
470.706449	18594.127083
471.077467	18199.195529
471.448425	20087.866338
471.819324	24257.792853
472.190164	26011.741346
472.560945	22287.225979
472.931667	20020.657675
473.302330	19432.675134
473.672934	19115.513461
474.043479	19285.047464
474.413965	19109.728737
474.784393	18684.988840
475.154761	19491.548249
475.525070	19363.439927
475.895321	19101.983004
476.265513	19725.170442
476.635645	20319.464507
477.005719	20055.907943
477.375734	20245.689741
477.745691	20744.305227
478.115588	21287.865120
478.485427	21860.076411
478.855207	22976.026555
479.224928	24765.840338
479.594591	27002.045772
479.964194	26857.195778
480.333739	27115.542310
480.703226	26705.462088
481.072653	26430.628463
481.442022	27086.888391
481.811333	28018.677624
482.180584	27861.615435
482.549777	26931.507427
482.918912	26605.954753
483.287988	26758.237928
483.657005	26356.599119
484.025964	26163.457392
484.394864	26016.850555
484.763706	25652.148280
485.132489	25140.171216
485.501213	25316.871220
485.869879	25229.782767
486.238487	25084.741209
486.607036	25206.815270
486.975527	24979.121474
487.343959	25255.865697
487.712333	25156.363402
488.080648	24813.345651
488.448905	25334.812687
488.817104	25101.258550
489.185244	25818.768497
489.553326	25752.431954
489.921350	26838.316657
490.289315	29228.483971
490.657222	30885.392773
491.025070	31419.233322
491.392861	31146.859779
491.760593	30271.478537
492.128267	29344.112917
492.495883	28273.583568
492.863440	27411.868895
493.230939	26556.543883
493.598380	26383.221452
493.965763	26011.514494
494.333088	25490.556614
494.700354	25486.311963
495.067563	25312.611445
495.434713	25061.614916
495.801805	25260.722849
496.168839	25007.412430
496.535815	24903.675566
496.902733	25118.597598
497.269593	24836.035884
497.636395	24980.752288
498.003139	24891.052517
498.369825	24632.670697
498.736453	24876.523911
499.103023	24723.981117
499.469535	24712.598191
499.835989	24949.555107
500.202385	24972.227697
500.568723	24525.894017
500.935003	24682.920918
501.301226	24410.287757
501.667390	25246.098462
502.033497	25427.169146
502.399546	25165.152654
502.765537	24680.770866
503.131470	25054.925305
503.497345	25221.023762
503.863163	24469.773372
504.228923	25000.768189
504.594625	25267.205773
504.960269	24841.697100
505.325856	25312.054398
505.691385	24700.254926
506.056856	25290.397601
506.422270	25310.030375
506.787625	24807.641585
507.152924	25245.420426
507.518164	25294.569156
507.883347	25093.774957
508.248472	24778.743171
508.613540	25543.874378
508.978550	25347.624779
509.343503	25380.130139
509.708398	25560.979013
510.073236	25726.376750
510.438016	25956.051719
510.802738	25593.381029
511.167403	25862.092173
511.532010	25627.678520
511.896561	26346.894898
512.261053	26327.995612
512.625488	26162.605437
512.989866	26039.180346
513.354186	25867.919747
513.718449	26007.027867
514.082655	26374.855658
514.446803	26080.220380
514.810894	26596.880676
515.174927	26080.616110
515.538904	26114.139783
515.902822	26614.219724
516.266684	26360.029624
516.630488	26268.303309
516.994235	26199.952825
517.357925	26562.094194
517.721558	26697.139143
518.085133	26846.992483
518.448651	26717.137401
518.812112	26507.140576
519.175516	26729.531077
519.538863	26868.314043
519.902152	26674.738776
520.265385	26922.529132
520.628560	26736.717242
520.991678	26694.011107
521.354739	26740.961894
521.717743	26868.087191
522.080690	26635.329556
522.443580	26965.220143
522.806413	26897.199854
523.169189	27045.147637
523.531908	27077.910096
523.894569	26714.916772
524.257174	26820.745715
524.619722	26930.831912
524.982213	26662.450964
525.344647	26663.136561
525.707025	26843.070465
526.069345	26785.518132
526.431608	26766.800328
526.793815	26924.719513
527.155964	26436.171212
527.518057	26593.556035
527.880093	26521.404520
528.242072	26761.910409
528.603995	26472.734701
528.965860	26256.658244
529.327669	26287.111854
529.689421	26284.442563
530.051117	26133.515458
530.412755	26310.500288
530.774337	26068.305613
531.135862	25982.190102
531.497331	26157.528995
531.858743	25769.980210
532.220098	26190.866145
532.581396	25899.888224
532.942638	25786.981502
533.303824	25915.606542
533.664953	25903.394347
534.026025	25567.933285
534.387040	25801.711753
534.747999	25835.114439
535.108902	26008.996438
535.469748	25522.666244
535.830537	25665.172101
536.191270	25808.671066
536.551947	25619.733661
536.912567	25236.858027
537.273131	25711.253289
537.633638	25358.143147
537.994089	25589.045637
538.354483	25061.549381
538.714821	25577.516518
539.075103	25634.030373
539.435328	25381.430757
539.795497	25004.087789
540.155609	25319.419524
540.515665	25639.961291
540.875665	24853.626991
541.235609	25220.910336
541.595496	25129.388188
541.955328	25504.472720
542.315102	25425.513127
542.674821	24922.070736
543.034483	24809.597553
543.394090	24981.279088
543.753640	24792.182887
544.113134	25419.388125
544.472571	25002.187274
544.831953	25319.797610
545.191278	24984.823019
545.550548	24855.913154
545.909761	25050.428596
546.268918	25293.767612
546.628019	25280.668174
546.987064	24952.973009
547.346053	24665.544061
547.704986	24770.962150
548.063863	24935.374341
548.422684	24965.291069
548.781449	24453.248470
549.140158	24865.204000
549.498811	24444.232366
549.857408	24222.161977
550.215949	24589.762916
550.574434	24296.939933
550.932864	24485.894982
551.291237	24687.057185
551.649555	24511.372974
552.007817	24589.304171
552.366022	24431.132928
552.724173	24430.487660
553.082267	24424.695374
553.440305	24905.750001
553.798288	24124.754282
554.156215	24612.367450
554.514086	24761.973773
554.871902	24161.514376
555.229661	24424.879377
555.587365	24265.024388
555.945014	24191.272307
556.302606	24375.158476
556.660143	24377.779876
557.017625	24607.109526
557.375050	24131.060766
557.732421	24506.737633
558.089735	24334.352856
558.446994	24377.326172
558.804197	24435.274236
559.161345	24301.179543
559.518437	24124.590445
559.875474	24268.159986
560.232455	24450.206133
560.589381	24264.994141
560.946251	24282.194558
561.303065	24572.154166
561.659825	24665.894421
562.016528	24271.230048
562.373177	23990.712522
562.729770	24370.061870
563.086307	24198.881929
563.442789	24371.314596
563.799216	24227.130035
564.155587	24218.292892
564.511904	24196.953688
564.868164	24155.931298
565.224370	24114.712304
565.580520	24069.447783
565.936615	24182.566235
566.292654	23886.257294
566.648638	24098.162196
567.004567	23942.831643
567.360441	23869.997052
567.716260	23598.205763
568.072023	23907.359564
568.427732	23690.819321
568.783385	23452.828968
569.138982	23711.770356
569.494525	23736.724068
569.850013	23508.861393
570.205445	23599.970167
570.560823	23435.787348
570.916145	23191.850954
571.271412	23391.957036
571.626625	23148.665910
571.981782	23248.437906
572.336884	23054.711405
572.691931	23182.071116
573.046923	22921.491353
573.401860	22812.284837
573.756743	22844.631401
574.111570	22730.764338
574.466342	22643.617912
574.821059	22720.417370
575.175722	22442.312036
575.530330	22392.467627
575.884882	22387.600393
576.239380	22318.150937
576.593823	22207.416952
576.948211	22185.303931
577.302544	22032.892206
577.656823	21886.577757
578.011047	22009.382785
578.365216	21872.351620
578.719330	21744.490315
579.073389	21613.639605
579.427394	21787.022530
579.781344	21526.150380
580.135239	21416.129718
580.489080	21359.658712
580.842866	21146.700209
581.196597	21365.808920
581.550273	21315.465437
581.903895	21185.655726
582.257463	21505.915188
582.610975	21053.164120
582.964434	21381.053369
583.317837	21024.918535
583.671186	21107.452306
584.024481	21114.240220
584.377721	20864.388032
584.730906	20975.863067
585.084037	20932.625091
585.437113	20880.176926
585.790135	21090.130902
586.143103	20536.355110
586.496016	20571.076058
586.848874	20796.899585
587.201679	20703.310564
587.554428	20420.607698
587.907124	20744.416132
588.259765	20489.028758
588.612352	20566.740665
588.964884	20132.457864
589.317362	20299.352824
589.669786	20356.746361
590.022155	20350.772593
590.374470	20611.866554
590.726731	20346.215390
591.078937	20163.657565
591.431090	20235.756148
591.783188	20007.674183
592.135232	19961.613160
592.487222	20065.400436
592.839157	20056.994312
593.191038	19937.980231
593.542866	19831.707667
593.894639	19526.732983
594.246358	19761.930536
594.598022	19632.967738
594.949633	19398.140710
595.301190	19394.236336
595.652692	19563.089784
596.004141	19756.596995
596.355535	19100.483260
596.706876	19123.463360
597.058162	19016.802627
597.409395	19261.664072
597.760573	19296.450554
598.111698	19072.830011
598.462768	19022.436117
598.813785	19007.975567
599.164748	18782.351165
599.515657	18856.751034
599.866511	18655.404828
600.217312	18997.361417
600.568060	18502.942692
600.918753	18811.831832
601.269392	18718.172235
601.619978	18519.316360
601.970510	18700.439976
602.320988	18651.969282
602.671412	18845.620166
603.021783	18790.429614
603.372100	18481.618611
603.722363	18648.387542
604.072572	18582.892872
604.422728	18742.684846
604.772830	18482.957038
605.122878	18444.689639
605.472872	18427.363193
605.822813	18414.760308
606.172701	18408.312673
606.522534	18568.959122
606.872314	18600.771324
607.222041	18449.783725
607.571714	18661.819697
607.921333	18485.462491
608.270899	18560.888235
608.620411	18706.920380
608.969870	18520.145630
609.319276	18499.144183
609.668627	18533.739101
610.017926	18660.488832
610.367171	18775.762377
610.716362	18840.657150
611.065500	18641.697931
611.414585	18788.272000
611.763616	18777.322614
612.112594	18703.880564
612.461518	18683.166463
612.810389	18871.811481
613.159207	18736.065811
613.507971	18649.925094
613.856682	18881.112410
614.205340	18802.309093
614.553945	18956.313822
614.902496	18711.207881
615.250994	18902.131501
615.599439	18869.812663
615.947830	18856.226754
616.296169	18934.959494
616.644454	18887.187000
616.992686	18861.386375
617.340864	19093.649976
617.688990	18822.950097
618.037063	19008.945989
618.385082	18866.319144
618.733048	19121.885479
619.080961	19025.211272
619.428821	19055.130520
619.776628	18920.428368
620.124382	18857.169449
620.472083	18918.641279
620.819731	18915.505682
621.167326	18605.159648
621.514868	18649.667995
621.862357	18438.673022
622.209793	18438.269729
622.557176	18258.799611
622.904506	18088.161595
623.251783	18047.517292
623.599007	17780.668854
623.946179	17729.057521
624.293297	17655.252508
624.640363	17374.682050
624.987376	17400.268426
625.334336	17204.462449
625.681243	17055.125828
626.028097	17076.863283
626.374899	16986.162843
626.721647	16850.538161
627.068343	16697.607197
627.414987	16626.826877
627.761577	16578.867860
628.108115	16612.678878
628.454600	16341.134606
628.801032	16441.801407
629.147412	16384.302006
629.493739	16384.365021
629.840014	16203.168307
630.186236	16303.159594
630.532405	16059.326544
630.878521	16243.835296
631.224585	16163.479303
631.570597	15988.339536
631.916556	16017.603434
632.262462	15987.049001
632.608316	15903.126392
632.954117	15846.993144
633.299866	15833.838253
633.645562	15752.305152
633.991206	15530.270051
634.336797	15400.883796
634.682336	15364.771491
635.027823	15217.103492
635.373257	15090.308390
635.718639	15006.179094
636.063968	14937.266521
