Dividing Wavelength (nm)	Counts (n)	Blue Motor Position (mm): 40.700000	Red Motor Position (mm): 0.000000	
326.493990	2251.528022
326.888308	2251.528022
327.282561	2251.528022
327.676750	2211.229038
328.070874	2207.788450
328.464933	2205.887935
328.858929	2211.297093
329.252859	2217.958978
329.646726	2224.535163
330.040528	2237.470764
330.434265	2249.735892
330.827938	2269.804725
331.221547	2285.001283
331.615091	2302.804118
332.008571	2321.055616
332.401986	2340.169150
332.795338	2357.326718
333.188625	2377.057794
333.581847	2399.725342
333.975006	2415.970460
334.368100	2438.819490
334.761129	2453.353137
335.154095	2471.110601
335.546996	2497.559015
335.939833	2535.649973
336.332606	2554.408107
336.725315	2566.849674
337.117960	2577.713361
337.510540	2587.899012
337.903056	2602.931733
338.295508	2610.743001
338.687896	2618.728188
339.080220	2626.857049
339.472480	2634.088584
339.864676	2637.035139
340.256807	2639.633853
340.648875	2647.273722
341.040879	2647.792961
341.432818	2651.442756
341.824694	2653.698673
342.216506	2653.572644
342.608253	2655.710093
342.999937	2656.509116
343.391557	2656.708242
343.783113	2656.557007
344.174605	2657.444250
344.566033	2655.810916
344.957397	2653.892757
345.348697	2653.255051
345.739934	2651.273878
346.131106	2648.589463
346.522215	2646.981335
346.913260	2646.232724
347.304241	2644.133083
347.695159	2641.725932
348.086012	2641.438587
348.476802	2639.444810
348.867528	2635.048924
349.258191	2631.661269
349.648789	2629.254118
350.039324	2628.621453
350.429796	2631.308388
350.820203	2631.620939
351.210548	2627.093983
351.600828	2629.397791
351.991045	2627.772018
352.381198	2626.728500
352.771288	2624.870834
353.161314	2624.943931
353.551276	2622.682974
353.941175	2621.097531
354.331010	2624.344034
354.720782	2622.700618
355.110490	2623.877727
355.500135	2622.680453
355.889717	2624.480145
356.279235	2624.180196
356.668689	2623.255145
357.058080	2623.925618
357.447408	2626.045423
357.836672	2623.595422
358.225873	2623.968468
358.615010	2625.811010
359.004084	2625.735392
359.393095	2627.320835
359.782043	2628.013994
360.170927	2628.644138
360.559748	2627.204889
360.948505	2627.467029
361.337199	2633.191259
361.725830	2632.183028
362.114398	2631.520116
362.502903	2631.983902
362.891344	2631.084057
363.279722	2632.543471
363.668037	2631.535240
364.056289	2634.431383
364.444478	2636.024387
364.832603	2638.625623
365.220665	2635.394243
365.608665	2637.390540
365.996601	2636.417597
366.384474	2638.875160
366.772284	2638.537402
367.160031	2636.425159
367.547715	2639.863226
367.935336	2637.642598
368.322893	2634.784263
368.710388	2636.926754
369.097820	2639.901035
369.485189	2637.125879
369.872495	2642.472023
370.259738	2643.502939
370.646918	2643.339102
371.034035	2645.277425
371.421090	2643.979328
371.808081	2644.881695
372.195010	2643.540748
372.581875	2644.982518
372.968678	2644.773310
373.355418	2645.988228
373.742096	2646.641057
374.128710	2646.993938
374.515262	2646.888074
374.901751	2652.309835
375.288177	2649.053249
375.674540	2647.727426
376.060841	2650.190030
376.447079	2649.617859
376.833254	2652.506440
377.219367	2651.195740
377.605417	2651.999804
377.991404	2653.892757
378.377329	2654.258241
378.763191	2654.522901
379.148991	2653.847387
379.534727	2656.463746
379.920402	2654.689259
380.306013	2658.744868
380.691563	2661.046154
381.077049	2658.669250
381.462474	2656.831750
381.847835	2658.535660
382.233134	2659.959786
382.618371	2661.383912
383.003545	2660.456339
383.388657	2662.810558
383.773706	2662.674447
384.158693	2663.072698
384.543618	2665.038748
384.928480	2667.728204
385.313280	2667.995385
385.698017	2670.528565
386.082692	2678.317147
386.467305	2683.779238
386.851856	2691.449353
387.236344	2701.531661
387.620770	2712.821325
388.005133	2727.513768
388.389435	2747.993455
388.773674	2765.750920
389.157851	2802.095118
389.541965	2836.805983
389.926018	2863.861856
390.310008	2916.105854
390.693936	2963.986733
391.077802	3015.033457
391.461606	3058.447874
391.845348	3118.666977
392.229027	3181.628468
392.612645	3233.305336
392.996200	3315.087975
393.379694	3389.553379
393.763125	3485.058039
394.146494	3552.793502
394.529801	3638.026811
394.913047	3736.876276
395.296230	3773.016308
395.679351	3884.556878
396.062410	3980.434583
396.445408	4029.076677
396.828343	4126.333137
397.211217	4224.620514
397.594028	4206.910940
397.976778	4343.259028
398.359466	4435.726393
398.742092	4507.482177
399.124656	4496.036237
399.507158	4634.738544
399.889598	4740.242332
400.271977	4885.803129
400.654294	4923.095064
401.036549	5001.217825
401.418742	4978.368796
401.800874	5191.165982
402.182944	5279.683602
402.564952	5411.814765
402.946898	5493.738556
403.328783	5388.451538
403.710606	5423.369090
404.092367	5751.777577
404.474067	5790.455830
404.855705	5727.295214
405.237282	5682.023132
405.618797	5940.099962
406.000250	5938.910249
406.381642	6137.277133
406.762972	6178.622156
407.144240	6251.945739
407.525447	6239.259675
407.906593	6279.641838
408.287677	6436.792247
408.668700	6355.710329
409.049661	6482.654144
409.430560	6514.133630
409.811399	6373.601384
410.192176	6654.300392
410.572891	6658.857595
410.953545	6862.076589
411.334138	6596.488439
411.714669	6768.732063
412.095139	6568.184881
412.475547	6815.143446
412.855894	6874.578650
413.236180	7050.532563
413.616405	6741.756849
413.996568	6958.907072
414.376670	6987.434961
414.756711	6892.031125
415.136691	6984.881617
415.516609	7186.547935
415.896466	7180.039806
416.276262	7373.115998
416.655997	7361.755758
417.035670	7552.056795
417.415283	7892.299392
417.794834	7939.681197
418.174324	7801.523334
418.553753	7711.639561
418.933121	8035.309364
419.312428	8133.637070
419.691674	7909.711537
420.070859	8387.711224
420.449983	8066.599806
420.829045	8429.565404
421.208047	8204.132566
421.586988	8509.412240
421.965867	8522.052933
422.344686	8633.389336
422.723444	8664.747834
423.102141	8040.617699
423.480777	8793.624932
423.859352	8314.130543
424.237866	8934.126931
424.616319	8807.067168
424.994712	9211.561791
425.373044	8778.070452
425.751314	9243.893232
426.129524	9114.428839
426.507673	9224.459583
426.885762	9378.486998
427.263789	9285.626424
427.641756	9215.992966
428.019662	9315.160023
428.397508	9556.767404
428.775292	9245.904652
429.153016	9621.183268
429.530679	9460.239390
429.908282	9491.139143
430.285824	9211.546668
430.663305	9894.713755
431.040726	9342.571298
431.418086	9331.160646
431.795385	9655.344647
432.172624	9743.501825
432.549802	9653.991097
432.926920	9740.182225
433.303977	9616.575653
433.680974	9819.217435
434.057910	9906.976362
434.434786	9975.909099
434.811601	9804.857708
435.188355	10379.771057
435.565050	10110.820458
435.941683	10039.198265
436.318257	10525.097440
436.694770	10664.855869
437.071222	10723.837369
437.447614	10570.029245
437.823946	10470.264810
438.200218	10594.274674
438.576429	10427.210836
438.952580	10664.906281
439.328670	10710.344721
439.704700	10491.722481
440.080670	10488.291976
440.456580	11036.872858
440.832429	10798.852259
441.208218	10400.656558
441.583947	10713.656759
441.959616	10874.230112
442.335224	10685.746411
442.710773	10816.869343
443.086261	11021.532627
443.461689	10303.584099
443.837057	10967.993053
444.212365	11227.327651
444.587612	10864.750222
444.962800	11094.342012
445.337927	10851.839827
445.712995	10476.601540
446.088002	11537.439271
446.462949	11205.567510
446.837837	11179.855105
447.212664	11138.951182
447.587431	11687.736231
447.962139	12420.359558
448.336786	14696.649727
448.711374	15222.578185
449.085901	13055.673492
449.460369	12681.592150
449.834776	12133.056639
450.209124	13032.968135
450.583412	13451.348616
450.957640	14387.558941
451.331808	13491.251870
451.705917	12505.053463
452.079965	11792.362859
452.453954	12701.701313
452.827883	12336.741939
453.201752	12627.896300
453.575562	12155.998930
453.949311	12567.097464
454.323001	12546.963096
454.696632	12775.397941
455.070202	13061.072568
455.443713	13283.042133
455.817164	13756.469494
456.190556	13735.079878
456.563888	14098.852060
456.937160	14262.064457
457.310373	13602.144651
457.683526	13695.113611
458.056619	13239.385741
458.429653	13418.331579
458.802628	12813.199033
459.175542	13204.866440
459.548398	14160.432275
459.921194	14500.626981
460.293930	14574.943671
460.666607	15434.178097
461.039224	16489.783109
461.411782	17201.110082
461.784280	17016.639139
462.156719	17107.755474
462.529099	16778.212727
462.901419	15720.810543
463.273680	15508.255332
463.645882	15381.886208
464.018024	15111.738335
464.390106	15344.944633
464.762130	16063.989612
465.134094	16838.963672
465.505999	18862.475264
465.877845	22124.648768
466.249631	24949.718945
466.621358	24585.825775
466.993026	23168.775073
467.364634	22591.056321
467.736184	21113.852051
468.107674	20316.376801
468.479105	20457.680343
468.850477	19917.969371
469.221790	19507.019551
469.593043	18826.166353
469.964238	18253.022449
470.335373	17905.515550
470.706449	18372.470069
471.077467	17936.813553
471.448425	19806.267484
471.819324	23883.053641
472.190164	25811.781458
472.560945	22184.124301
472.931667	19864.233192
473.302330	19229.592252
473.672934	18817.956834
474.043479	19093.448330
474.413965	18915.278830
474.784393	18521.796608
475.154761	19247.309387
475.525070	19193.585810
475.895321	18900.218383
476.265513	19483.920984
476.635645	20083.896429
477.005719	19854.831440
477.375734	20024.057933
477.745691	20522.517143
478.115588	21054.056405
478.485427	21595.113365
478.855207	22671.684536
479.224928	24448.323263
479.594591	26678.028129
479.964194	26652.860169
480.333739	26871.739507
480.703226	26439.626923
481.072653	26145.891491
481.442022	26745.382986
481.811333	27661.569848
482.180584	27557.444815
482.549777	26603.784536
482.918912	26261.732165
483.287988	26391.206640
483.657005	26036.334615
484.025964	25801.404243
484.394864	25697.755599
484.763706	25367.426432
485.132489	24813.426309
485.501213	24989.138247
485.869879	24901.112139
486.238487	24729.228958
486.607036	24875.966864
486.975527	24600.026705
487.343959	24911.469190
487.712333	24832.975904
488.080648	24496.378062
488.448905	24996.377344
488.817104	24749.443985
489.185244	25443.711692
489.553326	25388.727827
489.921350	26423.775014
490.289315	28747.265507
490.657222	30489.092546
491.025070	30984.655613
491.392861	30748.495199
491.760593	29889.870753
492.128267	28982.788215
492.495883	27931.077494
492.863440	27050.173668
493.230939	26185.509919
493.598380	26032.142896
493.965763	25640.848534
494.333088	25162.173332
494.700354	25120.263700
495.067563	24978.798841
495.434713	24720.938780
495.801805	24903.032819
496.168839	24689.018194
496.535815	24537.428177
496.902733	24756.204172
497.269593	24447.231853
497.636395	24621.708708
498.003139	24567.869185
498.369825	24300.619975
498.736453	24513.500341
499.103023	24388.610795
499.469535	24379.602253
499.835989	24609.304949
500.202385	24632.534586
500.568723	24153.667820
500.935003	24358.825138
501.301226	24023.464899
501.667390	24874.295721
502.033497	25071.271246
502.399546	24819.185827
502.765537	24369.648495
503.131470	24749.433902
503.497345	24883.027000
503.863163	24114.266162
504.228923	24683.525857
504.594625	24908.535238
504.960269	24452.832575
505.325856	24948.108296
505.691385	24345.030020
506.056856	24949.383708
506.422270	24926.781695
506.787625	24469.271777
507.152924	24901.525514
507.518164	24939.190495
507.883347	24737.998045
508.248472	24416.377471
508.613540	25203.258736
508.978550	24992.286448
509.343503	25002.008313
509.708398	25229.195473
510.073236	25395.160340
510.438016	25607.891991
510.802738	25264.859116
511.167403	25525.872418
511.532010	25265.577480
511.896561	26017.276533
512.261053	25975.543341
512.625488	25803.473637
512.989866	25691.612953
513.354186	25535.725353
513.718449	25659.029455
514.082655	26039.245881
514.446803	25754.082932
514.810894	26235.634112
515.174927	25721.542284
515.538904	25752.121923
515.902822	26251.680104
516.266684	26000.691137
516.630488	25910.943475
516.994235	25861.741813
517.357925	26187.594436
517.721558	26361.806631
518.085133	26474.042880
518.448651	26362.555242
518.812112	26116.970391
519.175516	26330.107855
519.538863	26489.488975
519.902152	26277.437880
520.265385	26534.284668
520.628560	26344.858272
520.991678	26331.690778
521.354739	26399.789204
521.717743	26477.405330
522.080690	26256.799396
522.443580	26574.255977
522.806413	26566.853043
523.169189	26684.551382
523.531908	26716.159417
523.894569	26343.597983
524.257174	26426.056137
524.619722	26584.328203
524.982213	26282.549610
525.344647	26308.730842
525.707025	26478.456410
526.069345	26441.061131
526.431608	26410.471409
526.793815	26591.151404
527.155964	26067.609933
527.518057	26239.878763
527.880093	26160.848594
528.242072	26388.912915
528.603995	26106.492353
528.965860	25895.227678
529.327669	25936.723936
529.689421	25920.861945
530.051117	25776.579081
530.412755	25932.050786
530.774337	25728.725928
531.135862	25619.617715
531.497331	25812.739277
531.858743	25385.967796
532.220098	25850.497520
532.581396	25544.363370
532.942638	25453.073115
533.303824	25575.827732
533.664953	25564.762399
534.026025	25228.714042
534.387040	25467.833613
534.747999	25519.737333
535.108902	25689.036924
535.469748	25180.452556
535.830537	25352.013104
536.191270	25483.662837
536.551947	25323.613764
536.912567	24965.011285
537.273131	25374.529417
537.633638	25039.063314
537.994089	25272.458655
538.354483	24779.307780
538.714821	25281.454594
539.075103	25327.175339
539.435328	25101.389620
539.795497	24691.647156
540.155609	25052.326590
540.515665	25355.299936
540.875665	24578.304373
541.235609	24902.652212
541.595496	24838.463200
541.955328	25206.658994
542.315102	25129.574711
542.674821	24647.877337
543.034483	24525.621795
543.394090	24705.248189
543.753640	24506.495657
544.113134	25136.103005
544.472571	24724.351641
544.831953	25021.648648
545.191278	24676.097717
545.550548	24575.083076
545.909761	24769.953919
546.268918	25005.658108
546.628019	24974.977646
546.987064	24652.013604
547.346053	24406.532097
547.704986	24509.779969
548.063863	24678.151987
548.422684	24690.979203
548.781449	24207.093969
549.140158	24611.631441
549.498811	24193.573594
549.857408	23960.135403
550.215949	24356.138203
550.574434	24045.371233
550.932864	24237.381221
551.291237	24426.051445
551.649555	24272.744915
552.007817	24336.364277
552.366022	24185.855587
552.724173	24201.190777
553.082267	24169.781868
553.440305	24650.899509
553.798288	23896.324478
554.156215	24400.323916
554.514086	24524.724470
554.871902	23901.776486
555.229661	24184.532285
555.587365	24035.218349
555.945014	23931.471403
556.302606	24152.026925
556.660143	24128.031032
557.017625	24375.231573
557.375050	23883.595565
557.732421	24278.708600
558.089735	24086.978396
558.446994	24145.475945
558.804197	24166.210211
559.161345	24088.647018
559.518437	23879.968454
559.875474	24041.822260
560.232455	24227.034253
560.589381	24049.061357
560.946251	24050.566142
561.303065	24346.134033
561.659825	24441.245483
562.016528	24047.236460
562.373177	23780.514051
562.729770	24143.111644
563.086307	23989.469878
563.442789	24176.950389
563.799216	24011.003166
564.155587	24004.497557
564.511904	23987.569363
564.868164	23939.544811
565.224370	23912.834257
565.580520	23834.446835
565.936615	23964.606907
566.292654	23653.005626
566.648638	23908.176231
567.004567	23740.925870
567.360441	23683.764226
567.716260	23412.214913
568.072023	23728.582604
568.427732	23517.575028
568.783385	23281.865797
569.138982	23527.995093
569.494525	23554.456109
569.850013	23313.388132
570.205445	23417.689606
570.560823	23233.064908
570.916145	22995.379545
571.271412	23179.467360
571.626625	22927.540738
571.981782	23028.293238
572.336884	22845.939580
572.691931	22983.462257
573.046923	22725.098082
573.401860	22601.073094
573.756743	22619.443059
574.111570	22523.489736
574.466342	22445.533333
574.821059	22530.070963
575.175722	22234.223288
575.530330	22194.574612
575.884882	22204.621632
576.239380	22129.226135
576.593823	22031.415148
576.948211	22001.914315
577.302544	21846.732477
577.656823	21717.245399
578.011047	21819.283394
578.365216	21694.199764
578.719330	21568.559087
579.073389	21456.655554
579.427394	21608.220365
579.781344	21358.728620
580.135239	21252.400603
580.489080	21203.677851
580.842866	20977.617389
581.196597	21192.882220
581.550273	21153.107516
581.903895	21042.726411
582.257463	21346.292093
582.610975	20887.171527
582.964434	21208.144313
583.317837	20878.810773
583.671186	20969.901903
584.024481	20965.957200
584.377721	20721.277236
584.730906	20802.081891
585.084037	20797.998557
585.437113	20718.320600
585.790135	20928.229205
586.143103	20374.748321
586.496016	20397.912423
586.848874	20645.780916
587.201679	20554.949406
587.554428	20253.962275
587.907124	20582.312789
588.259765	20345.204639
588.612352	20421.986453
588.964884	19980.953547
589.317362	20151.152983
589.669786	20220.846935
590.022155	20234.140458
590.374470	20458.877617
590.726731	20207.089626
591.078937	20012.140645
591.431090	20088.801472
591.783188	19860.033910
592.135232	19821.985802
592.487222	19922.246790
592.839157	19933.612071
593.191038	19815.407096
593.542866	19706.734942
593.894639	19411.245189
594.246358	19630.366503
594.598022	19520.071098
594.949633	19265.328991
595.301190	19257.066540
595.652692	19423.263300
596.004141	19644.809409
596.355535	18981.262492
596.706876	18995.198762
597.058162	18901.748373
597.409395	19130.097519
597.760573	19183.450570
598.111698	18966.123907
598.462768	18908.143077
598.813785	18876.698879
599.164748	18670.624072
599.515657	18725.963338
599.866511	18530.759779
600.217312	18879.433705
600.568060	18396.352535
600.918753	18698.108443
601.269392	18597.988607
601.619978	18400.360253
601.970510	18581.299867
602.320988	18543.839053
602.671412	18743.035206
603.021783	18668.337909
603.372100	18377.367550
603.722363	18531.682310
604.072572	18465.940623
604.422728	18625.954408
604.772830	18365.165437
605.122878	18328.193615
605.472872	18304.263257
605.822813	18298.924675
606.172701	18282.694681
606.522534	18465.481878
606.872314	18493.344335
607.222041	18331.104881
607.571714	18537.784627
607.921333	18374.657930
608.270899	18443.257951
608.620411	18607.874309
608.969870	18385.216626
609.319276	18383.616060
609.668627	18418.379857
610.017926	18558.173574
610.367171	18669.174740
610.716362	18714.545125
611.065500	18517.496503
611.414585	18670.253547
611.763616	18668.975615
612.112594	18602.838197
612.461518	18565.790757
612.810389	18758.534233
613.159207	18614.763046
613.507971	18525.196866
613.856682	18781.491648
614.205340	18702.476603
614.553945	18851.861114
614.902496	18603.405327
615.250994	18823.686106
615.599439	18770.512015
615.947830	18759.814686
616.296169	18830.572322
616.644454	18784.324776
616.992686	18761.198483
617.340864	18989.141816
617.688990	18726.101970
618.037063	18899.484895
618.385082	18764.271066
618.733048	19030.990955
619.080961	18919.762936
619.428821	18943.393345
619.776628	18819.161670
620.124382	18758.909799
620.472083	18819.209561
620.819731	18819.627977
621.167326	18505.538886
621.514868	18549.404487
621.862357	18331.694696
622.209793	18329.325354
622.557176	18162.100198
622.904506	17999.041557
623.251783	17919.592972
623.599007	17666.448911
623.946179	17614.088967
624.293297	17545.937608
624.640363	17281.879449
624.987376	17301.688663
625.334336	17097.327848
625.681243	16956.130169
626.028097	16972.450905
626.374899	16888.792957
626.721647	16751.892863
627.068343	16590.321361
627.414987	16520.052718
627.761577	16496.883575
628.108115	16523.924324
628.454600	16243.321098
628.801032	16344.275245
629.147412	16287.153931
629.493739	16302.763863
629.840014	16113.448372
630.186236	16207.906992
630.532405	15972.500231
630.878521	16169.740416
631.224585	16068.990436
631.570597	15887.831532
631.916556	15922.242448
632.262462	15898.241514
632.608316	15821.535317
632.954117	15759.067859
633.299866	15750.530665
633.645562	15664.674774
633.991206	15422.515388
634.336797	15295.148115
634.682336	15261.105203
635.027823	15139.467202
635.373257	15018.411454
635.718639	14921.880920
636.063968	14870.322519
