Dividing Wavelength (nm)	Counts (n)	Blue Motor Position (mm): 31.900000	Red Motor Position (mm): 0.000000	
326.493990	2216.149204
326.888308	2216.149204
327.282561	2216.149204
327.676750	2179.741991
328.070874	2174.073213
328.464933	2176.377021
328.858929	2178.416168
329.252859	2182.101251
329.646726	2191.021573
330.040528	2202.712008
330.434265	2218.500902
330.827938	2238.342884
331.221547	2252.037178
331.615091	2267.256422
332.008571	2288.031017
332.401986	2307.328554
332.795338	2325.207006
333.188625	2343.352639
333.581847	2363.194621
333.975006	2384.254041
334.368100	2400.443706
334.761129	2418.317117
335.154095	2437.566763
335.546996	2464.819241
335.939833	2500.152688
336.332606	2517.839577
336.725315	2530.024045
337.117960	2542.793288
337.510540	2553.762839
337.903056	2565.566701
338.295508	2572.137845
338.687896	2582.615883
339.080220	2588.851790
339.472480	2594.525609
339.864676	2603.012391
340.256807	2608.482043
340.648875	2610.800974
341.040879	2614.821294
341.432818	2618.150976
341.824694	2619.111316
342.216506	2620.467387
342.608253	2619.176851
342.999937	2622.488889
343.391557	2621.538632
343.783113	2621.614249
344.174605	2621.334465
344.566033	2619.527211
344.957397	2619.370936
345.348697	2617.107457
345.739934	2616.401696
346.131106	2614.418002
346.522215	2610.382558
346.913260	2609.991869
347.304241	2608.426591
347.695159	2604.653287
348.086012	2605.772423
348.476802	2603.534151
348.867528	2597.857812
349.258191	2595.138109
349.648789	2594.170208
350.039324	2593.698860
350.429796	2595.012080
350.820203	2594.762543
351.210548	2591.019486
351.600828	2591.011925
351.991045	2586.709300
352.381198	2588.781214
352.771288	2587.946903
353.161314	2588.516553
353.551276	2586.469845
353.941175	2585.131419
354.331010	2587.750298
354.720782	2584.113106
355.110490	2586.111923
355.500135	2586.205184
355.889717	2587.883889
356.279235	2586.285843
356.668689	2587.578899
357.058080	2587.899012
357.447408	2587.659557
357.836672	2590.520412
358.225873	2587.163004
358.615010	2588.183837
359.004084	2590.240628
359.393095	2588.292222
359.782043	2590.480083
360.170927	2592.365474
360.559748	2589.668457
360.948505	2590.744743
361.337199	2594.883531
361.725830	2592.834302
362.114398	2591.095104
362.502903	2595.163315
362.891344	2592.650300
363.279722	2593.696339
363.668037	2595.228850
364.056289	2595.556525
364.444478	2598.114910
364.832603	2597.290682
365.220665	2595.682554
365.608665	2599.178594
365.996601	2596.882348
366.384474	2597.799838
366.772284	2598.170363
367.160031	2598.361927
367.547715	2601.570621
367.935336	2599.022318
368.322893	2598.147678
368.710388	2595.979982
369.097820	2601.951228
369.485189	2598.218254
369.872495	2603.390478
370.259738	2603.246805
370.646918	2600.199427
371.034035	2605.109511
371.421090	2604.827207
371.808081	2602.450303
372.195010	2604.638163
372.581875	2604.116404
372.968678	2605.003647
373.355418	2604.925509
373.742096	2604.880139
374.128710	2604.834768
374.515262	2602.576332
374.901751	2606.931888
375.288177	2609.381889
375.674540	2608.240068
376.060841	2608.308123
376.447079	2605.807711
376.833254	2607.902311
377.219367	2605.999275
377.605417	2606.896600
377.991404	2607.955243
378.377329	2608.983638
378.763191	2609.336519
379.148991	2607.451127
379.534727	2610.259050
379.920402	2608.608072
380.306013	2609.001282
380.691563	2614.334823
381.077049	2610.254009
381.462474	2610.372476
381.847835	2612.482199
382.233134	2611.199225
382.618371	2609.954060
383.003545	2611.388268
383.388657	2611.337857
383.773706	2614.145780
384.158693	2612.212497
384.543618	2616.605863
384.928480	2615.290122
385.313280	2613.802981
385.698017	2614.347426
386.082692	2615.340533
386.467305	2614.354987
386.851856	2616.852879
387.236344	2617.407406
387.620770	2613.535800
388.005133	2613.082096
388.389435	2615.716099
388.773674	2609.283587
389.157851	2619.204577
389.541965	2617.813219
389.926018	2619.121398
390.310008	2618.241717
390.693936	2619.401182
391.077802	2619.277674
391.461606	2621.314300
391.845348	2621.392438
392.229027	2623.166924
392.612645	2621.105092
392.996200	2621.631893
393.379694	2622.221708
393.763125	2623.297994
394.146494	2624.333952
394.529801	2624.838067
394.913047	2624.911164
395.296230	2625.054837
395.679351	2625.846298
396.062410	2628.097173
396.445408	2628.497945
396.828343	2627.376288
397.211217	2628.041720
397.594028	2628.339148
397.976778	2629.223871
398.359466	2630.965589
398.742092	2628.447533
399.124656	2631.079015
399.507158	2630.514406
399.889598	2631.136989
400.271977	2634.995992
400.654294	2631.222688
401.036549	2633.682771
401.418742	2633.506331
401.800874	2636.505817
402.182944	2635.172432
402.564952	2633.322329
402.946898	2636.392392
403.328783	2636.352062
403.710606	2635.152268
404.092367	2637.304840
404.474067	2637.647639
404.855705	2639.165026
405.237282	2640.160654
405.618797	2639.976652
406.000250	2642.116622
406.381642	2640.997486
406.762972	2641.236940
407.144240	2640.558905
407.525447	2642.492188
407.906593	2640.190901
408.287677	2647.087199
408.668700	2647.679535
409.049661	2647.798002
409.430560	2645.037970
409.811399	2649.154072
410.192176	2652.256903
410.572891	2650.681542
410.953545	2652.682880
411.334138	2650.076604
411.714669	2652.604742
412.095139	2653.426450
412.475547	2651.803199
412.855894	2655.332007
413.236180	2658.386946
413.616405	2659.564055
413.996568	2663.518840
414.376670	2663.904489
414.756711	2667.919768
415.136691	2673.575942
415.516609	2679.479133
415.896466	2683.388548
416.276262	2693.803572
416.655997	2707.402085
417.035670	2720.660319
417.415283	2738.324522
417.794834	2756.550814
418.174324	2771.588576
418.553753	2792.252266
418.933121	2823.799806
419.312428	2854.906246
419.691674	2877.382231
420.070859	2937.644184
420.449983	2960.823409
420.829045	3025.808923
421.208047	3065.923905
421.586988	3138.950060
421.965867	3197.787887
422.344686	3273.069958
422.723444	3341.985051
423.102141	3332.628670
423.480777	3496.559431
423.859352	3510.178108
424.237866	3683.472813
424.616319	3742.368613
424.994712	3896.716141
425.373044	3913.581321
425.751314	4097.573354
426.129524	4161.096934
426.507673	4295.146256
426.885762	4429.634158
427.263789	4505.753061
427.641756	4589.433694
428.019662	4730.054160
428.397508	4910.552673
428.775292	4917.743879
429.153016	5170.409031
429.530679	5220.197987
429.908282	5351.288151
430.285824	5341.127706
430.663305	5734.806533
431.040726	5628.586901
431.418086	5722.909410
431.795385	5987.741386
432.172624	6147.586292
432.549802	6221.706377
432.926920	6380.414503
433.303977	6423.667603
433.680974	6643.459390
434.057910	6813.991543
434.434786	6958.211392
434.811601	6999.536251
435.188355	7447.553676
435.565050	7394.351859
435.941683	7462.364586
436.318257	7914.724964
436.694770	8101.517358
437.071222	8277.932537
437.447614	8280.861448
437.823946	8311.161303
438.200218	8544.559164
438.576429	8496.002770
438.952580	8771.953011
439.328670	8928.579141
439.704700	8844.371707
440.080670	8920.351978
440.456580	9474.629364
440.832429	9357.349440
441.208218	9103.822251
441.583947	9463.407755
441.959616	9666.982150
442.335224	9577.468902
442.710773	9780.655128
443.086261	10030.323314
443.461689	9455.006672
443.837057	10076.873328
444.212365	10412.135265
444.587612	10144.593669
444.962800	10419.825545
445.337927	10268.104458
445.712995	9899.386904
446.088002	10971.776439
446.462949	10669.037506
446.837837	10689.610455
447.212664	10749.741338
447.587431	11246.804148
447.962139	11942.075046
448.336786	14128.194096
448.711374	14738.375358
449.085901	12707.181047
449.460369	12347.542611
449.834776	11842.507216
450.209124	12672.714678
450.583412	13101.212755
450.957640	14054.699114
451.331808	13293.522692
451.705917	12266.768203
452.079965	11624.079061
452.453954	12513.051254
452.827883	12152.717139
453.201752	12447.528857
453.575562	11967.870630
453.949311	12390.137841
454.323001	12348.381963
454.696632	12579.932242
455.070202	12868.566026
455.443713	13135.359011
455.817164	13578.176485
456.190556	13594.403960
456.563888	13956.885606
456.937160	14148.252848
457.310373	13475.669663
457.683526	13551.841498
458.056619	13128.029173
458.429653	13243.217018
458.802628	12713.142212
459.175542	13066.113722
459.548398	14011.917362
459.921194	14344.010934
460.293930	14396.917843
460.666607	15289.708710
461.039224	16313.168805
461.411782	17009.631935
461.784280	16921.056342
462.156719	16973.391080
462.529099	16661.227711
462.901419	15580.709316
463.273680	15379.574839
463.645882	15240.610392
464.018024	14974.026615
464.390106	15194.655234
464.762130	15916.142652
465.134094	16655.248902
465.505999	18618.564076
465.877845	21868.477494
466.249631	24706.004362
466.621358	24450.155722
466.993026	23006.195341
467.364634	22456.651598
467.736184	21005.595793
468.107674	20197.090498
468.479105	20333.337763
468.850477	19786.251583
469.221790	19370.202635
469.593043	18693.576445
469.964238	18148.017735
470.335373	17813.353175
470.706449	18225.091936
471.077467	17761.744363
471.448425	19590.317056
471.819324	23568.906577
472.190164	25664.161350
472.560945	22165.051095
472.931667	19759.157901
473.302330	19117.262741
473.672934	18608.247355
474.043479	18974.950968
474.413965	18780.387635
474.784393	18411.488600
475.154761	19090.315253
475.525070	19100.105174
475.895321	18751.579962
476.265513	19329.470112
476.635645	19901.724253
477.005719	19698.207831
477.375734	19889.320494
477.745691	20375.900225
478.115588	20876.058303
478.485427	21384.962784
478.855207	22453.798305
479.224928	24189.865825
479.594591	26410.612562
479.964194	26497.580027
480.333739	26702.316408
480.703226	26262.586641
481.072653	25932.877535
481.442022	26497.325449
481.811333	27392.462973
482.180584	27335.717225
482.549777	26381.028550
482.918912	26015.169331
483.287988	26134.876570
483.657005	25823.303015
484.025964	25541.041250
484.394864	25479.002290
484.763706	25185.655027
485.132489	24599.625933
485.501213	24774.412820
485.869879	24697.812487
486.238487	24487.924047
486.607036	24638.888960
486.975527	24326.299613
487.343959	24668.896428
487.712333	24610.300577
488.080648	24283.515340
488.448905	24749.116310
488.817104	24491.062165
489.185244	25162.886656
489.553326	25146.144984
489.921350	26102.739214
490.289315	28383.493325
490.657222	30186.865291
491.025070	30669.381852
491.392861	30481.132564
491.760593	29616.801531
492.128267	28737.241173
492.495883	27694.667543
492.863440	26825.751581
493.230939	25943.985718
493.598380	25786.714321
493.965763	25381.357660
494.333088	24935.825525
494.700354	24863.784916
495.067563	24748.990281
495.434713	24509.757284
495.801805	24643.478931
496.168839	24464.381858
496.535815	24290.139417
496.902733	24502.800492
497.269593	24170.369163
497.636395	24371.571695
498.003139	24345.728220
498.369825	24094.532565
498.736453	24285.042810
499.103023	24167.762886
499.469535	24193.732390
499.835989	24390.433172
500.202385	24412.107613
500.568723	23926.226082
500.935003	24179.324773
501.301226	23767.974181
501.667390	24629.275480
502.033497	24847.330589
502.399546	24572.857407
502.765537	24152.374764
503.131470	24532.523135
503.497345	24668.901470
503.863163	23892.828438
504.228923	24499.004503
504.594625	24689.837382
504.960269	24215.061512
505.325856	24716.779828
505.691385	24114.734989
506.056856	24716.404262
506.422270	24686.810169
506.787625	24280.377222
507.152924	24678.824981
507.518164	24713.510640
507.883347	24514.778273
508.248472	24208.563465
508.613540	24979.741536
508.978550	24771.453662
509.343503	24750.169911
509.708398	25008.120712
510.073236	25180.933986
510.438016	25385.599791
510.802738	25055.167280
511.167403	25319.762322
511.532010	25011.689849
511.896561	25785.106192
512.261053	25758.516627
512.625488	25587.621511
512.989866	25491.388405
513.354186	25342.497926
513.718449	25440.200529
514.082655	25817.351933
514.446803	25550.382508
514.810894	26021.861462
515.174927	25493.631718
515.538904	25527.261256
515.902822	26032.369748
516.266684	25775.225531
516.630488	25688.784866
516.994235	25658.369064
517.357925	25953.266482
517.721558	26143.557437
518.085133	26232.332156
518.448651	26156.291391
518.812112	25875.957867
519.175516	26085.470742
519.538863	26238.436993
519.902152	26039.742435
520.265385	26311.710164
520.628560	26101.088236
520.991678	26110.379083
521.354739	26182.843149
521.717743	26245.943271
522.080690	26033.236826
522.443580	26374.159978
522.806413	26369.259977
523.169189	26456.799613
523.531908	26505.567736
523.894569	26116.491482
524.257174	26189.550404
524.619722	26383.730609
524.982213	26068.565232
525.344647	26127.939942
525.707025	26256.123882
526.069345	26249.396462
526.431608	26176.566912
526.793815	26394.377526
527.155964	25847.646747
527.518057	26019.043457
527.880093	25943.317765
528.242072	26169.181622
528.603995	25884.270730
528.965860	25661.434086
529.327669	25723.712500
529.689421	25706.408740
530.051117	25538.578646
530.412755	25721.101183
530.774337	25529.244950
531.135862	25385.698094
531.497331	25599.856392
531.858743	25142.946372
532.220098	25619.312725
532.581396	25307.819829
532.942638	25254.043320
533.303824	25347.130746
533.664953	25350.692322
534.026025	25015.032134
534.387040	25260.465750
534.747999	25315.011035
535.108902	25480.088658
535.469748	24974.786082
535.830537	25161.747355
536.191270	25278.775221
536.551947	25145.610621
536.912567	24802.575226
537.273131	25142.152390
537.633638	24848.099365
537.994089	25063.036521
538.354483	24602.625420
538.714821	25100.462047
539.075103	25140.766072
539.435328	24929.660193
539.795497	24495.032073
540.155609	24889.898092
540.515665	25180.152607
540.875665	24422.515075
541.235609	24710.112902
541.595496	24683.382184
541.955328	25023.914647
542.315102	24954.082063
542.674821	24498.323947
543.034483	24371.533887
543.394090	24539.764752
543.753640	24329.931764
544.113134	24964.902900
544.472571	24561.494646
544.831953	24859.351221
545.191278	24472.172961
545.550548	24397.725201
545.909761	24596.192908
546.268918	24830.044473
546.628019	24786.362875
546.987064	24489.421269
547.346053	24252.572738
547.704986	24380.308015
548.063863	24525.026939
548.422684	24547.240783
548.781449	24078.234515
549.140158	24479.326359
549.498811	24051.264342
549.857408	23800.356032
550.215949	24219.787594
550.574434	23906.484924
550.932864	24123.851916
551.291237	24277.037458
551.649555	24144.820595
552.007817	24198.541651
552.366022	24060.446803
552.724173	24102.122022
553.082267	24040.256982
553.440305	24518.430589
553.798288	23779.248721
554.156215	24296.602176
554.514086	24392.701692
554.871902	23768.480817
555.229661	24049.542787
555.587365	23908.493823
555.945014	23771.308904
556.302606	24024.251319
556.660143	23966.535148
557.017625	24226.956115
557.375050	23748.545574
557.732421	24141.410255
558.089735	23948.061840
558.446994	24015.308312
558.804197	24047.241501
559.161345	23988.302851
559.518437	23745.089863
559.875474	23947.058650
560.232455	24120.980979
560.589381	23945.657210
560.946251	23919.395319
561.303065	24243.629731
561.659825	24337.619524
562.016528	23937.044398
562.373177	23681.684750
562.729770	24037.915366
563.086307	23887.837696
563.442789	24072.598505
563.799216	23880.021387
564.155587	23894.459251
564.511904	23880.265882
564.868164	23813.006808
565.224370	23790.787922
565.580520	23698.733932
565.936615	23849.030893
566.292654	23520.113249
566.648638	23817.904289
567.004567	23641.859635
567.360441	23598.687193
567.716260	23322.878105
568.072023	23653.003105
568.427732	23409.424634
568.783385	23185.937681
569.138982	23422.135903
569.494525	23467.163489
569.850013	23207.586916
570.205445	23299.862717
570.560823	23114.393626
570.916145	22874.694322
571.271412	23058.381365
571.626625	22808.801400
571.981782	22915.615888
572.336884	22727.212846
572.691931	22856.347043
573.046923	22594.174275
573.401860	22473.680616
573.756743	22477.078353
574.111570	22387.638202
574.466342	22308.751706
574.821059	22398.617835
575.175722	22107.644956
575.530330	22098.538111
575.884882	22117.157613
576.239380	22028.594622
576.593823	21921.470103
576.948211	21889.972974
577.302544	21731.716031
577.656823	21613.173298
578.011047	21711.569060
578.365216	21578.427145
578.719330	21460.045730
579.073389	21361.748271
579.427394	21509.270076
579.781344	21260.897467
580.135239	21161.806027
580.489080	21118.973863
580.842866	20891.698483
581.196597	21084.436918
581.550273	21075.529199
581.903895	20946.755445
582.257463	21269.296030
582.610975	20791.306425
582.964434	21112.284252
583.317837	20808.095988
583.671186	20895.464225
584.024481	20867.563959
584.377721	20636.162395
584.730906	20710.874815
585.084037	20725.418544
585.437113	20631.098556
585.790135	20830.786221
586.143103	20301.853236
586.496016	20303.884821
586.848874	20560.345962
587.201679	20481.242696
587.554428	20168.343318
587.907124	20495.506641
588.259765	20272.092785
588.612352	20340.617189
588.964884	19905.709285
589.317362	20083.059598
589.669786	20136.155551
590.022155	20173.850778
590.374470	20372.111797
590.726731	20163.655045
591.078937	19918.304608
591.431090	20018.878148
591.783188	19772.668194
592.135232	19738.037987
592.487222	19836.590024
592.839157	19848.741726
593.191038	19742.290201
593.542866	19622.774525
593.894639	19336.966308
594.246358	19563.903931
594.598022	19468.600917
594.949633	19211.560044
595.301190	19187.952321
595.652692	19351.502475
596.004141	19578.029244
596.355535	18915.490558
596.706876	18939.123487
597.058162	18827.338422
597.409395	19062.147806
597.760573	19122.903792
598.111698	18902.494464
598.462768	18842.845011
598.813785	18808.096337
599.164748	18621.619015
599.515657	18661.872629
599.866511	18450.955793
600.217312	18810.334610
600.568060	18337.018154
600.918753	18647.265886
601.269392	18542.488023
601.619978	18333.590170
601.970510	18537.754380
602.320988	18481.142222
602.671412	18691.345735
603.021783	18595.856199
603.372100	18327.666814
603.722363	18465.638154
604.072572	18410.518178
604.422728	18549.976657
604.772830	18308.268454
605.122878	18255.444723
605.472872	18250.363240
605.822813	18241.765552
606.172701	18212.552066
606.522534	18398.984017
606.872314	18432.739584
607.222041	18262.421680
607.571714	18481.464856
607.921333	18305.982291
608.270899	18375.477117
608.620411	18559.479233
608.969870	18327.155137
609.319276	18320.243715
609.668627	18365.535962
610.017926	18486.546339
610.367171	18603.107898
610.716362	18654.247884
611.065500	18463.102453
611.414585	18605.754504
611.763616	18578.814578
612.112594	18528.957567
612.461518	18502.839348
612.810389	18690.897072
613.159207	18542.576244
613.507971	18451.545608
613.856682	18731.528772
614.205340	18663.286673
614.553945	18793.935736
614.902496	18544.290236
615.250994	18785.484242
615.599439	18728.488956
615.947830	18702.269915
616.296169	18761.311909
616.644454	18734.485409
616.992686	18707.326192
617.340864	18906.771883
617.688990	18666.918824
618.037063	18845.012707
618.385082	18681.749898
618.733048	18966.698599
619.080961	18841.952727
619.428821	18887.345796
619.776628	18765.667466
620.124382	18686.866670
620.472083	18730.485253
620.819731	18748.497296
621.167326	18443.580585
621.514868	18488.658583
621.862357	18254.491945
622.209793	18263.485364
622.557176	18097.601155
622.904506	17920.097087
623.251783	17828.012851
623.599007	17599.479703
623.946179	17536.253551
624.293297	17478.257597
624.640363	17227.583701
624.987376	17254.112773
625.334336	17041.948252
625.681243	16886.678193
626.028097	16896.097589
626.374899	16829.486303
626.721647	16685.211000
627.068343	16525.363573
627.414987	16456.337574
627.761577	16434.348061
628.108115	16476.608054
628.454600	16202.071857
628.801032	16283.178981
629.147412	16226.932307
629.493739	16236.122330
629.840014	16049.884463
630.186236	16144.632950
630.532405	15905.732669
630.878521	16107.693895
631.224585	16001.927967
631.570597	15825.532952
631.916556	15863.346647
632.262462	15829.671740
632.608316	15748.824235
632.954117	15695.327510
633.299866	15684.201684
633.645562	15589.649802
633.991206	15364.925246
634.336797	15232.242077
634.682336	15200.099680
635.027823	15087.374439
635.373257	14968.849350
635.718639	14873.730339
636.063968	14813.763293
636.409245	14565.380602
