Dividing Wavelength (nm)	Counts (n)	Blue Motor Position (mm): 42.600000	Red Motor Position (mm): 0.000000	
326.493990	2258.126892
326.888308	2258.126892
327.282561	2258.126892
327.676750	2218.775645
328.070874	2214.548638
328.464933	2215.463607
328.858929	2218.924359
329.252859	2224.794783
329.646726	2231.330639
330.040528	2244.326733
330.434265	2256.785945
330.827938	2277.366456
331.221547	2292.237860
331.615091	2310.902732
332.008571	2327.331852
332.401986	2348.164420
332.795338	2366.259642
333.188625	2388.231511
333.581847	2405.860426
333.975006	2425.926739
334.368100	2444.223607
334.761129	2461.388736
335.154095	2479.405820
335.546996	2507.250633
335.939833	2543.302445
336.332606	2563.996381
336.725315	2573.471230
337.117960	2589.469332
337.510540	2599.347472
337.903056	2610.473299
338.295508	2615.448918
338.687896	2625.397635
339.080220	2635.258132
339.472480	2641.131076
339.864676	2645.431180
340.256807	2649.544762
340.648875	2652.703045
341.040879	2657.661020
341.432818	2658.109682
341.824694	2662.513130
342.216506	2663.397853
342.608253	2663.070178
342.999937	2665.666372
343.391557	2666.820796
343.783113	2663.798624
344.174605	2661.807369
344.566033	2660.116062
344.957397	2659.692605
345.348697	2658.870897
345.739934	2660.347955
346.131106	2657.986174
346.522215	2657.136740
346.913260	2651.851090
347.304241	2650.555513
347.695159	2649.764052
348.086012	2649.496871
348.476802	2647.896305
348.867528	2640.379944
349.258191	2637.514048
349.648789	2640.092598
350.039324	2634.224695
350.429796	2639.316261
350.820203	2639.175108
351.210548	2635.182515
351.600828	2635.774850
351.991045	2634.270066
352.381198	2631.585651
352.771288	2633.929788
353.161314	2633.574387
353.551276	2629.478449
353.941175	2633.395426
354.331010	2632.722432
354.720782	2630.194293
355.110490	2631.608337
355.500135	2630.416104
355.889717	2630.705970
356.279235	2632.397277
356.668689	2631.900723
357.058080	2634.383492
357.447408	2633.813841
357.836672	2632.304016
358.225873	2630.998357
358.615010	2633.271917
359.004084	2634.075981
359.393095	2637.204017
359.782043	2636.054634
360.170927	2636.369706
360.559748	2637.284676
360.948505	2637.841723
361.337199	2639.033956
361.725830	2640.011940
362.114398	2640.480767
362.502903	2639.971611
362.891344	2641.080665
363.279722	2639.608648
363.668037	2641.809111
364.056289	2641.234420
364.444478	2644.007054
364.832603	2646.351191
365.220665	2644.823721
365.608665	2645.917652
365.996601	2647.377066
366.384474	2644.599390
366.772284	2645.726088
367.160031	2649.562406
367.547715	2646.220121
367.935336	2647.230872
368.322893	2647.780358
368.710388	2645.128711
369.097820	2645.552168
369.485189	2646.905718
369.872495	2651.362098
370.259738	2653.275216
370.646918	2652.496357
371.034035	2650.018630
371.421090	2654.565751
371.808081	2655.326965
372.195010	2652.037612
372.581875	2653.892757
372.968678	2653.786893
373.355418	2655.417706
373.742096	2655.019455
374.128710	2656.441060
374.515262	2656.413334
374.901751	2658.858294
375.288177	2658.160094
375.674540	2659.493479
376.060841	2659.891730
376.447079	2656.846873
376.833254	2660.244611
377.219367	2657.850063
377.605417	2664.345590
377.991404	2661.520023
378.377329	2666.147802
378.763191	2663.145795
379.148991	2664.965652
379.534727	2669.752227
379.920402	2668.565035
380.306013	2670.044614
380.691563	2678.120542
381.077049	2680.288239
381.462474	2685.742767
381.847835	2696.067050
382.233134	2707.449976
382.618371	2719.306769
383.003545	2739.264697
383.388657	2758.053078
383.773706	2784.123405
384.158693	2814.350163
384.543618	2842.096674
384.928480	2879.247458
385.313280	2922.613983
385.698017	2961.788790
386.082692	3017.385155
386.467305	3054.051988
386.851856	3097.920108
387.236344	3166.641118
387.620770	3209.962273
388.005133	3269.929319
388.389435	3333.745285
388.773674	3377.434445
389.157851	3455.529480
389.541965	3537.032335
389.926018	3560.067887
390.310008	3658.677898
390.693936	3736.916605
391.077802	3800.404897
391.461606	3839.907378
391.845348	3930.506995
392.229027	4009.534644
392.612645	4051.991241
392.996200	4168.930887
393.379694	4250.753855
393.763125	4371.214747
394.146494	4428.381432
394.529801	4513.516438
394.913047	4621.906287
395.296230	4607.528916
395.679351	4731.528697
396.062410	4810.211027
396.445408	4812.824865
396.828343	4896.981887
397.211217	4966.998473
397.594028	4878.254001
397.976778	5010.617057
398.359466	5070.929421
398.742092	5109.990802
399.124656	5034.421385
399.507158	5162.882588
399.889598	5238.827571
400.271977	5366.560327
400.654294	5364.889184
401.036549	5416.792904
401.418742	5335.065718
401.800874	5550.441455
402.182944	5605.972285
402.564952	5722.669955
402.946898	5779.246825
403.328783	5631.039422
403.710606	5645.396628
404.092367	5969.348736
404.474067	5988.192569
404.855705	5897.076234
405.237282	5826.744576
405.618797	6078.651034
406.000250	6062.284928
406.381642	6265.496360
406.762972	6284.168794
407.144240	6343.183062
407.525447	6333.181412
407.906593	6360.138983
408.287677	6510.745974
408.668700	6422.351862
409.049661	6538.308483
409.430560	6564.653553
409.811399	6429.837976
410.192176	6693.480239
410.572891	6708.192847
410.953545	6906.461428
411.334138	6631.968080
411.714669	6809.124309
412.095139	6602.915911
412.475547	6848.866245
412.855894	6917.499034
413.236180	7093.165602
413.616405	6770.703155
413.996568	6988.208778
414.376670	7023.829572
414.756711	6926.782319
415.136691	7020.078953
415.516609	7226.599903
415.896466	7210.097686
416.276262	7412.850373
416.655997	7397.273207
417.035670	7577.935558
417.415283	7927.365658
417.794834	7974.971794
418.174324	7838.041453
418.553753	7754.685974
418.933121	8067.245074
419.312428	8170.775251
419.691674	7946.269985
420.070859	8420.992922
420.449983	8100.587266
420.829045	8465.390364
421.208047	8242.145386
421.586988	8543.452631
421.965867	8564.164212
422.344686	8666.335797
422.723444	8715.066111
423.102141	8073.997700
423.480777	8827.509047
423.859352	8350.126902
424.237866	8964.162125
424.616319	8840.187549
424.994712	9261.340665
425.373044	8814.260895
425.751314	9287.922669
426.129524	9161.936673
426.507673	9266.933825
426.885762	9414.596783
427.263789	9330.636366
427.641756	9256.886806
428.019662	9354.516312
428.397508	9609.034087
428.775292	9286.879150
429.153016	9668.471811
429.530679	9501.307150
429.908282	9524.004945
430.285824	9249.456145
430.663305	9934.291854
431.040726	9383.888594
431.418086	9367.441830
431.795385	9701.425834
432.172624	9787.163258
432.549802	9700.377274
432.926920	9778.154716
433.303977	9646.620930
433.680974	9859.002221
434.057910	9946.297362
434.434786	10018.216983
434.811601	9846.938740
435.188355	10412.538557
435.565050	10149.357559
435.941683	10079.429193
436.318257	10563.173275
436.694770	10712.890503
437.071222	10766.687177
437.447614	10611.364186
437.823946	10521.974446
438.200218	10630.709613
438.576429	10464.275919
438.952580	10711.705832
439.328670	10747.944167
439.704700	10543.752230
440.080670	10524.205156
440.456580	11066.676160
440.832429	10841.260966
441.208218	10436.274830
441.583947	10755.508418
441.959616	10919.114025
442.335224	10721.767975
442.710773	10848.091729
443.086261	11068.811088
443.461689	10340.540798
443.837057	11016.993068
444.212365	11266.618404
444.587612	10906.662375
444.962800	11132.856427
445.337927	10879.054496
445.712995	10516.161995
446.088002	11573.725496
446.462949	11247.441854
446.837837	11226.737836
447.212664	11184.109839
447.587431	11734.462686
447.962139	12477.402734
448.336786	14752.790537
448.711374	15275.961483
449.085901	13111.481586
449.460369	12734.738515
449.834776	12180.030110
450.209124	13089.892844
450.583412	13508.933717
450.957640	14451.483293
451.331808	13524.881407
451.705917	12563.508163
452.079965	11829.286790
452.453954	12741.599525
452.827883	12397.825600
453.201752	12682.436544
453.575562	12215.028321
453.949311	12637.338381
454.323001	12612.281326
454.696632	12843.377901
455.070202	13119.991053
455.443713	13333.746059
455.817164	13811.566785
456.190556	13789.678095
456.563888	14162.095856
456.937160	14316.813909
457.310373	13664.619671
457.683526	13757.518054
458.056619	13297.275831
458.429653	13479.231238
458.802628	12865.105274
459.175542	13270.963529
459.548398	14211.655439
459.921194	14566.804728
460.293930	14640.216531
460.666607	15491.811088
461.039224	16545.717232
461.411782	17268.497706
461.784280	17074.491421
462.156719	17177.588058
462.529099	16845.854929
462.901419	15789.428208
463.273680	15571.814200
463.645882	15457.811026
464.018024	15177.336350
464.390106	15397.977571
464.762130	16120.241327
465.134094	16908.975216
465.505999	18954.509089
465.877845	22206.408721
466.249631	25028.149216
466.621358	24677.572254
466.993026	23238.234611
467.364634	22673.408611
467.736184	21198.697191
468.107674	20394.101311
468.479105	20528.294305
468.850477	19987.756584
469.221790	19583.821529
469.593043	18896.104801
469.964238	18332.181167
470.335373	17977.498186
470.706449	18455.994426
471.077467	18026.654477
471.448425	19890.573220
471.819324	23991.191432
472.190164	25896.941670
472.560945	22261.566506
472.931667	19933.425549
473.302330	19309.809612
473.672934	18919.997350
474.043479	19173.673252
474.413965	18977.758891
474.784393	18587.634077
475.154761	19337.137707
475.525070	19277.924314
475.895321	18973.763776
476.265513	19577.608307
476.635645	20167.294758
477.005719	19933.508728
477.375734	20115.988415
477.745691	20606.795153
478.115588	21140.073613
478.485427	21696.576668
478.855207	22780.442389
479.224928	24566.124946
479.594591	26795.045913
479.964194	26741.672697
480.333739	26968.350700
480.703226	26537.019494
481.072653	26252.408551
481.442022	26843.072986
481.811333	27778.522096
482.180584	27654.166913
482.549777	26709.066513
482.918912	26390.510961
483.287988	26508.373138
483.657005	26149.372408
484.025964	25928.406032
484.394864	25803.914738
484.763706	25469.436700
485.132489	24935.341574
485.501213	25103.988335
485.869879	25027.738362
486.238487	24856.437434
486.607036	24987.411652
486.975527	24728.349276
487.343959	25026.160481
487.712333	24934.436687
488.080648	24610.955927
488.448905	25105.142759
488.817104	24862.905234
489.185244	25561.770474
489.553326	25513.889595
489.921350	26554.134212
490.289315	28884.556291
490.657222	30625.823762
491.025070	31127.526954
491.392861	30880.913708
491.760593	30029.200683
492.128267	29128.434711
492.495883	28063.037257
492.863440	27181.538575
493.230939	26309.693703
493.598380	26155.368860
493.965763	25765.037359
494.333088	25266.066472
494.700354	25235.068417
495.067563	25090.694812
495.434713	24843.196843
495.801805	25022.359451
496.168839	24792.460150
496.535815	24660.056765
496.902733	24882.432144
497.269593	24567.970008
497.636395	24741.599949
498.003139	24677.080742
498.369825	24417.282358
498.736453	24625.000581
499.103023	24500.912579
499.469535	24499.836293
499.835989	24725.833741
500.202385	24754.558235
500.568723	24270.622589
500.935003	24470.648012
501.301226	24135.764162
501.667390	24986.186652
502.033497	25196.904362
502.399546	24923.729276
502.765537	24482.734179
503.131470	24857.463309
503.497345	24990.690923
503.863163	24233.887701
504.228923	24794.768999
504.594625	25028.774319
504.960269	24572.121398
505.325856	25053.402876
505.691385	24451.857111
506.056856	25057.816407
506.422270	25048.961620
506.787625	24582.060033
507.152924	25003.639126
507.518164	25048.399531
507.883347	24860.495563
508.248472	24539.242993
508.613540	25319.858104
508.978550	25118.509378
509.343503	25124.795697
509.708398	25343.647309
510.073236	25515.117116
510.438016	25714.101541
510.802738	25374.796599
511.167403	25630.859488
511.532010	25374.395827
511.896561	26124.196885
512.261053	26088.185403
512.625488	25918.807675
512.989866	25814.087786
513.354186	25646.126622
513.718449	25763.504848
514.082655	26148.419630
514.446803	25882.362653
514.810894	26367.175460
515.174927	25835.152247
515.538904	25870.246240
515.902822	26368.438269
516.266684	26121.388963
516.630488	26020.749888
516.994235	25963.195034
517.357925	26300.901931
517.721558	26475.731667
518.085133	26590.463287
518.448651	26475.474568
518.812112	26239.236016
519.175516	26453.296011
519.538863	26607.580525
519.902152	26386.041978
520.265385	26659.822002
520.628560	26447.846524
520.991678	26457.565869
521.354739	26506.003795
521.717743	26600.449813
522.080690	26367.157816
522.443580	26710.702368
522.806413	26680.163058
523.169189	26794.161190
523.531908	26828.942631
523.894569	26451.173686
524.257174	26552.644551
524.619722	26687.253441
524.982213	26394.962300
525.344647	26430.444461
525.707025	26593.954286
526.069345	26563.530922
526.431608	26525.898709
526.793815	26698.490173
527.155964	26184.365577
527.518057	26363.699584
527.880093	26279.613138
528.242072	26504.395667
528.603995	26220.256072
528.965860	26018.700659
529.327669	26059.193727
529.689421	26040.622116
530.051117	25889.319445
530.412755	26067.829224
530.774337	25835.764748
531.135862	25732.244653
531.497331	25925.267913
531.858743	25496.855536
532.220098	25955.378725
532.581396	25651.944114
532.942638	25552.104062
533.303824	25669.875498
533.664953	25666.760065
534.026025	25333.333108
534.387040	25580.115233
534.747999	25626.960155
535.108902	25787.689784
535.469748	25289.775018
535.830537	25457.405987
536.191270	25593.058396
536.551947	25420.817292
536.912567	25056.851026
537.273131	25477.933565
537.633638	25155.536653
537.994089	25361.818148
538.354483	24868.894125
538.714821	25383.616097
539.075103	25430.612254
539.435328	25210.152514
539.795497	24795.971314
540.155609	25148.438709
540.515665	25468.678007
540.875665	24672.891543
541.235609	25024.512024
541.595496	24939.505567
541.955328	25303.416381
542.315102	25216.907660
542.674821	24739.543158
543.034483	24619.641835
543.394090	24794.204390
543.753640	24606.038281
544.113134	25227.115997
544.472571	24812.566793
544.831953	25125.362827
545.191278	24767.733291
545.550548	24654.766074
545.909761	24851.439130
546.268918	25097.502890
546.628019	25061.977879
546.987064	24754.845581
547.346053	24499.707744
547.704986	24615.382060
548.063863	24761.764565
548.422684	24787.575272
548.781449	24289.524396
549.140158	24706.498395
549.498811	24272.255923
549.857408	24036.481158
550.215949	24423.135137
550.574434	24124.855105
550.932864	24338.179092
551.291237	24521.631722
551.649555	24355.669375
552.007817	24416.702625
552.366022	24269.563947
552.724173	24283.928715
553.082267	24261.477936
553.440305	24738.285391
553.798288	23979.848836
554.156215	24467.066273
554.514086	24605.718168
554.871902	23973.161745
555.229661	24259.600107
555.587365	24103.722588
555.945014	24016.765205
556.302606	24227.142638
556.660143	24209.856521
557.017625	24452.262924
557.375050	23966.918276
557.732421	24345.337531
558.089735	24168.466127
558.446994	24233.912907
558.804197	24261.298975
559.161345	24165.892618
559.518437	23948.762560
559.875474	24135.000427
560.232455	24316.429034
560.589381	24129.750066
560.946251	24126.264108
561.303065	24436.388331
561.659825	24521.525858
562.016528	24130.526403
562.373177	23856.660680
562.729770	24227.450148
563.086307	24079.759464
563.442789	24239.281736
563.799216	24088.838582
564.155587	24083.404218
564.511904	24066.349994
564.868164	24007.791951
565.224370	23974.931190
565.580520	23915.828702
565.936615	24015.497355
566.292654	23733.727102
566.648638	23976.733402
567.004567	23815.517303
567.360441	23757.841461
567.716260	23493.392613
568.072023	23798.170692
568.427732	23590.149999
568.783385	23335.435619
569.138982	23598.931689
569.494525	23634.524756
569.850013	23376.458008
570.205445	23480.666220
570.560823	23298.524290
570.916145	23053.793915
571.271412	23246.900354
571.626625	22995.737467
571.981782	23096.429474
572.336884	22900.520153
572.691931	23048.835940
573.046923	22775.537346
573.401860	22656.344305
573.756743	22683.606865
574.111570	22583.562646
574.466342	22494.820694
574.821059	22578.307243
575.175722	22283.026698
575.530330	22261.291763
575.884882	22273.728290
576.239380	22193.707534
576.593823	22080.004309
576.948211	22054.289383
577.302544	21912.743866
577.656823	21770.386722
578.011047	21871.232484
578.365216	21743.315726
578.719330	21618.771500
579.073389	21513.570181
579.427394	21665.392090
579.781344	21410.730642
580.135239	21301.559414
580.489080	21261.363774
580.842866	21035.547808
581.196597	21247.170406
581.550273	21203.856812
581.903895	21088.147208
582.257463	21397.903426
582.610975	20928.768608
582.964434	21261.668764
583.317837	20930.843043
583.671186	21022.047598
584.024481	21007.461020
584.377721	20770.408322
584.730906	20860.367712
585.084037	20842.469095
585.437113	20771.000657
585.790135	20976.646967
586.143103	20424.179355
586.496016	20452.442584
586.848874	20687.935045
587.201679	20595.868452
587.554428	20300.920623
587.907124	20628.653596
588.259765	20391.346320
588.612352	20466.978751
588.964884	20040.663494
589.317362	20209.922755
589.669786	20267.560787
590.022155	20268.258987
590.374470	20502.375213
590.726731	20267.969121
591.078937	20053.687315
591.431090	20136.226127
591.783188	19905.845396
592.135232	19873.483709
592.487222	19978.001952
592.839157	19965.787236
593.191038	19855.388487
593.542866	19746.587784
593.894639	19443.241393
594.246358	19670.579787
594.598022	19560.387726
594.949633	19312.914963
595.301190	19299.235792
595.652692	19457.843095
596.004141	19685.889771
596.355535	19013.258696
596.706876	19036.899187
597.058162	18933.623589
597.409395	19168.261574
597.760573	19224.281396
598.111698	18993.111725
598.462768	18938.919321
598.813785	18909.070649
599.164748	18712.132933
599.515657	18764.160161
599.866511	18564.777485
600.217312	18918.686650
600.568060	18416.401204
600.918753	18738.697293
601.269392	18647.540628
601.619978	18424.489735
601.970510	18618.488459
602.320988	18570.083300
602.671412	18771.540410
603.021783	18705.899546
603.372100	18413.931039
603.722363	18563.192042
604.072572	18508.714813
604.422728	18661.471857
604.772830	18403.972239
605.122878	18375.305718
605.472872	18349.076594
605.822813	18341.282971
606.172701	18324.448037
606.522534	18485.853181
606.872314	18520.483387
607.222041	18357.727214
607.571714	18580.117716
607.921333	18402.235562
608.270899	18479.503847
608.620411	18643.583323
608.969870	18422.415301
609.319276	18420.963448
609.668627	18454.769426
610.017926	18584.647193
610.367171	18699.683803
610.716362	18747.015197
611.065500	18564.812773
611.414585	18718.527636
611.763616	18695.698771
612.112594	18631.857599
612.461518	18607.720554
612.810389	18787.987175
613.159207	18650.499786
613.507971	18564.888391
613.856682	18824.391867
614.205340	18749.109796
614.553945	18900.558661
614.902496	18644.689856
615.250994	18857.615592
615.599439	18806.132808
615.947830	18798.838258
616.296169	18874.032109
616.644454	18819.817020
616.992686	18801.792374
617.340864	19015.285240
617.688990	18762.980531
618.037063	18941.404610
618.385082	18793.870201
618.733048	19068.177026
619.080961	18959.285582
619.428821	18976.165886
619.776628	18854.845477
620.124382	18781.219426
620.472083	18837.995421
620.819731	18850.134519
621.167326	18549.860711
621.514868	18588.415456
621.862357	18370.075521
622.209793	18363.108646
622.557176	18196.659828
622.904506	18033.865847
623.251783	17966.122822
623.599007	17692.660390
623.946179	17645.891086
624.293297	17575.541784
624.640363	17306.381977
624.987376	17352.100201
625.334336	17147.900703
625.681243	16989.321126
626.028097	16999.463928
626.374899	16924.842248
626.721647	16790.843338
627.068343	16617.011750
627.414987	16550.677727
627.761577	16529.396496
628.108115	16555.812143
628.454600	16288.862882
628.801032	16379.873353
629.147412	16324.650033
629.493739	16337.396590
629.840014	16145.673948
630.186236	16231.660909
630.532405	15999.024262
630.878521	16203.206116
631.224585	16103.240035
631.570597	15920.742704
631.916556	15951.912159
632.262462	15925.998107
632.608316	15848.316447
632.954117	15779.310613
633.299866	15780.281035
633.645562	15682.296128
633.991206	15465.612212
634.336797	15321.465459
634.682336	15294.724658
635.027823	15160.735830
635.373257	15038.021542
635.718639	14962.442043
636.063968	14895.946704
