Dividing Wavelength (nm)	Counts (n)	Blue Motor Position (mm): 45.300000	Red Motor Position (mm): 0.000000	
326.493990	2269.416556
326.888308	2269.416556
327.282561	2269.416556
327.676750	2229.788046
328.070874	2224.996429
328.464933	2227.761502
328.858929	2231.436503
329.252859	2234.970352
329.646726	2242.726167
330.040528	2255.689494
330.434265	2265.504621
330.827938	2288.595626
331.221547	2303.015847
331.615091	2322.358754
332.008571	2340.101095
332.401986	2355.774042
332.795338	2378.086189
333.188625	2397.638304
333.581847	2417.145049
333.975006	2437.249171
334.368100	2459.102572
334.761129	2475.496405
335.154095	2490.065339
335.546996	2518.094155
335.939833	2559.187120
336.332606	2572.399985
336.725315	2586.883220
337.117960	2600.040631
337.510540	2608.882815
337.903056	2622.970319
338.295508	2630.224540
338.687896	2636.231075
339.080220	2644.105357
339.472480	2652.140956
339.864676	2657.862666
340.256807	2662.399704
340.648875	2669.250632
341.040879	2670.780622
341.432818	2671.415808
341.824694	2675.489060
342.216506	2675.541992
342.608253	2677.795388
342.999937	2677.248423
343.391557	2678.375121
343.783113	2676.146931
344.174605	2674.987465
344.566033	2673.275994
344.957397	2673.326405
345.348697	2670.962104
345.739934	2671.433452
346.131106	2666.407422
346.522215	2667.171156
346.913260	2664.282575
347.304241	2663.463388
347.695159	2660.758809
348.086012	2660.486586
348.476802	2656.304949
348.867528	2654.727068
349.258191	2652.171203
349.648789	2650.742036
350.039324	2647.142652
350.429796	2650.661377
350.820203	2651.175575
351.210548	2648.957467
351.600828	2649.862355
351.991045	2646.323465
352.381198	2646.746922
352.771288	2646.870430
353.161314	2641.758700
353.551276	2644.072589
353.941175	2642.585449
354.331010	2641.920017
354.720782	2643.266005
355.110490	2646.353712
355.500135	2645.741211
355.889717	2645.718526
356.279235	2644.564102
356.668689	2644.906900
357.058080	2644.720378
357.447408	2645.292549
357.836672	2645.075779
358.225873	2644.914462
358.615010	2647.556027
359.004084	2646.986376
359.393095	2648.208856
359.782043	2648.929741
360.170927	2650.973929
360.559748	2648.377735
360.948505	2651.871254
361.337199	2653.948210
361.725830	2652.022489
362.114398	2654.643889
362.502903	2654.374187
362.891344	2652.171203
363.279722	2654.434681
363.668037	2653.963333
364.056289	2656.214208
364.444478	2657.502223
364.832603	2659.647234
365.220665	2655.369815
365.608665	2656.768735
365.996601	2658.152532
366.384474	2660.153870
366.772284	2658.021462
367.160031	2661.139416
367.547715	2660.277378
367.935336	2661.580517
368.322893	2658.016421
368.710388	2659.677481
369.097820	2657.577841
369.485189	2659.569096
369.872495	2663.907009
370.259738	2666.336845
370.646918	2665.767195
371.034035	2664.353151
371.421090	2666.253666
371.808081	2664.096052
372.195010	2668.396157
372.581875	2669.074192
372.968678	2667.740807
373.355418	2669.565704
373.742096	2672.081240
374.128710	2675.211797
374.515262	2678.473423
374.901751	2682.685307
375.288177	2686.317459
375.674540	2693.027234
376.060841	2700.946887
376.447079	2713.748897
376.833254	2724.690722
377.219367	2739.867115
377.605417	2759.431833
377.991404	2774.399019
378.377329	2800.492032
378.763191	2823.537666
379.148991	2854.757532
379.534727	2887.772049
379.920402	2922.198088
380.306013	2947.479475
380.691563	2999.879748
381.077049	3032.256559
381.462474	3068.036148
381.847835	3121.704272
382.233134	3168.574400
382.618371	3203.093701
383.003545	3272.127262
383.388657	3303.027014
383.773706	3369.461860
384.158693	3411.449631
384.543618	3452.028399
384.928480	3517.356711
385.313280	3583.272318
385.698017	3617.579891
386.082692	3709.084395
386.467305	3725.072414
386.851856	3772.431534
387.236344	3856.686859
387.620770	3892.932755
388.005133	3954.036581
388.389435	4007.147657
388.773674	4027.876882
389.157851	4108.482411
389.541965	4179.751724
389.926018	4151.790964
390.310008	4262.527470
390.693936	4319.250533
391.077802	4358.309393
391.461606	4355.193960
391.845348	4430.604580
392.229027	4492.822501
392.612645	4495.680835
392.996200	4601.585395
393.379694	4659.167975
393.763125	4769.213843
394.146494	4798.240807
394.529801	4853.454044
394.913047	4938.599133
395.296230	4889.074837
395.679351	4998.694728
396.062410	5052.007450
396.445408	5017.886401
396.828343	5085.296710
397.211217	5135.773783
397.594028	5023.479561
397.976778	5141.538343
398.359466	5189.724212
398.742092	5210.019897
399.124656	5127.090396
399.507158	5248.267131
399.889598	5313.124096
400.271977	5433.995842
400.654294	5429.272281
401.036549	5472.742150
401.418742	5392.224841
401.800874	5597.457776
402.182944	5661.437580
402.564952	5762.265698
402.946898	5823.782898
403.328783	5657.013968
403.710606	5681.755951
404.092367	6005.839128
404.474067	6020.213979
404.855705	5926.143527
405.237282	5858.622313
405.618797	6117.195696
406.000250	6091.077478
406.381642	6298.344519
406.762972	6317.251366
407.144240	6377.500716
407.525447	6359.914651
407.906593	6380.326283
408.287677	6540.753442
408.668700	6451.794721
409.049661	6567.577422
409.430560	6594.333346
409.811399	6456.543488
410.192176	6729.907617
410.572891	6733.297793
410.953545	6933.008144
411.334138	6659.830538
411.714669	6829.808163
412.095139	6635.617876
412.475547	6874.661829
412.855894	6938.926458
413.236180	7130.991899
413.616405	6797.552340
413.996568	7010.737695
414.376670	7054.673871
414.756711	6951.753674
415.136691	7045.609877
415.516609	7254.210302
415.896466	7237.939978
416.276262	7441.721061
416.655997	7428.498114
417.035670	7607.524611
417.415283	7952.720141
417.794834	8009.317175
418.174324	7870.909776
418.553753	7794.853888
418.933121	8091.757685
419.312428	8194.420783
419.691674	7965.023077
420.070859	8451.602808
420.449983	8133.838716
420.829045	8499.549222
421.208047	8263.729086
421.586988	8577.079648
421.965867	8595.046320
422.344686	8694.286475
422.723444	8757.391638
423.102141	8096.231709
423.480777	8865.022794
423.859352	8389.556286
424.237866	9005.008074
424.616319	8871.974545
424.994712	9298.055388
425.373044	8844.601079
425.751314	9326.303494
426.129524	9199.251294
426.507673	9293.987177
426.885762	9440.137789
427.263789	9371.164722
427.641756	9304.704670
428.019662	9392.970233
428.397508	9652.496395
428.775292	9317.743615
429.153016	9702.832316
429.530679	9536.023056
429.908282	9552.046363
430.285824	9285.878481
430.663305	9975.271393
431.040726	9413.507894
431.418086	9394.656499
431.795385	9726.888702
432.172624	9828.498199
432.549802	9725.885512
432.926920	9813.457917
433.303977	9676.971197
433.680974	9884.313854
434.057910	9986.787909
434.434786	10050.828207
434.811601	9871.277431
435.188355	10442.810686
435.565050	10191.236945
435.941683	10105.542370
436.318257	10581.535678
436.694770	10753.617985
437.071222	10803.961468
437.447614	10639.549277
437.823946	10557.020547
438.200218	10652.129476
438.576429	10497.784469
438.952580	10740.483259
439.328670	10765.512588
439.704700	10564.655375
440.080670	10553.847141
440.456580	11082.792729
440.832429	10868.430264
441.208218	10470.433689
441.583947	10767.395459
441.959616	10943.770308
442.335224	10753.567574
442.710773	10861.952382
443.086261	11095.917373
443.461689	10360.438232
443.837057	11044.822758
444.212365	11292.948350
444.587612	10932.052146
444.962800	11136.796089
445.337927	10885.214786
445.712995	10548.029649
446.088002	11590.729308
446.462949	11282.472832
446.837837	11254.065931
447.212664	11187.994048
447.587431	11763.565268
447.962139	12522.488294
448.336786	14814.315299
448.711374	15303.823941
449.085901	13122.279737
449.460369	12767.198504
449.834776	12219.986296
450.209124	13145.816885
450.583412	13563.398343
450.957640	14485.090145
451.331808	13549.860324
451.705917	12609.312087
452.079965	11857.633198
452.453954	12774.170420
452.827883	12424.863829
453.201752	12714.589023
453.575562	12263.922472
453.949311	12676.069566
454.323001	12657.523161
454.696632	12897.635840
455.070202	13173.540710
455.443713	13369.122356
455.817164	13860.561759
456.190556	13836.180219
456.563888	14197.509962
456.937160	14346.899515
457.310373	13691.047920
457.683526	13813.845387
458.056619	13326.539729
458.429653	13536.465978
458.802628	12901.714133
459.175542	13312.852997
459.548398	14257.688736
459.921194	14626.542401
460.293930	14698.242732
460.666607	15538.033428
461.039224	16606.440451
461.411782	17322.559040
461.784280	17113.167153
462.156719	17221.216724
462.529099	16891.142135
462.901419	15841.215982
463.273680	15612.403050
463.645882	15505.974210
464.018024	15225.499533
464.390106	15453.505881
464.762130	16176.104873
465.134094	16969.887478
465.505999	19027.464668
465.877845	22289.106329
466.249631	25104.870537
466.621358	24720.235539
466.993026	23306.116268
467.364634	22715.086350
467.736184	21236.238663
468.107674	20452.598860
468.479105	20584.961916
468.850477	20035.680313
469.221790	19640.163985
469.593043	18954.917422
469.964238	18370.872023
470.335373	18011.319287
470.706449	18517.458695
471.077467	18098.022092
471.448425	19984.207612
471.819324	24117.943683
472.190164	25942.720388
472.560945	22277.791460
472.931667	19979.378187
473.302330	19376.715806
473.672934	18998.029370
474.043479	19228.747858
474.413965	19041.801709
474.784393	18631.421539
475.154761	19401.074661
475.525070	19315.286826
475.895321	19037.105874
476.265513	19641.341095
476.635645	20239.350490
477.005719	19995.099025
477.375734	20168.943215
477.745691	20662.804893
478.115588	21207.955270
478.485427	21767.815734
478.855207	22863.021530
479.224928	24665.768392
479.594591	26884.329789
479.964194	26796.601109
480.333739	27028.970575
480.703226	26612.175537
481.072653	26326.211043
481.442022	26944.082585
481.811333	27870.107259
482.180584	27749.865657
482.549777	26807.797512
482.918912	26471.945760
483.287988	26615.790044
483.657005	26241.169299
484.025964	26026.214499
484.394864	25909.569760
484.763706	25547.816560
485.132489	25020.045561
485.501213	25203.420053
485.869879	25108.245589
486.238487	24959.282013
486.607036	25077.209725
486.975527	24840.951009
487.343959	25129.582273
487.712333	25035.388313
488.080648	24692.189080
488.448905	25203.858633
488.817104	24965.701923
489.185244	25672.776682
489.553326	25608.164213
489.921350	26675.116863
490.289315	29031.936944
490.657222	30735.937685
491.025070	31250.210995
491.392861	30991.050317
491.760593	30134.331426
492.128267	29218.021056
492.495883	28150.115628
492.863440	27293.404300
493.230939	26421.362822
493.598380	26254.425013
493.965763	25884.734516
494.333088	25371.333326
494.700354	25344.189233
495.067563	25182.819378
495.434713	24950.399500
495.801805	25125.675378
496.168839	24888.405911
496.535815	24744.458283
496.902733	24987.590613
497.269593	24666.867364
497.636395	24832.895245
498.003139	24758.613843
498.369825	24506.674618
498.736453	24730.053186
499.103023	24593.374903
499.469535	24588.737041
499.835989	24825.177239
500.202385	24840.325906
500.568723	24384.396391
500.935003	24562.926333
501.301226	24243.062601
501.667390	25100.978766
502.033497	25297.598889
502.399546	25022.238463
502.765537	24571.370266
503.131470	24948.322545
503.497345	25079.586629
503.863163	24328.779861
504.228923	24880.539190
504.594625	25123.260666
504.960269	24679.944117
505.325856	25152.489276
505.691385	24551.755137
506.056856	25167.181719
506.422270	25150.306456
506.787625	24666.771582
507.152924	25111.792041
507.518164	25150.490458
507.883347	24961.099349
508.248472	24645.480269
508.613540	25418.528608
508.978550	25213.431785
509.343503	25235.645629
509.708398	25427.164105
510.073236	25602.341680
510.438016	25807.425901
510.802738	25466.911082
511.167403	25732.499232
511.532010	25467.647091
511.896561	26222.998460
512.261053	26195.811517
512.625488	26006.196077
512.989866	25910.998927
513.354186	25727.357255
513.718449	25869.154830
514.082655	26245.487047
514.446803	25967.497659
514.810894	26458.669881
515.174927	25948.530318
515.538904	25981.620452
515.902822	26473.281666
516.266684	26221.097945
516.630488	26134.501004
516.994235	26069.356693
517.357925	26407.320688
517.721558	26565.877580
518.085133	26693.121344
518.448651	26571.939567
518.812112	26346.715937
519.175516	26569.078712
519.538863	26706.208179
519.902152	26506.044125
520.265385	26751.034119
520.628560	26567.548722
520.991678	26545.649950
521.354739	26614.222245
521.717743	26701.396398
522.080690	26474.615051
522.443580	26804.777860
522.806413	26774.684693
523.169189	26906.621771
523.531908	26936.394826
523.894569	26562.779791
524.257174	26656.827557
524.619722	26802.647973
524.982213	26510.563519
525.344647	26527.844594
525.707025	26701.822375
526.069345	26651.796485
526.431608	26632.249411
526.793815	26803.126882
527.155964	26287.545393
527.518057	26464.053834
527.880093	26374.104526
528.242072	26602.491480
528.603995	26318.661916
528.965860	26110.850431
529.327669	26152.760063
529.689421	26139.547199
530.051117	25990.404662
530.412755	26170.509966
530.774337	25930.782936
531.135862	25827.514899
531.497331	26016.101944
531.858743	25616.880368
532.220098	26068.466930
532.581396	25760.512923
532.942638	25651.417313
533.303824	25777.310048
533.664953	25759.366061
534.026025	25420.890389
534.387040	25688.069022
534.747999	25721.184362
535.108902	25881.387190
535.469748	25381.733226
535.830537	25541.394130
536.191270	25685.117427
536.551947	25511.248030
536.912567	25143.132894
537.273131	25583.835605
537.633638	25240.076803
537.994089	25469.751773
538.354483	24954.739934
538.714821	25462.978982
539.075103	25519.535687
539.435328	25286.863752
539.795497	24881.355857
540.155609	25210.346598
540.515665	25537.580497
540.875665	24750.643779
541.235609	25097.823003
541.595496	25021.754512
541.955328	25384.836057
542.315102	25298.317254
542.674821	24814.444622
543.034483	24697.033629
543.394090	24879.369643
543.753640	24685.655744
544.113134	25316.223432
544.472571	24893.522682
544.831953	25201.428797
545.191278	24850.060374
545.550548	24739.026440
545.909761	24936.498519
546.268918	25172.971484
546.628019	25146.744881
546.987064	24827.927188
547.346053	24568.968156
547.704986	24671.658981
548.063863	24836.197201
548.422684	24859.905748
548.781449	24360.029973
549.140158	24770.188333
549.498811	24335.771941
549.857408	24112.731130
550.215949	24493.466795
550.574434	24197.677093
550.932864	24388.479725
551.291237	24592.676703
551.649555	24415.631380
552.007817	24482.671164
552.366022	24332.180119
552.724173	24351.885989
553.082267	24324.492359
553.440305	24814.434540
553.798288	24037.433936
554.156215	24540.125195
554.514086	24669.430791
554.871902	24062.919489
555.229661	24326.246681
555.587365	24166.411857
555.945014	24083.580658
556.302606	24288.821155
556.660143	24280.662047
557.017625	24504.942982
557.375050	24030.167113
557.732421	24406.050667
558.089735	24246.868672
558.446994	24304.610049
558.804197	24330.360263
559.161345	24223.671803
559.518437	24027.056721
559.875474	24197.631723
560.232455	24376.650658
560.589381	24187.909858
560.946251	24191.204252
561.303065	24485.995805
561.659825	24583.539612
562.016528	24192.051166
562.373177	23916.146295
562.729770	24286.038438
563.086307	24132.429439
563.442789	24310.009124
563.799216	24146.297653
564.155587	24144.858404
564.511904	24121.343942
564.868164	24090.935702
565.224370	24041.517271
565.580520	23991.577080
565.936615	24106.255768
566.292654	23804.083966
566.648638	24037.227249
567.004567	23875.819585
567.360441	23824.304034
567.716260	23535.771073
568.072023	23859.105639
568.427732	23641.917608
568.783385	23392.541810
569.138982	23657.648529
569.494525	23687.903013
569.850013	23436.772893
570.205445	23536.907853
570.560823	23361.773127
570.916145	23120.793370
571.271412	23313.514161
571.626625	23053.776271
571.981782	23159.033043
572.336884	22962.264205
572.691931	23107.177214
573.046923	22846.496628
573.401860	22724.238565
573.756743	22758.536055
574.111570	22652.208038
574.466342	22552.829252
574.821059	22648.558243
575.175722	22348.423066
575.530330	22311.589876
575.884882	22321.883912
576.239380	22234.671950
576.593823	22131.658492
576.948211	22106.515737
577.302544	21971.027166
577.656823	21820.906645
578.011047	21935.970982
578.365216	21802.992905
578.719330	21677.016991
579.073389	21566.338458
579.427394	21720.524669
579.781344	21460.592695
580.135239	21353.387517
580.489080	21301.687964
580.842866	21091.063515
581.196597	21300.687295
581.550273	21267.065319
581.903895	21122.835387
582.257463	21447.977207
582.610975	20983.732308
582.964434	21316.171199
583.317837	20981.539407
583.671186	21071.924774
584.024481	21060.405738
584.377721	20816.721402
584.730906	20907.530227
585.084037	20890.917104
585.437113	20830.405614
585.790135	21029.387518
586.143103	20482.109774
586.496016	20500.567959
586.848874	20733.807024
587.201679	20645.566667
587.554428	20355.889364
587.907124	20687.380518
588.259765	20433.664286
588.612352	20507.834782
588.964884	20078.457024
589.317362	20256.198027
589.669786	20315.746656
590.022155	20307.438835
590.374470	20557.911084
590.726731	20303.678134
591.078937	20113.014134
591.431090	20181.334371
591.783188	19954.467325
592.135232	19915.811757
592.487222	20013.957981
592.839157	20017.358240
593.191038	19898.878521
593.542866	19790.871800
593.894639	19499.959415
594.246358	19711.763493
594.598022	19598.229147
594.949633	19359.994299
595.301190	19349.175982
595.652692	19505.063583
596.004141	19727.030628
596.355535	19054.850736
596.706876	19079.207071
597.058162	18969.415781
597.409395	19221.657475
597.760573	19253.656199
598.111698	19026.776550
598.462768	18976.163365
598.813785	18964.067117
599.164748	18743.839270
599.515657	18810.284198
599.866511	18603.841386
600.217312	18958.015212
600.568060	18458.464592
600.918753	18779.321431
601.269392	18675.569444
601.619978	18477.366398
601.970510	18658.754675
602.320988	18624.759654
602.671412	18814.052461
603.021783	18744.953365
603.372100	18454.550136
603.722363	18611.899671
604.072572	18547.667809
604.422728	18702.796716
604.772830	18452.649621
605.122878	18412.113703
605.472872	18396.758348
605.822813	18378.673209
606.172701	18364.681486
606.522534	18543.839053
606.872314	18575.852900
607.222041	18414.906502
607.571714	18624.976424
607.921333	18444.177962
608.270899	18519.044137
608.620411	18680.940793
608.969870	18477.981419
609.319276	18463.223441
609.668627	18487.864601
610.017926	18621.709756
610.367171	18743.012521
610.716362	18791.435324
611.065500	18609.313559
611.414585	18758.282176
611.763616	18740.202077
612.112594	18673.668929
612.461518	18643.396800
612.810389	18830.602569
613.159207	18686.659982
613.507971	18612.507130
613.856682	18856.632567
614.205340	18773.393034
614.553945	18937.331357
614.902496	18680.721503
615.250994	18887.973420
615.599439	18833.670111
615.947830	18821.790632
616.296169	18908.261544
616.644454	18872.166882
616.992686	18833.564247
617.340864	19058.787877
617.688990	18803.710533
618.037063	18972.790833
618.385082	18832.316561
618.733048	19101.899825
619.080961	19000.885184
619.428821	19015.736423
619.776628	18890.917454
620.124382	18831.454524
620.472083	18882.168531
620.819731	18883.239777
621.167326	18581.766174
621.514868	18616.716493
621.862357	18408.413496
622.209793	18403.450480
622.557176	18240.502743
622.904506	18071.538390
623.251783	18013.660903
623.599007	17746.749451
623.946179	17683.361982
624.293297	17614.842619
624.640363	17342.055702
624.987376	17373.825054
625.334336	17175.163263
625.681243	17026.285387
626.028097	17040.231739
626.374899	16947.779498
626.721647	16816.301165
627.068343	16659.085220
627.414987	16598.372084
627.761577	16561.831280
628.108115	16590.091989
628.454600	16312.115204
628.801032	16419.799291
629.147412	16354.738160
629.493739	16360.434663
629.840014	16172.928946
630.186236	16265.920591
630.532405	16038.062957
630.878521	16233.011938
631.224585	16145.810059
631.570597	15958.173272
631.916556	15991.379352
632.262462	15960.807275
632.608316	15879.059924
632.954117	15823.455997
633.299866	15811.455530
633.645562	15717.949688
633.991206	15498.062119
634.336797	15367.750813
634.682336	15330.395863
635.027823	15193.941910
635.373257	15068.076902
635.718639	14978.639271
636.063968	14918.720116
