Dividing Wavelength (nm)	Counts (n)	Blue Motor Position (mm): 19.300000	Red Motor Position (mm): 0.000000	
326.493990	2182.890192
326.888308	2182.890192
327.282561	2182.890192
327.676750	2141.267905
328.070874	2140.836886
328.464933	2140.791516
328.858929	2144.123718
329.252859	2147.690335
329.646726	2155.506644
330.040528	2170.582214
330.434265	2183.210305
330.827938	2200.181349
331.221547	2217.341437
331.615091	2233.946998
332.008571	2254.303177
332.401986	2271.922010
332.795338	2292.197530
333.188625	2311.752166
333.581847	2327.956955
333.975006	2343.556806
334.368100	2366.305013
334.761129	2382.172044
335.154095	2399.344735
335.546996	2423.398600
335.939833	2454.847839
336.332606	2466.079529
336.725315	2483.098465
337.117960	2495.552635
337.510540	2505.844151
337.903056	2518.144566
338.295508	2526.868283
338.687896	2536.045704
339.080220	2541.906045
339.472480	2549.770245
339.864676	2554.985319
340.256807	2558.161246
340.648875	2563.824982
341.040879	2568.241033
341.432818	2571.048955
341.824694	2569.506362
342.216506	2572.538616
342.608253	2573.781261
342.999937	2575.008782
343.391557	2572.891497
343.783113	2574.353432
344.174605	2572.866291
344.566033	2573.380489
344.957397	2571.628688
345.348697	2567.361351
345.739934	2566.973182
346.131106	2567.494942
346.522215	2565.619633
346.913260	2561.148129
347.304241	2559.413972
347.695159	2558.030176
348.086012	2558.108313
348.476802	2553.551110
348.867528	2550.629762
349.258191	2544.013247
349.648789	2548.668753
350.039324	2540.280273
350.429796	2547.854607
350.820203	2546.611962
351.210548	2547.995759
351.600828	2541.162475
351.991045	2542.889070
352.381198	2541.606096
352.771288	2540.040818
353.161314	2542.677342
353.551276	2538.576363
353.941175	2538.442772
354.331010	2538.473019
354.720782	2541.195242
355.110490	2537.396733
355.500135	2537.497556
355.889717	2536.421270
356.279235	2541.278421
356.668689	2541.139790
357.058080	2539.879501
357.447408	2540.670962
357.836672	2540.111394
358.225873	2539.534182
358.615010	2539.173740
359.004084	2541.215407
359.393095	2542.400078
359.782043	2545.018958
360.170927	2546.727909
360.559748	2540.764224
360.948505	2544.514842
361.337199	2544.842517
361.725830	2544.381252
362.114398	2547.461397
362.502903	2545.001313
362.891344	2547.123639
363.279722	2548.104144
363.668037	2546.264122
364.056289	2549.606407
364.444478	2546.866540
364.832603	2547.214380
365.220665	2550.236552
365.608665	2547.204298
365.996601	2547.801674
366.384474	2549.503064
366.772284	2549.036757
367.160031	2551.726213
367.547715	2551.227138
367.935336	2552.333672
368.322893	2547.897456
368.710388	2549.661860
369.097820	2552.142108
369.485189	2548.363763
369.872495	2553.294012
370.259738	2550.675132
370.646918	2552.928528
371.034035	2554.103117
371.421090	2553.203271
371.808081	2552.137067
372.195010	2554.007335
372.581875	2555.716286
372.968678	2555.968344
373.355418	2557.430278
373.742096	2552.936090
374.128710	2554.892057
374.515262	2554.188816
374.901751	2554.708055
375.288177	2555.433981
375.674540	2555.227294
376.060841	2555.980947
376.447079	2557.674774
376.833254	2556.341389
377.219367	2556.316183
377.605417	2559.257697
377.991404	2557.596636
378.377329	2558.196534
378.763191	2559.383725
379.148991	2556.452294
379.534727	2558.372974
379.920402	2559.320711
380.306013	2558.133519
380.691563	2558.410783
381.077049	2559.744168
381.462474	2561.299364
381.847835	2558.138560
382.233134	2559.703839
382.618371	2561.291802
383.003545	2561.395146
383.388657	2562.521844
383.773706	2560.676781
384.158693	2560.296174
384.543618	2562.078222
384.928480	2562.073181
385.313280	2562.584858
385.698017	2563.696432
386.082692	2561.339693
386.467305	2563.547718
386.851856	2564.066957
387.236344	2562.594940
387.620770	2559.550083
388.005133	2558.783828
388.389435	2562.179045
388.773674	2559.345917
389.157851	2563.136864
389.541965	2566.698440
389.926018	2564.177863
390.310008	2561.778273
390.693936	2564.939077
391.077802	2565.657441
391.461606	2565.826320
391.845348	2567.469736
392.229027	2568.654407
392.612645	2566.521999
392.996200	2567.948646
393.379694	2566.234653
393.763125	2568.588872
394.146494	2565.533933
394.529801	2568.041907
394.913047	2566.945456
395.296230	2567.285734
395.679351	2568.871177
396.062410	2569.062741
396.445408	2569.309757
396.828343	2570.547361
397.211217	2569.781105
397.594028	2568.833368
397.976778	2570.002916
398.359466	2571.792526
398.742092	2568.394788
399.124656	2567.999057
399.507158	2568.803121
399.889598	2569.662638
400.271977	2571.366548
400.654294	2568.989644
401.036549	2567.817576
401.418742	2573.186405
401.800874	2570.963256
402.182944	2571.956363
402.564952	2572.339491
402.946898	2571.711867
403.328783	2572.001733
403.710606	2572.200859
404.092367	2576.506004
404.474067	2574.446693
404.855705	2572.589028
405.237282	2575.638926
405.618797	2572.241188
406.000250	2570.829665
406.381642	2573.332598
406.762972	2571.946281
407.144240	2568.956877
407.525447	2571.616085
407.906593	2571.502659
408.287677	2574.257650
408.668700	2576.367373
409.049661	2576.916858
409.430560	2573.287228
409.811399	2575.964080
410.192176	2578.093968
410.572891	2574.602969
410.953545	2577.385686
411.334138	2577.473906
411.714669	2572.682289
412.095139	2578.598083
412.475547	2576.836200
412.855894	2578.898032
413.236180	2576.236303
413.616405	2576.160685
413.996568	2577.267219
414.376670	2576.543813
414.756711	2576.480799
415.136691	2579.182857
415.516609	2577.993145
415.896466	2579.626479
416.276262	2577.859554
416.655997	2576.027095
417.035670	2578.870306
417.415283	2580.954823
417.794834	2577.831828
418.174324	2579.669328
418.553753	2578.083886
418.933121	2578.807291
419.312428	2578.328382
419.691674	2580.848958
420.070859	2579.981880
420.449983	2581.733681
420.829045	2579.233269
421.208047	2581.237127
421.586988	2581.063207
421.965867	2578.943402
422.344686	2580.488516
422.723444	2582.694021
423.102141	2581.118660
423.480777	2581.791654
423.859352	2579.218145
424.237866	2582.502457
424.616319	2581.612693
424.994712	2582.487333
425.373044	2582.663774
425.751314	2578.822415
426.129524	2580.299473
426.507673	2579.258474
426.885762	2578.512384
427.263789	2582.978846
427.641756	2581.942889
428.019662	2585.706110
428.397508	2583.611511
428.775292	2581.824422
429.153016	2583.850966
429.530679	2583.324165
429.908282	2585.416244
430.285824	2583.987077
430.663305	2582.867941
431.040726	2585.141501
431.418086	2586.689135
431.795385	2585.499423
432.172624	2585.539752
432.549802	2588.146029
432.926920	2583.881212
433.303977	2586.467324
433.680974	2586.747108
434.057910	2584.395410
434.434786	2586.051429
434.811601	2586.406831
435.188355	2587.263827
435.565050	2584.259299
435.941683	2589.058477
436.318257	2591.168200
436.694770	2587.006728
437.071222	2587.853642
437.447614	2588.072932
437.823946	2588.324990
438.200218	2586.941193
438.576429	2590.956472
438.952580	2587.137798
439.328670	2587.858683
439.704700	2590.820361
440.080670	2587.740216
440.456580	2589.923035
440.832429	2588.839187
441.208218	2589.222315
441.583947	2590.235587
441.959616	2589.391194
442.335224	2589.933118
442.710773	2588.902202
443.086261	2588.453539
443.461689	2589.988570
443.837057	2590.333889
444.212365	2589.655854
444.587612	2588.871955
444.962800	2587.689804
445.337927	2586.202664
445.712995	2586.177458
446.088002	2590.086873
446.462949	2592.615012
446.837837	2591.677357
447.212664	2592.819178
447.587431	2589.005545
447.962139	2592.786411
448.336786	2596.010229
448.711374	2597.073912
449.085901	2593.235073
449.460369	2593.325814
449.834776	2591.758015
450.209124	2593.373705
450.583412	2595.518716
450.957640	2597.673809
451.331808	2596.169025
451.705917	2594.142481
452.079965	2595.402770
452.453954	2596.000146
452.827883	2594.543253
453.201752	2596.897472
453.575562	2596.955445
453.949311	2594.765064
454.323001	2594.674323
454.696632	2600.721187
455.070202	2594.661720
455.443713	2597.661207
455.817164	2595.861515
456.190556	2598.044334
456.563888	2600.665734
456.937160	2600.345621
457.310373	2599.264293
457.683526	2598.152719
458.056619	2598.959304
458.429653	2599.720518
458.802628	2596.940322
459.175542	2598.984509
459.548398	2602.916609
459.921194	2602.551126
460.293930	2600.708584
460.666607	2602.704881
461.039224	2603.849223
461.411782	2605.275869
461.784280	2602.009202
462.156719	2604.970880
462.529099	2606.780654
462.901419	2602.697319
463.273680	2600.607761
463.645882	2599.503748
464.018024	2599.430652
464.390106	2599.632298
464.762130	2603.216558
465.134094	2603.219079
465.505999	2606.367279
465.877845	2611.194184
466.249631	2610.430449
466.621358	2613.472786
466.993026	2613.755090
467.364634	2616.071500
467.736184	2611.090840
468.107674	2608.721498
468.479105	2611.000100
468.850477	2610.813577
469.221790	2612.439349
469.593043	2609.835593
469.964238	2612.018413
470.335373	2611.819287
470.706449	2610.357352
471.077467	2611.345419
471.448425	2612.424226
471.819324	2615.791716
472.190164	2621.183230
472.560945	2618.115688
472.931667	2615.096037
473.302330	2615.343054
473.672934	2613.717282
474.043479	2613.588732
474.413965	2614.314658
474.784393	2611.683176
475.154761	2616.565533
475.525070	2617.014196
475.895321	2614.365070
476.265513	2617.843466
476.635645	2616.051336
477.005719	2620.180041
477.375734	2620.782459
477.745691	2620.180041
478.115588	2624.147429
478.485427	2623.214815
478.855207	2626.267234
479.224928	2628.954169
479.594591	2635.323667
479.964194	2632.989613
480.333739	2636.284007
480.703226	2633.498769
481.072653	2636.886425
481.442022	2635.800056
481.811333	2640.211066
482.180584	2636.800725
482.549777	2640.778195
482.918912	2638.224851
483.287988	2641.859523
483.657005	2642.051087
484.025964	2643.913793
484.394864	2646.134421
484.763706	2647.810605
485.132489	2644.531334
485.501213	2650.079124
485.869879	2649.262457
486.238487	2648.496202
486.607036	2649.683394
486.975527	2653.509629
487.343959	2657.784528
487.712333	2656.486431
488.080648	2662.513130
488.448905	2662.298881
488.817104	2666.760302
489.185244	2670.561332
489.553326	2674.160716
489.921350	2679.335461
490.289315	2690.720907
490.657222	2704.092567
491.025070	2709.826880
491.392861	2712.617158
491.760593	2715.183106
492.128267	2714.608414
492.495883	2717.373487
492.863440	2717.905329
493.230939	2720.526729
493.598380	2730.614077
493.965763	2732.653224
494.333088	2740.010788
494.700354	2745.535893
495.067563	2753.329517
495.434713	2761.581886
495.801805	2776.528907
496.168839	2782.923610
496.535815	2792.741257
496.902733	2808.159627
497.269593	2817.498364
497.636395	2833.652742
498.003139	2850.543127
498.369825	2862.553677
498.736453	2880.195194
499.103023	2897.052813
499.469535	2917.978643
499.835989	2940.424380
500.202385	2958.998511
500.568723	2972.397898
500.935003	3004.240347
501.301226	3020.810619
501.667390	3070.740727
502.033497	3107.294134
502.399546	3127.471352
502.765537	3146.889877
503.131470	3191.778831
503.497345	3226.096486
503.863163	3242.671800
504.228923	3299.851088
504.594625	3348.102492
504.960269	3366.530429
505.325856	3429.504523
505.691385	3461.546097
506.056856	3526.783669
506.422270	3581.601176
506.787625	3610.512193
507.152924	3690.200233
507.518164	3738.577666
507.883347	3780.741876
508.248472	3820.035150
508.613540	3928.092283
508.978550	3995.926049
509.343503	4061.115730
509.708398	4148.138648
510.073236	4220.794278
510.438016	4307.544974
510.802738	4363.065722
511.167403	4459.717244
511.532010	4508.545860
511.896561	4659.790558
512.261053	4760.543058
512.625488	4817.185463
512.989866	4887.446545
513.354186	4954.229230
513.718449	5073.621398
514.082655	5189.610786
514.446803	5274.261841
514.810894	5424.760448
515.174927	5462.254030
515.538904	5569.754115
515.902822	5730.914762
516.266684	5820.324667
516.630488	5898.460031
516.994235	6011.497824
517.357925	6159.732953
517.721558	6311.655685
518.085133	6443.766684
518.448651	6545.592950
518.812112	6635.043184
519.175516	6760.502380
519.538863	6935.095182
519.902152	7007.392889
520.265385	7196.902465
520.628560	7280.857842
520.991678	7431.061541
521.354739	7576.879437
521.717743	7735.189311
522.080690	7809.541289
522.443580	8045.232876
522.806413	8159.331831
523.169189	8353.708641
523.531908	8470.676013
523.894569	8555.826143
524.257174	8717.876554
524.619722	8903.406139
524.982213	8956.933111
525.344647	9153.361670
525.707025	9313.549375
526.069345	9481.437442
526.431608	9634.396132
526.793815	9846.666518
527.155964	9803.093304
527.518057	10023.641264
527.880093	10166.575620
528.242072	10351.533034
528.603995	10416.838662
528.965860	10512.938177
529.327669	10741.060471
529.689421	10847.441420
530.051117	10949.043355
530.412755	11215.806093
530.774337	11257.924934
531.135862	11381.166022
531.497331	11607.312183
531.858743	11589.327867
532.220098	11972.614356
532.581396	11942.228801
532.942638	12150.741006
533.303824	12302.799850
533.664953	12478.247128
534.026025	12529.074561
534.387040	12763.064758
534.747999	13010.361081
535.108902	13200.846120
535.469748	13147.946772
535.830537	13412.990477
536.191270	13585.841560
536.551947	13749.139656
536.912567	13689.666644
537.273131	13999.523686
537.633638	14004.055683
537.994089	14307.328978
538.354483	14203.894583
538.714821	14618.300114
539.075103	14829.920191
539.435328	14856.663512
539.795497	14758.746661
540.155609	15152.957330
540.515665	15459.734226
540.875665	15172.108673
541.235609	15472.289220
541.595496	15638.191072
541.955328	15975.598020
542.315102	16076.247177
542.674821	15982.776623
543.034483	16050.350770
543.394090	16261.033192
543.753640	16288.469672
544.113134	16815.698747
544.472571	16738.138074
544.831953	17091.177640
545.191278	16937.077128
545.550548	17073.062253
545.909761	17285.889687
546.268918	17624.637581
546.628019	17718.334987
546.987064	17705.359057
547.346053	17672.193306
547.704986	17871.414665
548.063863	18125.438407
548.422684	18198.330971
548.781449	18067.568481
549.140158	18465.645715
549.498811	18324.306885
549.857408	18213.013332
550.215949	18677.411986
550.574434	18537.363691
550.932864	18828.656683
551.291237	19030.156644
551.649555	19088.971786
552.007817	19238.111802
552.366022	19254.485469
552.724173	19373.532317
553.082267	19439.820970
553.440305	19916.852755
553.798288	19462.758220
554.156215	19969.474840
554.514086	20140.044801
554.871902	19738.930272
555.229661	20057.397604
555.587365	20065.511341
555.945014	20000.782926
556.302606	20341.401088
556.660143	20347.954588
557.017625	20671.054741
557.375050	20382.249558
557.732421	20787.306269
558.089735	20726.222608
558.446994	20840.707212
558.804197	20954.475972
559.161345	21027.166890
559.518437	20842.242243
559.875474	21134.601440
560.232455	21340.053665
560.589381	21297.622273
560.946251	21320.393165
561.303065	21682.012775
561.659825	21829.332934
562.016528	21551.270450
562.373177	21408.580590
562.729770	21750.297724
563.086307	21735.146536
563.442789	21958.298252
563.799216	21844.882373
564.155587	21907.685068
564.511904	21965.922998
564.868164	21931.353285
565.224370	22003.134275
565.580520	21942.428700
565.936615	22133.571610
566.292654	21858.826205
566.648638	22230.984346
567.004567	22099.201023
567.360441	22097.592895
567.716260	21892.420454
568.072023	22263.371239
568.427732	22056.381462
568.783385	21895.898850
569.138982	22145.498980
569.494525	22223.921690
569.850013	22036.700797
570.205445	22163.029592
570.560823	21996.767297
570.916145	21804.926188
571.271412	21998.037668
571.626625	21798.637348
571.981782	21928.066453
572.336884	21777.010798
572.691931	21927.285074
573.046923	21696.586750
573.401860	21624.823405
573.756743	21632.203654
574.111570	21575.624264
574.466342	21551.739277
574.821059	21656.585195
575.175722	21378.704192
575.530330	21389.419164
575.884882	21444.256836
576.239380	21360.089731
576.593823	21277.102257
576.948211	21265.880648
577.302544	21121.872527
577.656823	21027.799555
578.011047	21139.844240
578.365216	21032.691995
578.719330	20919.283677
579.073389	20833.949545
579.427394	20998.419710
579.781344	20790.308277
580.135239	20695.022907
580.489080	20675.619506
580.842866	20448.346647
581.196597	20636.391767
581.550273	20635.779267
581.903895	20552.441432
582.257463	20854.434274
582.610975	20396.470653
582.964434	20687.481341
583.317837	20429.154974
583.671186	20522.128974
584.024481	20481.797223
584.377721	20283.798344
584.730906	20324.167904
585.084037	20381.458097
585.437113	20272.372569
585.790135	20474.316151
586.143103	19964.600044
586.496016	19976.529935
586.848874	20228.388501
587.201679	20179.585091
587.554428	19848.315748
587.907124	20172.325829
588.259765	19956.965217
588.612352	20046.995183
588.964884	19609.047463
589.317362	19790.309712
589.669786	19841.427012
590.022155	19905.613503
590.374470	20072.931920
590.726731	19896.161339
591.078937	19633.406319
591.431090	19752.543907
591.783188	19494.620833
592.135232	19463.723601
592.487222	19573.766948
592.839157	19600.268294
593.191038	19482.645572
593.542866	19372.163644
593.894639	19100.604248
594.246358	19325.054061
594.598022	19238.081555
594.949633	18984.884562
595.301190	18944.880485
595.652692	19109.890053
596.004141	19340.550568
596.355535	18685.563531
596.706876	18697.115335
597.058162	18581.491431
597.409395	18799.087795
597.760573	18899.164782
598.111698	18685.737451
598.462768	18624.293348
598.813785	18586.663655
599.164748	18418.755423
599.515657	18433.646991
599.866511	18232.943533
600.217312	18594.192618
600.568060	18126.900342
600.918753	18427.506866
601.269392	18332.329881
601.619978	18102.879243
601.970510	18329.998348
602.320988	18273.393752
602.671412	18484.232450
603.021783	18379.976347
603.372100	18122.761554
603.722363	18244.316376
604.072572	18183.285647
604.422728	18319.195155
604.772830	18089.482377
605.122878	18024.869908
605.472872	18032.151855
605.822813	18024.343108
606.172701	17977.392321
606.522534	18179.237601
606.872314	18203.871199
607.222041	18049.044762
607.571714	18260.932019
607.921333	18075.682218
608.270899	18155.924785
608.620411	18354.155557
608.969870	18098.906814
609.319276	18114.857025
609.668627	18139.092372
610.017926	18285.308519
610.367171	18390.330877
610.716362	18427.726156
611.065500	18258.618130
611.414585	18383.663951
611.763616	18371.315645
612.112594	18319.810176
612.461518	18291.191545
612.810389	18481.714393
613.159207	18334.096806
613.507971	18240.485099
613.856682	18523.180404
614.205340	18471.558989
614.553945	18590.522658
614.902496	18335.294080
615.250994	18588.254139
615.599439	18527.881280
615.947830	18508.538373
616.296169	18547.158653
616.644454	18521.108490
616.992686	18490.375096
617.340864	18710.481955
617.688990	18462.661352
618.037063	18645.075504
618.385082	18482.798241
618.733048	18766.378269
619.080961	18632.333988
619.428821	18667.866561
619.776628	18568.946519
620.124382	18484.532398
620.472083	18523.087143
620.819731	18546.344506
621.167326	18235.912773
621.514868	18289.636349
621.862357	18037.903812
622.209793	18049.932005
622.557176	17896.411226
622.904506	17722.551912
623.251783	17622.704298
623.599007	17396.840442
623.946179	17334.652768
624.293297	17291.694575
624.640363	17051.072740
624.987376	17055.715643
625.334336	16850.979262
625.681243	16700.074842
626.028097	16698.247424
626.374899	16643.629042
626.721647	16513.516862
627.068343	16330.507854
627.414987	16271.488545
627.761577	16241.745737
628.108115	16294.982843
628.454600	16011.720408
628.801032	16111.996520
629.147412	16031.529622
629.493739	16061.237142
629.840014	15869.998450
630.186236	15981.959956
630.532405	15731.946452
630.878521	15933.403562
631.224585	15818.336705
631.570597	15651.988711
631.916556	15681.847465
632.262462	15663.192675
632.608316	15580.658904
632.954117	15516.724471
633.299866	15522.884761
633.645562	15451.650736
633.991206	15197.170769
634.336797	15066.269648
634.682336	15038.228230
635.027823	14924.388894
635.373257	14811.204907
635.718639	14704.007292
636.063968	14655.448377
636.409245	14410.652467
636.754470	14440.145738
637.099642	14284.016162
637.444762	14055.379670
637.789829	14109.700623
638.134845	13941.111836
638.479808	13967.935816
638.824719	13921.471501
639.169577	13760.731790
639.514383	13820.366119
639.859137	13629.845792
