Dividing Wavelength (nm)	Counts (n)	Blue Motor Position (mm): 18.100000	Red Motor Position (mm): 0.000000	
326.493990	2177.332319
326.888308	2177.332319
327.282561	2177.332319
327.676750	2141.353604
328.070874	2138.281021
328.464933	2136.758593
328.858929	2141.628347
329.252859	2146.566158
329.646726	2153.926242
330.040528	2166.808911
330.434265	2180.465397
330.827938	2196.763447
331.221547	2214.105016
331.615091	2232.832903
332.008571	2247.671539
332.401986	2267.231216
332.795338	2287.163938
333.188625	2305.891825
333.581847	2324.775987
333.975006	2339.697803
334.368100	2361.087418
334.761129	2375.527803
335.154095	2394.709394
335.546996	2423.716193
335.939833	2446.703855
336.332606	2463.853860
336.725315	2473.558081
337.117960	2488.784886
337.510540	2499.114211
337.903056	2510.834893
338.295508	2517.388393
338.687896	2532.670651
339.080220	2535.471012
339.472480	2543.582229
339.864676	2548.247817
340.256807	2554.231666
340.648875	2556.447253
341.040879	2561.453119
341.432818	2561.427913
341.824694	2565.987637
342.216506	2567.232802
342.608253	2567.066444
342.999937	2567.147102
343.391557	2568.898903
343.783113	2570.476784
344.174605	2566.932853
344.566033	2569.219017
344.957397	2564.969324
345.348697	2565.029818
345.739934	2562.259704
346.131106	2561.836247
346.522215	2559.844991
346.913260	2555.920453
347.304241	2553.125133
347.695159	2553.117571
348.086012	2550.743188
348.476802	2549.891233
348.867528	2546.591797
349.258191	2544.214893
349.648789	2545.936447
350.039324	2539.191384
350.429796	2542.442928
350.820203	2539.750952
351.210548	2537.235416
351.600828	2538.609130
351.991045	2539.055273
352.381198	2538.092412
352.771288	2535.758358
353.161314	2533.353727
353.551276	2537.547967
353.941175	2534.135106
354.331010	2533.147040
354.720782	2533.212575
355.110490	2536.322967
355.500135	2534.261135
355.889717	2532.801721
356.279235	2532.950435
356.668689	2535.367668
357.058080	2532.819365
357.447408	2535.450848
357.836672	2533.326001
358.225873	2536.766589
358.615010	2536.779192
359.004084	2532.894983
359.393095	2536.834644
359.782043	2537.132072
360.170927	2535.617206
360.559748	2536.093595
360.948505	2538.659542
361.337199	2535.753317
361.725830	2539.894625
362.114398	2538.578883
362.502903	2539.017464
362.891344	2542.405119
363.279722	2537.802546
363.668037	2541.109543
364.056289	2541.669111
364.444478	2542.861344
364.832603	2541.079296
365.220665	2544.247661
365.608665	2543.264636
365.996601	2543.292362
366.384474	2545.465100
366.772284	2543.781354
367.160031	2545.371838
367.547715	2547.025337
367.935336	2546.879143
368.322893	2546.715306
368.710388	2542.006868
369.097820	2543.307486
369.485189	2543.196580
369.872495	2546.024668
370.259738	2551.156562
370.646918	2547.491643
371.034035	2550.352498
371.421090	2548.404092
371.808081	2547.920142
372.195010	2549.371994
372.581875	2550.208825
372.968678	2548.356201
373.355418	2551.106151
373.742096	2550.009700
374.128710	2548.530121
374.515262	2551.474155
374.901751	2552.701676
375.288177	2548.729247
375.674540	2551.441388
376.060841	2550.599515
376.447079	2552.636141
376.833254	2551.587581
377.219367	2552.479865
377.605417	2554.894578
377.991404	2552.411810
378.377329	2550.697817
378.763191	2553.339382
379.148991	2553.858621
379.534727	2551.885009
379.920402	2552.603373
380.306013	2553.445246
380.691563	2556.548076
381.077049	2556.787531
381.462474	2552.545400
381.847835	2553.006666
382.233134	2553.457849
382.618371	2554.612273
383.003545	2554.090514
383.388657	2554.861810
383.773706	2557.944476
384.158693	2556.381718
384.543618	2556.419527
384.928480	2557.699980
385.313280	2555.996070
385.698017	2557.775597
386.082692	2556.449774
386.467305	2558.685526
386.851856	2561.402707
387.236344	2559.033365
387.620770	2556.041440
388.005133	2554.899619
388.389435	2557.876420
388.773674	2554.120761
389.157851	2556.963972
389.541965	2558.728375
389.926018	2561.473284
390.310008	2557.531101
390.693936	2559.693756
391.077802	2557.427758
391.461606	2563.134344
391.845348	2560.601164
392.229027	2559.776935
392.612645	2559.724003
392.996200	2560.023952
393.379694	2559.361040
393.763125	2562.133675
394.146494	2560.820454
394.529801	2561.823644
394.913047	2559.350958
395.296230	2563.182235
395.679351	2561.695094
396.062410	2563.661144
396.445408	2562.035372
396.828343	2565.591906
397.211217	2563.880435
397.594028	2561.569066
397.976778	2562.216854
398.359466	2564.765157
398.742092	2563.514951
399.124656	2565.148285
399.507158	2565.097873
399.889598	2565.919581
400.271977	2565.105435
400.654294	2564.853377
401.036549	2565.249108
401.418742	2565.052503
401.800874	2564.089643
402.182944	2566.169118
402.564952	2568.125086
402.946898	2565.884293
403.328783	2563.986299
403.710606	2564.296330
404.092367	2565.813717
404.474067	2567.454613
404.855705	2566.660631
405.237282	2566.224571
405.618797	2567.139541
406.000250	2568.732545
406.381642	2569.387895
406.762972	2564.271124
407.144240	2566.713563
407.525447	2566.499314
407.906593	2561.460681
408.287677	2571.416960
408.668700	2567.653738
409.049661	2571.979048
409.430560	2566.869839
409.811399	2571.177505
410.192176	2570.527196
410.572891	2571.611044
410.953545	2570.688513
411.334138	2568.997206
411.714669	2572.702454
412.095139	2569.266907
412.475547	2571.028791
412.855894	2569.642473
413.236180	2569.198852
413.616405	2572.634398
413.996568	2572.064748
414.376670	2572.621795
414.756711	2573.350242
415.136691	2573.211610
415.516609	2571.590879
415.896466	2574.623133
416.276262	2574.192115
416.655997	2573.650191
417.035670	2570.827145
417.415283	2576.753021
417.794834	2571.210272
418.174324	2575.097002
418.553753	2574.416446
418.933121	2575.583473
419.312428	2575.147413
419.691674	2575.699420
420.070859	2572.881415
420.449983	2573.105746
420.829045	2571.487536
421.208047	2573.947619
421.586988	2572.014336
421.965867	2576.253947
422.344686	2574.827300
422.723444	2576.952147
423.102141	2578.953485
423.480777	2576.944585
423.859352	2574.479461
424.237866	2576.551375
424.616319	2577.110943
424.994712	2579.182857
425.373044	2574.976014
425.751314	2572.843606
426.129524	2572.405026
426.507673	2573.917372
426.885762	2572.881415
427.263789	2576.894173
427.641756	2575.591035
428.019662	2578.406519
428.397508	2574.799574
428.775292	2577.400809
429.153016	2578.774524
429.530679	2576.248906
429.908282	2578.507343
430.285824	2577.055490
430.663305	2579.621437
431.040726	2577.030284
431.418086	2580.443146
431.795385	2578.630851
432.172624	2578.945923
432.549802	2577.282342
432.926920	2578.686303
433.303977	2578.414081
433.680974	2579.797878
434.057910	2578.482137
434.434786	2578.421643
434.811601	2579.669328
435.188355	2579.364339
435.565050	2580.579257
435.941683	2578.535069
436.318257	2580.143197
436.694770	2580.412899
437.071222	2581.796695
437.447614	2580.536407
437.823946	2581.466500
438.200218	2581.703434
438.576429	2582.250399
438.952580	2580.712847
439.328670	2581.146387
439.704700	2581.176633
440.080670	2582.091603
440.456580	2580.919535
440.832429	2586.288363
441.208218	2580.843917
441.583947	2585.388517
441.959616	2582.552868
442.335224	2582.812488
442.710773	2583.160327
443.086261	2585.847262
443.461689	2581.826942
443.837057	2584.191243
444.212365	2583.964392
444.587612	2580.740574
444.962800	2583.702252
445.337927	2582.194947
445.712995	2580.097827
446.088002	2585.471697
446.462949	2585.116295
446.837837	2586.928590
447.212664	2586.260637
447.587431	2586.618559
447.962139	2586.046388
448.336786	2585.277612
448.711374	2586.061512
449.085901	2586.328693
449.460369	2586.240472
449.834776	2585.307859
450.209124	2590.870772
450.583412	2588.554362
450.957640	2589.676019
451.331808	2589.703745
451.705917	2585.106213
452.079965	2588.836667
452.453954	2588.428333
452.827883	2587.364650
453.201752	2587.220977
453.575562	2589.408838
453.949311	2586.542942
454.323001	2586.812643
454.696632	2587.959506
455.070202	2589.847418
455.443713	2587.344485
455.817164	2588.314907
456.190556	2590.583427
456.563888	2592.347830
456.937160	2587.480596
457.310373	2592.519230
457.683526	2590.139805
458.056619	2593.419076
458.429653	2589.938159
458.802628	2588.430854
459.175542	2589.663416
459.548398	2588.821543
459.921194	2593.290526
460.293930	2590.570824
460.666607	2589.973447
461.039224	2593.719024
461.411782	2595.274220
461.784280	2592.859507
462.156719	2596.143819
462.529099	2597.399067
462.901419	2591.891606
463.273680	2593.771956
463.645882	2590.641400
464.018024	2591.568972
464.390106	2590.472521
464.762130	2598.016608
465.134094	2595.435537
465.505999	2596.083325
465.877845	2599.229005
466.249631	2600.670775
466.621358	2604.960797
466.993026	2604.300406
467.364634	2608.020778
467.736184	2602.155395
468.107674	2599.304623
468.479105	2600.272524
468.850477	2597.482246
469.221790	2601.477360
469.593043	2601.830241
469.964238	2600.426279
470.335373	2601.971393
470.706449	2601.132041
471.077467	2596.945363
471.448425	2602.205807
471.819324	2605.215376
472.190164	2607.073041
472.560945	2606.359717
472.931667	2605.187649
473.302330	2602.067175
473.672934	2601.527772
474.043479	2602.866198
474.413965	2602.205807
474.784393	2603.065323
475.154761	2601.779829
475.525070	2601.542895
475.895321	2602.982144
476.265513	2600.806887
476.635645	2605.011209
477.005719	2605.974069
477.375734	2607.683020
477.745691	2605.903493
478.115588	2604.703698
478.485427	2606.422732
478.855207	2608.769389
479.224928	2610.861468
479.594591	2614.062601
479.964194	2611.237034
480.333739	2612.577981
480.703226	2613.994545
481.072653	2614.395317
481.442022	2614.786006
481.811333	2615.000255
482.180584	2616.573095
482.549777	2615.539659
482.918912	2615.688373
483.287988	2618.660133
483.657005	2618.251799
484.025964	2619.083590
484.394864	2618.798765
484.763706	2617.992180
485.132489	2617.430091
485.501213	2618.975205
485.869879	2619.766666
486.238487	2619.454115
486.607036	2618.002262
486.975527	2619.365894
487.343959	2619.305401
487.712333	2620.404372
488.080648	2620.691718
488.448905	2620.767335
488.817104	2623.953344
489.185244	2624.336472
489.553326	2625.090125
489.921350	2627.139354
490.289315	2631.018522
490.657222	2637.201497
491.025070	2635.926085
491.392861	2636.836013
491.760593	2636.841054
492.128267	2637.100674
492.495883	2634.701084
492.863440	2631.948614
493.230939	2635.076650
493.598380	2636.427680
493.965763	2633.897020
494.333088	2636.893986
494.700354	2635.001033
495.067563	2639.081847
495.434713	2638.517238
495.801805	2641.859523
496.168839	2641.705768
496.535815	2643.107208
496.902733	2642.961015
497.269593	2645.380769
497.636395	2647.329175
498.003139	2649.610297
498.369825	2648.634834
498.736453	2653.186996
499.103023	2656.511637
499.469535	2659.748057
499.835989	2660.622697
500.202385	2662.757626
500.568723	2660.935249
500.935003	2668.754079
501.301226	2666.601506
501.667390	2680.162210
502.033497	2684.991635
502.399546	2687.769311
502.765537	2688.069260
503.131470	2693.990095
503.497345	2702.965869
503.863163	2704.868905
504.228923	2711.412322
504.594625	2721.408931
504.960269	2723.621997
505.325856	2729.920919
505.691385	2733.890827
506.056856	2746.309710
506.422270	2753.001842
506.787625	2761.942328
507.152924	2771.949018
507.518164	2784.342695
507.883347	2788.710855
508.248472	2802.826086
508.613540	2816.666574
508.978550	2829.130827
509.343503	2844.725636
509.708398	2857.613346
510.073236	2879.098743
510.438016	2897.176321
510.802738	2906.510018
511.167403	2926.747730
511.532010	2944.747169
511.896561	2978.598518
512.261053	2995.065447
512.625488	3015.918179
512.989866	3032.662372
513.354186	3055.834036
513.718449	3084.772779
514.082655	3118.712347
514.446803	3142.183960
514.810894	3182.150227
515.174927	3197.467773
515.538904	3233.607805
515.902822	3276.059362
516.266684	3310.354332
516.630488	3337.500945
516.994235	3376.579970
517.357925	3423.626538
517.721558	3479.462358
518.085133	3518.135570
518.448651	3564.183989
518.812112	3596.986777
519.175516	3652.063904
519.538863	3710.765620
519.902152	3751.167947
520.265385	3819.505829
520.628560	3863.101727
520.991678	3926.723609
521.354739	3988.991942
521.717743	4051.275397
522.080690	4097.492696
522.443580	4191.215308
522.806413	4240.177514
523.169189	4330.061287
523.531908	4385.776120
523.894569	4437.372329
524.257174	4515.769833
524.619722	4602.044140
524.982213	4646.713805
525.344647	4735.783431
525.707025	4820.807532
526.069345	4908.097632
526.431608	4988.856916
526.793815	5099.469914
527.155964	5106.421665
527.518057	5216.833017
527.880093	5302.459535
528.242072	5388.196959
528.603995	5450.039314
528.965860	5516.890055
529.327669	5650.248739
529.689421	5715.950097
530.051117	5786.589265
530.412755	5932.669301
530.774337	5976.958358
531.135862	6062.219393
531.497331	6183.315470
531.858743	6222.391974
532.220098	6419.816162
532.581396	6427.014929
532.942638	6572.956333
533.303824	6666.142062
533.664953	6785.511544
534.026025	6857.965528
534.387040	6976.576316
534.747999	7141.185112
535.108902	7259.679954
535.469748	7284.028727
535.830537	7444.047553
536.191270	7561.014925
536.551947	7693.529216
536.912567	7697.857047
537.273131	7896.823827
537.633638	7938.204138
537.994089	8147.706931
538.354483	8137.627143
538.714821	8379.171509
539.075103	8545.053197
539.435328	8611.833362
539.795497	8615.876368
540.155609	8857.642544
540.515665	9056.654695
540.875665	8967.706056
541.235609	9165.528495
541.595496	9314.736567
541.955328	9536.811996
542.315102	9642.406525
542.674821	9662.440071
543.034483	9744.005940
543.394090	9888.891222
543.753640	9962.353437
544.113134	10291.923910
544.472571	10329.820784
544.831953	10584.777140
545.191278	10547.583507
545.550548	10680.498569
545.909761	10825.860241
546.268918	11089.220200
546.628019	11187.946157
546.987064	11280.950404
547.346053	11314.264869
547.704986	11466.086779
548.063863	11686.365038
548.422684	11757.558733
548.781449	11768.460228
549.140158	12048.889534
549.498811	12064.630537
549.857408	12039.576002
550.215949	12375.634441
550.574434	12352.772808
550.932864	12597.598966
551.291237	12782.745423
551.649555	12901.159606
552.007817	13056.512844
552.366022	13150.621104
552.724173	13273.063169
553.082267	13396.158064
553.440305	13751.375408
553.798288	13526.489535
554.156215	13913.781220
554.514086	14100.787863
554.871902	13906.164037
555.229661	14172.813349
555.587365	14268.854892
555.945014	14284.038847
556.302606	14592.204582
556.660143	14654.044416
557.017625	14949.506443
557.375050	14847.266802
557.732421	15155.787938
558.089735	15225.335696
558.446994	15346.925806
558.804197	15513.225910
559.161345	15632.393746
559.518437	15549.534820
559.875474	15870.769746
560.232455	16044.029163
560.589381	16116.596573
560.946251	16184.395051
561.303065	16531.612083
561.659825	16712.672686
562.016528	16580.987665
562.373177	16562.806743
562.729770	16864.398813
563.086307	16955.797453
563.442789	17171.026996
563.799216	17182.067123
564.155587	17267.880164
564.511904	17398.993014
564.868164	17432.456193
565.224370	17589.841017
565.580520	17586.667610
565.936615	17826.006471
566.292654	17674.048450
566.648638	18061.884580
567.004567	18004.506167
567.360441	18086.863498
567.716260	17971.925190
568.072023	18361.732411
568.427732	18259.989324
568.783385	18197.441207
569.138982	18461.106156
569.494525	18619.859653
569.850013	18534.790182
570.205445	18694.085602
570.560823	18605.585626
570.916145	18552.630825
571.271412	18733.018433
571.626625	18661.670983
571.981782	18818.269386
572.336884	18730.422239
572.691931	18935.365307
573.046923	18784.037431
573.401860	18809.550710
573.756743	18883.998470
574.111570	18886.118275
574.466342	18901.536644
574.821059	19073.137521
575.175722	18884.535353
575.530330	18973.496595
575.884882	19049.597853
576.239380	19058.558504
576.593823	19017.354633
576.948211	19066.856244
577.302544	18992.700871
577.656823	18953.004305
578.011047	19114.984139
578.365216	19059.400377
578.719330	19018.337658
579.073389	18976.561617
579.427394	19169.136214
579.781344	19009.102265
580.135239	18995.168515
580.489080	19012.852883
580.842866	18831.862857
581.196597	19063.670234
581.550273	19072.199867
581.903895	19066.427746
582.257463	19383.821312
582.610975	18997.860492
582.964434	19313.547628
583.317837	19102.013251
583.671186	19224.488083
584.024481	19234.585514
584.377721	19055.717814
584.730906	19146.098141
585.084037	19230.192149
585.437113	19166.537499
585.790135	19378.926352
586.143103	18945.553479
586.496016	18976.959868
586.848874	19256.383464
587.201679	19230.076202
587.554428	18934.750287
587.907124	19276.419530
588.259765	19103.202963
588.612352	19203.380772
588.964884	18830.859668
589.317362	19018.743471
589.669786	19087.991281
590.022155	19176.219035
590.374470	19358.391212
590.726731	19200.114104
591.078937	18976.881730
591.431090	19116.103276
591.783188	18878.059991
592.135232	18883.232215
592.487222	19006.062449
592.839157	19051.732782
593.191038	18969.524166
593.542866	18881.246000
593.894639	18633.198546
594.246358	18851.782977
594.598022	18794.951529
594.949633	18568.414678
595.301190	18549.787614
595.652692	18700.676911
596.004141	18971.316296
596.355535	18337.799533
596.706876	18349.736986
597.058162	18256.291637
597.409395	18480.055854
597.760573	18598.555737
598.111698	18401.643226
598.462768	18336.675356
598.813785	18302.675294
599.164748	18146.369278
599.515657	18181.864042
599.866511	17987.240215
600.217312	18357.888531
600.568060	17908.573010
600.918753	18220.416266
601.269392	18125.975290
601.619978	17909.377074
601.970510	18138.303432
602.320988	18084.423579
602.671412	18308.134863
603.021783	18207.493268
603.372100	17964.040825
603.722363	18094.316844
604.072572	18040.593267
604.422728	18174.549328
604.772830	17950.608671
605.122878	17899.549344
605.472872	17903.720899
605.822813	17898.742760
606.172701	17844.822578
606.522534	18066.819870
606.872314	18089.232840
607.222041	17930.131504
607.571714	18150.850863
607.921333	17979.549935
608.270899	18055.653714
608.620411	18257.060413
608.969870	18008.075304
609.319276	18022.465278
609.668627	18050.499134
610.017926	18183.232715
610.367171	18320.775557
610.716362	18347.450822
611.065500	18178.410852
611.414585	18311.948496
611.763616	18287.367830
612.112594	18237.241117
612.461518	18205.859934
612.810389	18415.322397
613.159207	18265.524511
613.507971	18168.184871
613.856682	18456.697667
614.205340	18405.305624
614.553945	18534.835552
614.902496	18281.595709
615.250994	18538.540800
615.599439	18472.297518
615.947830	18459.911403
616.296169	18489.200507
616.644454	18473.144432
616.992686	18446.678374
617.340864	18650.076329
617.688990	18409.641017
618.037063	18589.537112
618.385082	18436.359132
618.733048	18718.467143
619.080961	18581.854394
619.428821	18621.742524
619.776628	18518.653448
620.124382	18445.488662
620.472083	18465.943143
620.819731	18502.453700
621.167326	18189.962656
621.514868	18243.802179
621.862357	17996.944437
622.209793	18022.838323
622.557176	17850.103187
622.904506	17678.729162
623.251783	17582.216271
623.599007	17365.328189
623.946179	17311.163511
624.293297	17254.185870
624.640363	17013.672420
624.987376	17025.899739
625.334336	16814.572049
625.681243	16662.195612
626.028097	16666.475552
626.374899	16606.816017
626.721647	16476.965976
627.068343	16314.076213
627.414987	16237.231384
627.761577	16210.972014
628.108115	16268.834377
628.454600	15981.967518
628.801032	16081.805049
629.147412	16005.817217
629.493739	16034.415682
629.840014	15834.854046
630.186236	15947.387723
630.532405	15705.152719
630.878521	15905.450364
631.224585	15793.957685
631.570597	15614.429594
631.916556	15646.387989
632.262462	15627.077849
632.608316	15557.192333
632.954117	15497.978940
633.299866	15492.234545
633.645562	15413.584983
633.991206	15166.679350
634.336797	15036.846954
634.682336	15003.872766
635.027823	14904.224278
635.373257	14789.885868
635.718639	14679.968549
636.063968	14616.780207
636.409245	14391.861566
636.754470	14415.214711
637.099642	14262.044293
637.444762	14033.548953
637.789829	14082.848918
638.134845	13921.584927
638.479808	13942.142752
638.824719	13910.330551
639.169577	13749.739554
639.514383	13798.522799
639.859137	13614.561013
640.203839	13692.222509
