Dividing Wavelength (nm)	Counts (n)	Blue Motor Position (mm): 35.500000	Red Motor Position (mm): 0.000000	
326.493990	2228.031204
326.888308	2228.031204
327.282561	2228.031204
327.676750	2190.948476
328.070874	2186.043433
328.464933	2185.725841
328.858929	2190.499813
329.252859	2196.506348
329.646726	2202.505321
330.040528	2218.122816
330.434265	2230.329970
330.827938	2247.444687
331.221547	2265.895310
331.615091	2280.945675
332.008571	2301.107770
332.401986	2320.523774
332.795338	2335.518686
333.188625	2357.210771
333.581847	2377.365304
333.975006	2395.901627
334.368100	2413.699420
334.761129	2431.590475
335.154095	2451.079576
335.546996	2477.210397
335.939833	2514.593073
336.332606	2532.216947
336.725315	2543.025181
337.117960	2555.365926
337.510540	2569.546692
337.903056	2577.589853
338.295508	2590.364136
338.687896	2596.363109
339.080220	2603.309819
339.472480	2609.444904
339.864676	2614.954885
340.256807	2621.326903
340.648875	2622.897223
341.040879	2629.170939
341.432818	2629.019704
341.824694	2633.009777
342.216506	2635.190076
342.608253	2634.683440
342.999937	2634.030611
343.391557	2633.677730
343.783113	2636.349542
344.174605	2634.191928
344.566033	2633.710498
344.957397	2631.930970
345.348697	2631.913326
345.739934	2629.304529
346.131106	2626.819240
346.522215	2625.959724
346.913260	2626.095835
347.304241	2623.358488
347.695159	2620.527880
348.086012	2619.907818
348.476802	2616.868003
348.867528	2611.796602
349.258191	2611.284925
349.648789	2608.832403
350.039324	2606.594131
350.429796	2607.425922
350.820203	2608.222424
351.210548	2606.752927
351.600828	2605.719491
351.991045	2603.962649
352.381198	2601.212699
352.771288	2600.101125
353.161314	2604.111363
353.551276	2606.626899
353.941175	2603.024994
354.331010	2602.646908
354.720782	2602.893924
355.110490	2602.162957
355.500135	2598.949221
355.889717	2599.972576
356.279235	2599.387802
356.668689	2603.037597
357.058080	2599.649942
357.447408	2603.786208
357.836672	2600.481732
358.225873	2603.176229
358.615010	2598.981989
359.004084	2603.783688
359.393095	2603.826538
359.782043	2604.348297
360.170927	2605.275869
360.559748	2606.155551
360.948505	2607.002465
361.337199	2604.439038
361.725830	2606.455499
362.114398	2604.507093
362.502903	2607.224275
362.891344	2609.056735
363.279722	2607.327619
363.668037	2605.560695
364.056289	2609.691920
364.444478	2610.685027
364.832603	2611.058073
365.220665	2612.038577
365.608665	2611.705861
365.996601	2611.884822
366.384474	2611.741149
366.772284	2613.815584
367.160031	2613.540841
367.547715	2614.256685
367.935336	2613.656788
368.322893	2611.204266
368.710388	2611.105964
369.097820	2614.407920
369.485189	2614.390276
369.872495	2616.807509
370.259738	2617.132663
370.646918	2618.466048
371.034035	2615.146449
371.421090	2616.878085
371.808081	2617.198198
372.195010	2618.818929
372.581875	2620.512757
372.968678	2620.658950
373.355418	2615.474124
373.742096	2620.096862
374.128710	2619.839763
374.515262	2623.159363
374.901751	2621.919239
375.288177	2621.115175
375.674540	2621.553755
376.060841	2619.368415
376.447079	2621.750360
376.833254	2625.405197
377.219367	2621.994856
377.605417	2626.269755
377.991404	2623.144239
378.377329	2625.387553
378.763191	2625.450567
379.148991	2625.032151
379.534727	2628.011473
379.920402	2624.573406
380.306013	2625.284209
380.691563	2627.124230
381.077049	2626.375619
381.462474	2627.945938
381.847835	2630.290075
382.233134	2628.762605
382.618371	2630.532050
383.003545	2629.412914
383.388657	2629.357461
383.773706	2631.709160
384.158693	2633.329891
384.543618	2633.040024
384.928480	2632.969448
385.313280	2632.324180
385.698017	2632.369551
386.082692	2634.423821
386.467305	2636.228554
386.851856	2635.666465
387.236344	2635.608492
387.620770	2634.726290
388.005133	2634.781743
388.389435	2637.360293
388.773674	2634.728811
389.157851	2640.163175
389.541965	2640.085037
389.926018	2640.016981
390.310008	2640.102681
390.693936	2640.548823
391.077802	2640.455562
391.461606	2644.140645
391.845348	2641.231899
392.229027	2644.531334
392.612645	2644.881695
392.996200	2644.944709
393.379694	2647.407313
393.763125	2647.157776
394.146494	2648.617190
394.529801	2649.431336
394.913047	2648.755821
395.296230	2649.196922
395.679351	2648.808753
396.062410	2649.927890
396.445408	2650.459731
396.828343	2650.318579
397.211217	2652.466111
397.594028	2653.716317
397.976778	2654.714465
398.359466	2656.793941
398.742092	2654.686739
399.124656	2655.518529
399.507158	2658.759991
399.889598	2658.870897
400.271977	2661.126813
400.654294	2663.551608
401.036549	2666.407422
401.418742	2670.271466
401.800874	2675.337826
402.182944	2679.466531
402.564952	2688.444826
402.946898	2692.739889
403.328783	2702.870087
403.710606	2716.360215
404.092367	2736.013153
404.474067	2756.293715
404.855705	2773.690737
405.237282	2795.801238
405.618797	2835.843123
406.000250	2870.523741
406.381642	2923.102975
406.762972	2967.124851
407.144240	3017.637213
407.525447	3066.334759
407.906593	3128.056126
408.287677	3211.598128
408.668700	3265.606529
409.049661	3353.720858
409.430560	3428.438319
409.811399	3468.303764
410.192176	3603.315946
410.572891	3682.625899
410.953545	3822.722085
411.334138	3830.056964
411.714669	3964.325576
412.095139	3980.850478
412.475547	4144.630005
412.855894	4255.830297
413.236180	4418.588990
413.616405	4384.654463
413.996568	4563.756577
414.376670	4665.943286
414.756711	4708.969534
415.136691	4841.544318
415.516609	5033.826529
415.896466	5124.007730
416.276262	5319.417977
416.655997	5395.771293
417.035670	5604.462459
417.415283	5903.738119
417.794834	6030.530700
418.174324	6041.946393
418.553753	6085.965748
418.933121	6396.233644
419.312428	6548.267282
419.691674	6484.310163
420.070859	6918.514827
420.449983	6772.187774
420.829045	7129.376210
421.208047	7042.698610
421.586988	7353.168152
421.965867	7445.038140
422.344686	7619.882999
422.723444	7714.502937
423.102141	7249.796772
423.480777	7955.021428
423.859352	7590.944256
424.237866	8208.616672
424.616319	8144.339440
424.994712	8558.366885
425.373044	8234.061896
425.751314	8687.002007
426.129524	8601.975386
426.507673	8782.836863
426.885762	8959.688101
427.263789	8907.247498
427.641756	8857.214046
428.019662	8994.393925
428.397508	9235.260256
428.775292	8978.484043
429.153016	9361.578968
429.530679	9222.720385
429.908282	9287.698338
430.285824	9028.585551
430.663305	9706.098984
431.040726	9181.428294
431.418086	9181.511473
431.795385	9506.902831
432.172624	9594.903733
432.549802	9530.903764
432.926920	9628.893712
433.303977	9506.688582
433.680974	9715.606600
434.057910	9801.956524
434.434786	9867.834322
434.811601	9730.662006
435.188355	10291.873499
435.565050	10010.133493
435.941683	9951.051170
436.318257	10454.125556
436.694770	10560.123377
437.071222	10645.001285
437.447614	10502.601291
437.823946	10386.725329
438.200218	10545.332632
438.576429	10345.970121
438.952580	10589.359549
439.328670	10648.462037
439.704700	10431.944479
440.080670	10421.118601
440.456580	10992.714871
440.832429	10734.688453
441.208218	10342.925264
441.583947	10679.205513
441.959616	10810.764505
442.335224	10611.210430
442.710773	10769.303536
443.086261	10961.235386
443.461689	10258.579198
443.837057	10891.778368
444.212365	11183.104128
444.587612	10821.857564
444.962800	11054.721063
445.337927	10832.754018
445.712995	10403.101517
446.088002	11500.689259
446.462949	11141.832202
446.837837	11121.896959
447.212664	11118.456372
447.587431	11620.547733
447.962139	12328.986124
448.336786	14587.801134
448.711374	15155.233411
449.085901	13013.035413
449.460369	12626.285652
449.834776	12073.240828
450.209124	12929.586673
450.583412	13332.218589
450.957640	14294.582420
451.331808	13455.537815
451.705917	12435.757763
452.079965	11741.023748
452.453954	12642.903815
452.827883	12273.409923
453.201752	12567.064697
453.575562	12078.599574
453.949311	12491.507883
454.323001	12457.510341
454.696632	12679.273220
455.070202	12967.992703
455.443713	13213.002862
455.817164	13671.848686
456.190556	13668.453468
456.563888	14029.321946
456.937160	14207.695613
457.310373	13539.415053
457.683526	13614.228297
458.056619	13164.007888
458.429653	13325.017301
458.802628	12758.167277
459.175542	13117.851084
459.548398	14072.126383
459.921194	14408.179781
460.293930	14460.552328
460.666607	15351.024264
461.039224	16375.923609
461.411782	17079.068788
461.784280	16962.638299
462.156719	17007.378539
462.529099	16710.053806
462.901419	15628.832170
463.273680	15423.964719
463.645882	15284.168482
464.018024	15026.870510
464.390106	15246.866464
464.762130	15963.539580
465.134094	16721.973614
465.505999	18704.964412
465.877845	21954.265329
466.249631	24812.571834
466.621358	24495.548792
466.993026	23053.274676
467.364634	22498.165500
467.736184	21037.687778
468.107674	20222.364322
468.479105	20358.861125
468.850477	19827.520989
469.221790	19414.552186
469.593043	18732.872240
469.964238	18165.079520
470.335373	17841.122371
470.706449	18268.796219
471.077467	17823.299372
471.448425	19651.418361
471.819324	23675.471528
472.190164	25700.606372
472.560945	22155.914004
472.931667	19786.191089
473.302330	19151.156939
473.672934	18679.418365
474.043479	19005.694445
474.413965	18813.540783
474.784393	18436.197815
475.154761	19129.885790
475.525070	19123.428072
475.895321	18793.484553
476.265513	19368.435711
476.635645	19955.241142
477.005719	19738.181660
477.375734	19925.011863
477.745691	20399.704553
478.115588	20928.183834
478.485427	21445.885128
478.855207	22508.406604
479.224928	24266.083030
479.594591	26495.626580
479.964194	26532.800049
480.333739	26734.433600
480.703226	26299.140047
481.072653	25968.198380
481.442022	26549.304786
481.811333	27467.639180
482.180584	27380.679276
482.549777	26437.968383
482.918912	26090.395949
483.287988	26203.743772
483.657005	25875.282352
484.025964	25618.463290
484.394864	25532.035228
484.763706	25224.827313
485.132489	24658.259594
485.501213	24836.945813
485.869879	24746.842749
486.238487	24555.911568
486.607036	24703.365318
486.975527	24416.695063
487.343959	24728.785336
487.712333	24671.611090
488.080648	24342.552293
488.448905	24824.864687
488.817104	24572.189454
489.185244	25253.324956
489.553326	25219.826488
489.921350	26195.473760
490.289315	28491.996600
490.657222	30265.189698
491.025070	30774.903284
491.392861	30555.262731
491.760593	29695.887153
492.128267	28798.317272
492.495883	27756.784641
492.863440	26884.861630
493.230939	26011.325451
493.598380	25849.065832
493.965763	25456.307015
494.333088	25006.137018
494.700354	24939.823160
495.067563	24812.647451
495.434713	24564.431118
495.801805	24718.042637
496.168839	24523.471743
496.535815	24356.521330
496.902733	24574.662140
497.269593	24255.907461
497.636395	24431.788278
498.003139	24404.712241
498.369825	24150.391070
498.736453	24345.692932
499.103023	24220.455547
499.469535	24232.057762
499.835989	24448.169507
500.202385	24467.875378
500.568723	23990.631864
500.935003	24219.449837
501.301226	23846.653989
501.667390	24682.759602
502.033497	24911.408696
502.399546	24646.117975
502.765537	24207.368712
503.131470	24590.486322
503.497345	24716.182452
503.863163	23960.447955
504.228923	24542.076121
504.594625	24750.006073
504.960269	24285.688078
505.325856	24771.504074
505.691385	24176.806716
506.056856	24785.218533
506.422270	24758.946560
506.787625	24310.709845
507.152924	24735.240534
507.518164	24780.305928
507.883347	24579.098355
508.248472	24261.682103
508.613540	25048.192844
508.978550	24835.670401
509.343503	24833.474978
509.708398	25077.323151
510.073236	25228.106583
510.438016	25446.814523
510.802738	25117.619615
511.167403	25373.329623
511.532010	25088.978299
511.896561	25848.985173
512.261053	25815.683311
512.625488	25655.417469
512.989866	25547.856890
513.354186	25389.453753
513.718449	25493.286399
514.082655	25877.530707
514.446803	25615.141170
514.810894	26078.009834
515.174927	25570.113584
515.538904	25592.178714
515.902822	26084.989311
516.266684	25840.911766
516.630488	25744.930717
516.994235	25716.249072
517.357925	26032.906630
517.721558	26191.453439
518.085133	26309.154299
518.448651	26208.487498
518.812112	25951.454187
519.175516	26157.218964
519.538863	26317.666288
519.902152	26093.082884
520.265385	26369.975821
520.628560	26164.551322
520.991678	26170.590624
521.354739	26242.331285
521.717743	26307.107591
522.080690	26095.989109
522.443580	26435.039473
522.806413	26423.666630
523.169189	26527.587496
523.531908	26570.313795
523.894569	26170.154564
524.257174	26259.514057
524.619722	26440.186491
524.982213	26123.213860
525.344647	26175.140266
525.707025	26328.784552
526.069345	26297.027804
526.431608	26260.502124
526.793815	26445.358715
527.155964	25912.065132
527.518057	26079.791882
527.880093	26000.590314
528.242072	26235.026653
528.603995	25950.105678
528.965860	25742.193370
529.327669	25795.168336
529.689421	25778.109071
530.051117	25601.724139
530.412755	25780.667457
530.774337	25581.846869
531.135862	25456.662417
531.497331	25661.645814
531.858743	25222.019390
532.220098	25698.985641
532.581396	25374.375662
532.942638	25309.972401
533.303824	25411.362608
533.664953	25420.640852
534.026025	25074.043881
534.387040	25313.710417
534.747999	25379.499995
535.108902	25539.544027
535.469748	25032.877818
535.830537	25208.105806
536.191270	25333.774209
536.551947	25203.881319
536.912567	24843.590053
537.273131	25213.540169
537.633638	24909.387193
537.994089	25123.308557
538.354483	24648.205012
538.714821	25146.061805
539.075103	25194.272879
539.435328	24979.824715
539.795497	24546.154415
540.155609	24935.356697
540.515665	25235.537244
540.875665	24462.395643
541.235609	24772.391317
541.595496	24726.045469
541.955328	25080.988070
542.315102	25000.700133
542.674821	24551.568614
543.034483	24410.290277
543.394090	24583.262348
543.753640	24377.810123
544.113134	25015.657237
544.472571	24617.146464
544.831953	24918.020169
545.191278	24541.962695
545.550548	24448.703870
545.909761	24651.237267
546.268918	24887.652258
546.628019	24847.179355
546.987064	24542.691142
547.346053	24295.863647
547.704986	24408.046964
548.063863	24564.693258
548.422684	24586.947432
548.781449	24108.839360
549.140158	24514.647203
549.498811	24092.417801
549.857408	23834.527494
550.215949	24253.132306
550.574434	23947.338434
550.932864	24156.632019
551.291237	24324.666279
551.649555	24180.821995
552.007817	24234.414502
552.366022	24092.256484
552.724173	24130.975066
553.082267	24089.594755
553.440305	24563.110336
553.798288	23817.652231
554.156215	24319.315094
554.514086	24429.585294
554.871902	23807.948010
555.229661	24086.479322
555.587365	23943.250059
555.945014	23829.254447
556.302606	24050.666965
556.660143	24008.207847
557.017625	24267.865078
557.375050	23791.163488
557.732421	24185.911040
558.089735	23992.575228
558.446994	24051.224012
558.804197	24088.745320
559.161345	24020.049517
559.518437	23786.202993
559.875474	23977.953362
560.232455	24154.287882
560.589381	23976.660306
560.946251	23961.665394
561.303065	24285.199086
561.659825	24366.996848
562.016528	23957.730773
562.373177	23706.162073
562.729770	24065.828235
563.086307	23917.396501
563.442789	24095.661783
563.799216	23929.039046
564.155587	23937.858545
564.511904	23920.111163
564.868164	23860.738973
565.224370	23823.515093
565.580520	23748.036417
565.936615	23878.254462
566.292654	23562.910124
566.648638	23850.467622
567.004567	23670.868955
567.360441	23626.216934
567.716260	23353.203166
568.072023	23663.677749
568.427732	23437.148459
568.783385	23214.180745
569.138982	23454.364000
569.494525	23498.113653
569.850013	23241.284509
570.205445	23339.796217
570.560823	23146.921671
570.916145	22921.914810
571.271412	23089.412188
571.626625	22839.459177
571.981782	22965.672025
572.336884	22763.060491
572.691931	22896.227611
573.046923	22632.330768
573.401860	22510.037417
573.756743	22531.903422
574.111570	22432.769132
574.466342	22354.180064
574.821059	22449.500721
575.175722	22146.005616
575.530330	22130.231845
575.884882	22147.061737
576.239380	22054.644785
576.593823	21940.208072
576.948211	21923.751225
577.302544	21771.783122
577.656823	21637.446454
578.011047	21749.289493
578.365216	21609.979727
578.719330	21486.358032
579.073389	21385.537476
579.427394	21538.816279
579.781344	21289.362343
580.135239	21169.849188
580.489080	21149.666928
580.842866	20914.940723
581.196597	21111.664190
581.550273	21083.496743
581.903895	20970.436265
582.257463	21290.173968
582.610975	20817.096968
582.964434	21129.131788
583.317837	20823.519398
583.671186	20920.218811
584.024481	20894.836602
584.377721	20663.359420
584.730906	20740.075699
585.084037	20748.363356
585.437113	20657.206692
585.790135	20860.594564
586.143103	20318.524332
586.496016	20338.903197
586.848874	20575.880277
587.201679	20508.112046
587.554428	20186.627583
587.907124	20521.017400
588.259765	20288.474014
588.612352	20360.454129
588.964884	19936.755231
589.317362	20096.741289
589.669786	20158.140022
590.022155	20184.777479
590.374470	20396.246322
590.726731	20174.985038
591.078937	19954.979002
591.431090	20036.968328
591.783188	19791.078487
592.135232	19770.112329
592.487222	19859.759167
592.839157	19885.605163
593.191038	19762.863149
593.542866	19647.382918
593.894639	19359.855667
594.246358	19574.780220
594.598022	19487.588423
594.949633	19228.891531
595.301190	19203.143838
595.652692	19366.232727
596.004141	19605.979921
596.355535	18937.520401
596.706876	18949.906516
597.058162	18845.821812
597.409395	19076.096679
597.760573	19137.255957
598.111698	18920.377957
598.462768	18862.291262
598.813785	18825.299275
599.164748	18632.991858
599.515657	18678.616821
599.866511	18467.029512
600.217312	18830.431169
600.568060	18353.757306
600.918753	18666.308844
601.269392	18564.101971
601.619978	18359.844499
601.970510	18551.887255
602.320988	18494.733173
602.671412	18708.422643
603.021783	18623.133882
603.372100	18340.347837
603.722363	18480.754053
604.072572	18413.237880
604.422728	18566.375531
604.772830	18333.655705
605.122878	18280.065719
605.472872	18269.474255
605.822813	18250.627901
606.172701	18231.106033
606.522534	18414.901461
606.872314	18444.341799
607.222041	18280.211912
607.571714	18482.684815
607.921333	18323.225558
608.270899	18395.878667
608.620411	18577.294670
608.969870	18348.065843
609.319276	18341.424123
609.668627	18374.983084
610.017926	18511.154732
610.367171	18623.522051
610.716362	18671.672632
611.065500	18492.131938
611.414585	18623.358213
611.763616	18612.915463
612.112594	18546.019352
612.461518	18511.416872
612.810389	18708.841059
613.159207	18562.246826
613.507971	18475.596953
613.856682	18748.872862
614.205340	18680.630762
614.553945	18822.481270
614.902496	18572.240913
615.250994	18796.325243
615.599439	18735.531448
615.947830	18723.533502
616.296169	18787.369633
616.644454	18743.829188
616.992686	18718.046206
617.340864	18935.350184
617.688990	18683.839457
618.037063	18859.430407
618.385082	18707.885761
618.733048	18993.381426
619.080961	18871.042705
619.428821	18898.567405
619.776628	18785.625394
620.124382	18706.010451
620.472083	18752.898223
620.819731	18777.627603
621.167326	18467.745356
621.514868	18512.720010
621.862357	18270.863092
622.209793	18282.407335
622.557176	18115.174618
622.904506	17946.169935
623.251783	17866.378552
623.599007	17613.915047
623.946179	17550.436838
624.293297	17499.458169
624.640363	17249.399294
624.987376	17265.157941
625.334336	17057.711940
625.681243	16905.292653
626.028097	16918.094664
626.374899	16843.760330
626.721647	16711.130092
627.068343	16538.321859
627.414987	16479.128631
627.761577	16445.297447
628.108115	16478.503528
628.454600	16212.842282
628.801032	16309.987837
629.147412	16238.592496
629.493739	16259.372132
629.840014	16066.273254
630.186236	16167.832340
630.532405	15926.711431
630.878521	16129.244827
631.224585	16026.712799
631.570597	15844.419635
631.916556	15880.486570
632.262462	15858.295411
632.608316	15775.156702
632.954117	15720.752570
633.299866	15708.736979
633.645562	15620.962929
633.991206	15380.691455
634.336797	15245.792698
634.682336	15220.496188
635.027823	15100.100832
635.373257	14973.167098
635.718639	14888.024530
636.063968	14832.261807
