Dividing Wavelength (nm)	Counts (n)	Blue Motor Position (mm): 8.100000	Red Motor Position (mm): 0.000000	
326.493990	2159.267345
326.888308	2159.267345
327.282561	2159.267345
327.676750	2116.510798
328.070874	2113.266816
328.464933	2113.942330
328.858929	2115.492485
329.252859	2122.711418
329.646726	2131.407408
330.040528	2145.131949
330.434265	2156.000677
330.827938	2176.003975
331.221547	2191.838240
331.615091	2212.025540
332.008571	2227.506924
332.401986	2245.458473
332.795338	2264.796339
333.188625	2284.744184
333.581847	2302.211783
333.975006	2316.342137
334.368100	2333.797132
334.761129	2354.914525
335.154095	2372.674510
335.546996	2389.244783
335.939833	2407.743297
336.332606	2425.709969
336.725315	2437.609613
337.117960	2452.508743
337.510540	2462.250773
337.903056	2472.123873
338.295508	2480.436736
338.687896	2491.991060
339.080220	2498.574807
339.472480	2504.331805
339.864676	2510.368587
340.256807	2514.257837
340.648875	2518.890657
341.040879	2521.018024
341.432818	2525.718900
341.824694	2529.787111
342.216506	2528.723428
342.608253	2529.812317
342.999937	2528.373068
343.391557	2530.666793
343.783113	2528.463808
344.174605	2528.914992
344.566033	2525.570186
344.957397	2526.492717
345.348697	2522.648837
345.739934	2522.225380
346.131106	2523.841070
346.522215	2523.704959
346.913260	2518.071470
347.304241	2518.179854
347.695159	2513.267250
348.086012	2513.524349
348.476802	2511.107116
348.867528	2506.925478
349.258191	2503.300889
349.648789	2503.691578
350.039324	2497.949704
350.429796	2503.565549
350.820203	2501.458347
351.210548	2502.423728
351.600828	2499.164622
351.991045	2498.398367
352.381198	2495.005670
352.771288	2498.237050
353.161314	2496.858294
353.551276	2496.596154
353.941175	2496.364261
354.331010	2496.291164
354.720782	2493.470639
355.110490	2494.113386
355.500135	2494.922491
355.889717	2495.093890
356.279235	2492.217912
356.668689	2494.499034
357.058080	2492.643890
357.447408	2495.532471
357.836672	2494.907368
358.225873	2496.384426
358.615010	2495.857625
359.004084	2496.986844
359.393095	2496.097080
359.782043	2494.567090
360.170927	2496.858294
360.559748	2496.964158
360.948505	2501.014726
361.337199	2502.166629
361.725830	2500.273676
362.114398	2502.017915
362.502903	2501.518841
362.891344	2502.229644
363.279722	2501.586897
363.668037	2504.205776
364.056289	2500.611433
364.444478	2504.087309
364.832603	2503.941115
365.220665	2507.827845
365.608665	2507.369100
365.996601	2504.377175
366.384474	2505.680313
366.772284	2504.475478
367.160031	2505.224089
367.547715	2507.795078
367.935336	2507.948833
368.322893	2507.651405
368.710388	2505.672752
369.097820	2505.443379
369.485189	2503.920951
369.872495	2509.118380
370.259738	2509.292300
370.646918	2508.730212
371.034035	2509.221724
371.421090	2510.272805
371.808081	2511.187774
372.195010	2510.388751
372.581875	2509.763648
372.968678	2511.240706
373.355418	2511.399502
373.742096	2509.282218
374.128710	2511.149965
374.515262	2510.834893
374.901751	2513.252127
375.288177	2514.164575
375.674540	2511.880933
376.060841	2513.300017
376.447079	2515.555934
376.833254	2513.930162
377.219367	2515.571057
377.605417	2515.737415
377.991404	2512.309431
378.377329	2513.743639
378.763191	2516.944772
379.148991	2513.675583
379.534727	2516.057529
379.920402	2513.153824
380.306013	2514.157014
380.691563	2517.181706
381.077049	2514.406551
381.462474	2512.906807
381.847835	2516.788496
382.233134	2514.187261
382.618371	2517.668177
383.003545	2516.564165
383.388657	2513.995697
383.773706	2517.375790
384.158693	2515.261026
384.543618	2515.674401
384.928480	2514.083917
385.313280	2518.825122
385.698017	2515.094668
386.082692	2515.843280
386.467305	2516.743126
386.851856	2520.171110
387.236344	2518.547859
387.620770	2516.569206
388.005133	2516.574247
388.389435	2515.616428
388.773674	2511.323885
389.157851	2522.875689
389.541965	2519.495596
389.926018	2519.750174
390.310008	2519.840915
390.693936	2519.334279
391.077802	2521.093641
391.461606	2520.836542
391.845348	2518.994001
392.229027	2521.776718
392.612645	2519.591378
392.996200	2520.592047
393.379694	2519.866120
393.763125	2522.129598
394.146494	2521.917870
394.529801	2522.578261
394.913047	2520.284536
395.296230	2523.062212
395.679351	2519.102386
396.062410	2523.180679
396.445408	2524.456091
396.828343	2524.753519
397.211217	2524.511544
397.594028	2522.351409
397.976778	2523.573889
398.359466	2525.383663
398.742092	2524.267048
399.124656	2526.742254
399.507158	2523.916687
399.889598	2526.880886
400.271977	2524.370391
400.654294	2525.045906
401.036549	2527.321987
401.418742	2526.394415
401.800874	2525.920546
402.182944	2527.425331
402.564952	2526.439785
402.946898	2526.631349
403.328783	2525.613036
403.710606	2524.004908
404.092367	2527.556401
404.474067	2527.445495
404.855705	2526.336441
405.237282	2526.838036
405.618797	2526.439785
406.000250	2526.512882
406.381642	2527.503468
406.762972	2524.025072
407.144240	2523.349558
407.525447	2526.054137
407.906593	2523.183200
408.287677	2528.262162
408.668700	2528.746113
409.049661	2526.999353
409.430560	2529.255269
409.811399	2528.252080
410.192176	2529.759385
410.572891	2528.544467
410.953545	2526.500279
411.334138	2529.434230
411.714669	2528.292409
412.095139	2529.671165
412.475547	2527.994981
412.855894	2530.066895
413.236180	2530.082019
413.616405	2530.505476
413.996568	2528.781401
414.376670	2531.707791
414.756711	2528.027748
415.136691	2530.412214
415.516609	2532.068233
415.896466	2529.900537
416.276262	2530.003881
416.655997	2533.409180
417.035670	2530.059333
417.415283	2535.186187
417.794834	2533.245343
418.174324	2532.504293
418.553753	2532.521937
418.933121	2534.137627
419.312428	2531.987575
419.691674	2531.453212
420.070859	2529.973634
420.449983	2532.776515
420.829045	2533.550332
421.208047	2534.954294
421.586988	2533.383974
421.965867	2536.375899
422.344686	2530.659231
422.723444	2533.757020
423.102141	2532.380785
423.480777	2532.380785
423.859352	2530.248377
424.237866	2534.361958
424.616319	2534.228368
424.994712	2534.798018
425.373044	2535.758358
425.751314	2532.756351
426.129524	2527.047244
426.507673	2533.245343
426.885762	2529.814838
427.263789	2532.973120
427.641756	2534.679551
428.019662	2536.179294
428.397508	2533.537730
428.775292	2534.699716
429.153016	2535.619726
429.530679	2533.452030
429.908282	2536.988399
430.285824	2540.023174
430.663305	2537.812628
431.040726	2534.868594
431.418086	2538.102494
431.795385	2537.174922
432.172624	2538.120138
432.549802	2535.715508
432.926920	2533.131917
433.303977	2536.232226
433.680974	2537.001002
434.057910	2535.912113
434.434786	2537.074099
434.811601	2536.489325
435.188355	2535.768440
435.565050	2535.218954
435.941683	2535.813811
436.318257	2537.250539
436.694770	2536.920344
437.071222	2537.726928
437.447614	2540.383617
437.823946	2537.767258
438.200218	2535.423121
438.576429	2537.346321
438.952580	2536.517052
439.328670	2537.658873
439.704700	2538.649460
440.080670	2537.260622
440.456580	2536.683410
440.832429	2538.465458
441.208218	2538.518390
441.583947	2538.384799
441.959616	2535.725590
442.335224	2539.791281
442.710773	2540.539892
443.086261	2538.672145
443.461689	2539.125849
443.837057	2541.265818
444.212365	2539.380427
444.587612	2535.150899
444.962800	2535.707946
445.337927	2537.860519
445.712995	2533.757020
446.088002	2539.698020
446.462949	2538.352032
446.837837	2543.894780
447.212664	2540.035777
447.587431	2541.268339
447.962139	2537.986548
448.336786	2538.500746
448.711374	2539.544264
449.085901	2537.326157
449.460369	2539.927392
449.834776	2539.861857
450.209124	2538.576363
450.583412	2540.552495
450.957640	2541.288504
451.331808	2540.381096
451.705917	2541.714481
452.079965	2541.225489
452.453954	2542.195911
452.827883	2541.908566
453.201752	2540.154244
453.575562	2543.284801
453.949311	2542.095088
454.323001	2541.374203
454.696632	2540.184491
455.070202	2541.795140
455.443713	2541.457382
455.817164	2541.666590
456.190556	2542.450490
456.563888	2544.051056
456.937160	2543.015099
457.310373	2542.657177
457.683526	2540.459234
458.056619	2542.001827
458.429653	2541.659028
458.802628	2545.092054
459.175542	2543.241951
459.548398	2543.630120
459.921194	2542.609286
460.293930	2542.891591
460.666607	2542.168185
461.039224	2546.067518
461.411782	2541.989224
461.784280	2542.667259
462.156719	2543.539379
462.529099	2543.378062
462.901419	2543.877136
463.273680	2542.785726
463.645882	2537.890766
464.018024	2542.919317
464.390106	2539.556867
464.762130	2543.854451
465.134094	2540.280273
465.505999	2544.557692
465.877845	2540.345808
466.249631	2543.080634
466.621358	2544.174564
466.993026	2545.873433
467.364634	2548.862837
467.736184	2545.218083
468.107674	2543.884698
468.479105	2542.947043
468.850477	2545.021478
469.221790	2543.393185
469.593043	2542.526107
469.964238	2545.717157
470.335373	2545.744884
470.706449	2546.979966
471.077467	2545.807898
471.448425	2545.911242
471.819324	2542.700027
472.190164	2546.503577
472.560945	2543.546941
472.931667	2544.930737
473.302330	2545.659184
473.672934	2544.920655
474.043479	2543.584749
474.413965	2549.339226
474.784393	2542.642053
475.154761	2547.297559
475.525070	2545.591128
475.895321	2546.170861
476.265513	2547.897456
476.635645	2546.254040
477.005719	2545.071890
477.375734	2547.327806
477.745691	2544.968546
478.115588	2544.441745
478.485427	2547.146324
478.855207	2545.820501
479.224928	2545.202960
479.594591	2547.058104
479.964194	2545.817980
480.333739	2545.530635
480.703226	2546.044832
481.072653	2548.618341
481.442022	2549.001469
481.811333	2546.163299
482.180584	2545.364277
482.549777	2544.552651
482.918912	2542.107691
483.287988	2547.398382
483.657005	2544.408978
484.025964	2548.157076
484.394864	2545.621375
484.763706	2547.257230
485.132489	2546.266643
485.501213	2548.570450
485.869879	2547.083310
486.238487	2551.055739
486.607036	2546.992569
486.975527	2547.915100
487.343959	2547.037940
487.712333	2547.141283
488.080648	2550.392828
488.448905	2548.162117
488.817104	2549.225800
489.185244	2549.298897
489.553326	2550.780996
489.921350	2550.271840
490.289315	2548.971222
490.657222	2550.407951
491.025070	2547.050543
491.392861	2548.986346
491.760593	2549.520708
492.128267	2551.252344
492.495883	2548.880481
492.863440	2546.992569
493.230939	2549.820657
493.598380	2550.324772
493.965763	2547.625234
494.333088	2546.826211
494.700354	2551.096068
495.067563	2547.279915
495.434713	2547.763866
495.801805	2550.397869
496.168839	2550.660009
496.535815	2547.521890
496.902733	2551.340564
497.269593	2548.192364
497.636395	2551.804351
498.003139	2550.725544
498.369825	2548.499874
498.736453	2547.899977
499.103023	2550.355019
499.469535	2547.289997
499.835989	2549.815615
500.202385	2548.325954
500.568723	2545.757487
500.935003	2549.646737
501.301226	2543.433515
501.667390	2551.527087
502.033497	2553.472973
502.399546	2550.143290
502.765537	2549.089689
503.131470	2552.222766
503.497345	2547.441232
503.863163	2551.012889
504.228923	2548.492312
504.594625	2552.643703
504.960269	2551.766542
505.325856	2551.733774
505.691385	2550.740667
506.056856	2550.652447
506.422270	2550.607077
506.787625	2550.987684
507.152924	2550.997766
507.518164	2549.175389
507.883347	2552.991542
508.248472	2550.725544
508.613540	2550.808723
508.978550	2551.713610
509.343503	2553.825853
509.708398	2553.104968
510.073236	2549.427447
510.438016	2550.566747
510.802738	2551.189330
511.167403	2550.874258
511.532010	2552.613456
511.896561	2553.719989
512.261053	2551.610266
512.625488	2552.452139
512.989866	2551.007848
513.354186	2550.677653
513.718449	2552.525236
514.082655	2550.067673
514.446803	2551.572457
514.810894	2551.015410
515.174927	2554.934907
515.538904	2553.052036
515.902822	2551.542211
516.266684	2552.900802
516.630488	2551.368291
516.994235	2552.142108
517.357925	2551.595143
517.721558	2554.854249
518.085133	2549.293856
518.448651	2551.380894
518.812112	2548.212528
519.175516	2548.560368
519.538863	2548.278063
519.902152	2552.195040
520.265385	2553.193188
520.628560	2552.280740
520.991678	2553.082283
521.354739	2552.689073
521.717743	2552.409289
522.080690	2554.556821
522.443580	2552.928528
522.806413	2552.923487
523.169189	2551.436346
523.531908	2552.772252
523.894569	2553.896429
524.257174	2552.787376
524.619722	2554.529094
524.982213	2552.008517
525.344647	2552.920966
525.707025	2553.513302
526.069345	2556.369115
526.431608	2553.367108
526.793815	2555.958261
527.155964	2556.719476
527.518057	2551.592622
527.880093	2551.075904
528.242072	2551.297715
528.603995	2553.102448
528.965860	2553.087324
529.327669	2553.430123
529.689421	2553.533466
530.051117	2555.539846
530.412755	2554.264434
530.774337	2554.065308
531.135862	2553.737633
531.497331	2554.675288
531.858743	2552.845349
532.220098	2555.764177
532.581396	2555.519681
532.942638	2557.485731
533.303824	2554.818961
533.664953	2555.801986
534.026025	2557.054712
534.387040	2557.122768
534.747999	2558.067984
535.108902	2559.194682
535.469748	2556.404403
535.830537	2558.030176
536.191270	2559.754250
536.551947	2556.149825
536.912567	2555.461708
537.273131	2557.654610
537.633638	2553.165462
537.994089	2562.083263
538.354483	2561.256514
538.714821	2560.278530
539.075103	2561.085115
539.435328	2563.918243
539.795497	2562.262224
540.155609	2564.092163
540.515665	2562.572255
540.875665	2563.202399
541.235609	2564.003943
541.595496	2565.080229
541.955328	2566.826989
542.315102	2568.911506
542.674821	2566.388409
543.034483	2568.435117
543.394090	2566.766495
543.753640	2566.151474
544.113134	2567.994016
544.472571	2568.903944
544.831953	2567.058882
545.191278	2571.837896
545.550548	2568.230950
545.909761	2571.253122
546.268918	2571.202711
546.628019	2574.058524
546.987064	2572.677248
547.346053	2571.583318
547.704986	2573.723287
548.063863	2573.622464
548.422684	2576.019533
548.781449	2574.056004
549.140158	2574.918041
549.498811	2577.322671
549.857408	2575.162537
550.215949	2573.446024
550.574434	2575.154975
550.932864	2574.507187
551.291237	2575.457444
551.649555	2577.108422
552.007817	2577.216807
552.366022	2577.355439
552.724173	2576.790830
553.082267	2579.439956
553.440305	2578.320820
553.798288	2579.024061
554.156215	2578.736715
554.514086	2575.026426
554.871902	2575.220510
555.229661	2574.837382
555.587365	2576.521128
555.945014	2580.619586
556.302606	2579.472723
556.660143	2581.040522
557.017625	2581.524473
557.375050	2581.068249
557.732421	2580.276787
558.089735	2581.685790
558.446994	2580.238979
558.804197	2581.897518
559.161345	2582.497416
559.518437	2582.126891
559.875474	2580.226376
560.232455	2580.241499
560.589381	2585.164186
560.946251	2581.549679
561.303065	2582.106726
561.659825	2581.917683
562.016528	2582.903229
562.373177	2581.189236
562.729770	2579.560944
563.086307	2581.426171
563.442789	2582.051274
563.799216	2583.697210
564.155587	2583.518249
564.511904	2582.575554
564.868164	2586.290884
565.224370	2582.464648
565.580520	2583.538414
565.936615	2583.520770
566.292654	2581.194277
566.648638	2581.451376
567.004567	2580.758218
567.360441	2579.661767
567.716260	2582.343661
568.072023	2581.819381
568.427732	2584.682756
568.783385	2580.886767
569.138982	2581.645461
569.494525	2581.378280
569.850013	2583.598908
570.205445	2583.601428
570.560823	2582.883064
570.916145	2580.299473
571.271412	2580.964905
571.626625	2581.118660
571.981782	2580.057497
572.336884	2577.748649
572.691931	2577.342836
573.046923	2575.409553
573.401860	2575.555747
573.756743	2578.779565
574.111570	2579.069431
574.466342	2578.741756
574.821059	2579.467682
575.175722	2578.429205
575.530330	2578.182188
575.884882	2578.477096
576.239380	2575.238154
576.593823	2580.395255
576.948211	2580.962384
577.302544	2575.754872
577.656823	2576.453072
578.011047	2579.150090
578.365216	2576.400140
578.719330	2577.110943
579.073389	2577.647826
579.427394	2577.133628
579.781344	2577.274780
580.135239	2576.397620
580.489080	2577.224369
580.842866	2574.502146
581.196597	2578.555233
581.550273	2575.878381
581.903895	2575.948957
582.257463	2574.401323
582.610975	2576.173288
582.964434	2574.537434
583.317837	2574.209759
583.671186	2575.533062
584.024481	2575.298648
584.377721	2572.425190
584.730906	2575.223031
585.084037	2575.245716
585.437113	2574.113977
585.790135	2573.698082
586.143103	2576.039698
586.496016	2577.604976
586.848874	2575.686817
587.201679	2575.074317
587.554428	2572.094995
587.907124	2572.359655
588.259765	2571.517783
588.612352	2574.547516
588.964884	2574.426528
589.317362	2573.156158
589.669786	2572.616754
590.022155	2569.702967
590.374470	2568.888821
590.726731	2569.113152
591.078937	2564.041752
591.431090	2572.722618
591.783188	2571.008626
592.135232	2573.428380
592.487222	2573.037691
592.839157	2570.355797
593.191038	2575.792681
593.542866	2570.486867
593.894639	2571.011147
594.246358	2570.829665
594.598022	2569.589541
594.949633	2572.498287
595.301190	2569.768502
595.652692	2570.030642
596.004141	2570.749007
596.355535	2570.028122
596.706876	2569.183728
597.058162	2572.999882
597.409395	2568.059551
597.760573	2569.501321
598.111698	2570.572566
598.462768	2570.060889
598.813785	2571.028791
599.164748	2568.737586
599.515657	2569.007288
599.866511	2567.767164
600.217312	2567.830179
600.568060	2569.559294
600.918753	2572.531055
601.269392	2569.904613
601.619978	2567.847823
601.970510	2569.337484
602.320988	2568.906465
602.671412	2570.358317
603.021783	2568.959397
603.372100	2572.357135
603.722363	2569.148440
604.072572	2568.147771
604.422728	2571.941240
604.772830	2569.100549
605.122878	2566.675754
605.472872	2570.973338
605.822813	2569.897052
606.172701	2571.311095
606.522534	2567.404201
606.872314	2573.388051
607.222041	2571.230437
607.571714	2569.415622
607.921333	2566.632905
608.270899	2568.828327
608.620411	2569.526527
608.969870	2573.642629
609.319276	2577.262177
609.668627	2582.464648
610.017926	2584.937334
610.367171	2586.167376
610.716362	2587.780545
611.065500	2583.709813
611.414585	2582.386510
611.763616	2580.087744
612.112594	2582.903229
612.461518	2577.141190
612.810389	2581.443815
613.159207	2577.582291
613.507971	2578.454410
613.856682	2579.802919
614.205340	2580.294432
614.553945	2583.261151
614.902496	2579.830645
615.250994	2577.481468
615.599439	2581.907601
615.947830	2579.157651
616.296169	2577.723443
616.644454	2577.846951
616.992686	2578.192270
617.340864	2577.761252
617.688990	2579.308886
618.037063	2581.058166
618.385082	2581.658064
618.733048	2581.804257
619.080961	2579.634040
619.428821	2582.900708
619.776628	2584.942375
620.124382	2583.119998
620.472083	2583.147725
620.819731	2585.222159
621.167326	2583.069587
621.514868	2586.527818
621.862357	2583.077148
622.209793	2583.452714
622.557176	2584.400451
622.904506	2584.392890
623.251783	2580.367528
623.599007	2583.437591
623.946179	2583.520770
624.293297	2584.027406
624.640363	2581.164031
624.987376	2579.273598
625.334336	2581.252251
625.681243	2580.528845
626.028097	2579.795357
626.374899	2585.088569
626.721647	2583.130081
627.068343	2585.751481
627.414987	2584.002200
627.761577	2584.682756
628.108115	2583.813157
628.454600	2583.498085
628.801032	2584.055132
629.147412	2587.495720
629.493739	2587.218456
629.840014	2589.040833
630.186236	2586.822726
630.532405	2589.645772
630.878521	2588.284660
631.224585	2587.886409
631.570597	2588.819023
631.916556	2587.528487
632.262462	2587.296594
632.608316	2592.194075
632.954117	2589.708786
633.299866	2592.322625
633.645562	2595.163315
633.991206	2593.930753
634.336797	2590.346492
634.682336	2592.768767
635.027823	2590.722058
635.373257	2591.833633
635.718639	2592.617532
636.063968	2590.679208
636.409245	2592.683067
636.754470	2592.662902
637.099642	2590.412027
637.444762	2590.149887
637.789829	2593.968561
638.134845	2592.683067
638.479808	2592.756164
638.824719	2595.186000
639.169577	2594.147522
639.514383	2594.717173
639.859137	2592.297419
640.203839	2594.891092
640.548489	2593.908067
640.893086	2597.323449
641.237632	2595.669951
641.582125	2598.399736
641.926566	2598.845878
642.270955	2597.681371
642.615292	2596.035434
642.959576	2598.876125
643.303809	2596.718511
643.647990	2602.311671
643.992118	2604.711260
644.336195	2600.035590
