Dividing Wavelength (nm)	Counts (n)	Blue Motor Position (mm): 38.600000	Red Motor Position (mm): 0.000000	
326.493990	2243.424367
326.888308	2243.424367
327.282561	2243.424367
327.676750	2204.123532
328.070874	2200.670341
328.464933	2202.855681
328.858929	2203.448017
329.252859	2209.721733
329.646726	2219.020141
330.040528	2230.871894
330.434265	2241.155848
330.827938	2262.779877
331.221547	2278.974584
331.615091	2296.442182
332.008571	2311.623617
332.401986	2332.851916
332.795338	2351.920080
333.188625	2371.406660
333.581847	2391.503220
333.975006	2410.185736
334.368100	2429.004363
334.761129	2449.693259
335.154095	2464.045424
335.546996	2490.156080
335.939833	2529.784591
336.332606	2548.000800
336.725315	2557.636966
337.117960	2572.221024
337.510540	2583.556058
337.903056	2595.964858
338.295508	2602.881321
338.687896	2612.245265
339.080220	2618.871861
339.472480	2626.156329
339.864676	2628.533233
340.256807	2633.629839
340.648875	2639.568318
341.040879	2640.689975
341.432818	2646.877992
341.824694	2648.692807
342.216506	2648.387817
342.608253	2649.121305
342.999937	2649.632982
343.391557	2649.932931
343.783113	2647.437560
344.174605	2646.835142
344.566033	2646.986376
344.957397	2644.624596
345.348697	2646.303300
345.739934	2643.565953
346.131106	2640.773154
346.522215	2639.623771
346.913260	2639.775006
347.304241	2633.897020
347.695159	2634.471712
348.086012	2630.776546
348.476802	2630.988275
348.867528	2626.877214
349.258191	2624.906123
349.648789	2623.318159
350.039324	2622.040227
350.429796	2623.159363
350.820203	2619.030658
351.210548	2624.601133
351.600828	2619.461676
351.991045	2617.566202
352.381198	2619.953189
352.771288	2616.192488
353.161314	2617.540997
353.551276	2616.061418
353.941175	2617.097375
354.331010	2613.694596
354.720782	2614.644854
355.110490	2612.063783
355.500135	2615.743825
355.889717	2616.943620
356.279235	2616.182406
356.668689	2616.131994
357.058080	2615.154010
357.447408	2615.569906
357.836672	2617.762807
358.225873	2615.398506
358.615010	2616.149638
359.004084	2616.966305
359.393095	2617.833384
359.782043	2619.514608
360.170927	2618.942437
360.559748	2619.330606
360.948505	2618.909670
361.337199	2622.955196
361.725830	2622.972840
362.114398	2622.443519
362.502903	2622.940072
362.891344	2622.367902
363.279722	2623.734054
363.668037	2625.168262
364.056289	2624.195320
364.444478	2625.105248
364.832603	2626.567183
365.220665	2624.218005
365.608665	2625.528705
365.996601	2626.035341
366.384474	2627.517440
366.772284	2629.034827
367.160031	2630.600106
367.547715	2632.389715
367.935336	2625.463170
368.322893	2626.025259
368.710388	2627.610702
369.097820	2630.358130
369.485189	2628.432410
369.872495	2631.820065
370.259738	2633.077833
370.646918	2632.999695
371.034035	2634.365848
371.421090	2633.967597
371.808081	2633.161012
372.195010	2636.236116
372.581875	2634.166722
372.968678	2635.948770
373.355418	2636.843575
373.742096	2637.443472
374.128710	2638.408853
374.515262	2636.238636
374.901751	2639.706950
375.288177	2636.379789
375.674540	2639.792650
376.060841	2638.013122
376.447079	2640.579070
376.833254	2642.550161
377.219367	2642.618217
377.605417	2639.749800
377.991404	2643.049235
378.377329	2644.498567
378.763191	2642.550161
379.148991	2645.552168
379.534727	2645.456386
379.920402	2645.025368
380.306013	2646.031078
380.691563	2647.498053
381.077049	2647.939154
381.462474	2647.911428
381.847835	2648.105513
382.233134	2647.926552
382.618371	2649.166675
383.003545	2649.716161
383.388657	2650.522746
383.773706	2650.999135
384.158693	2651.026861
384.543618	2650.386635
384.928480	2654.026348
385.313280	2653.219763
385.698017	2654.623724
386.082692	2657.164466
386.467305	2654.797644
386.851856	2656.330155
387.236344	2658.303767
387.620770	2657.683705
388.005133	2655.306801
388.389435	2654.923673
388.773674	2655.165648
389.157851	2659.899292
389.541965	2662.495486
389.926018	2660.831905
390.310008	2665.623522
390.693936	2666.157884
391.077802	2669.013698
391.461606	2668.007988
391.845348	2675.244564
392.229027	2678.065090
392.612645	2683.406192
392.996200	2691.880372
393.379694	2702.010571
393.763125	2717.257540
394.146494	2732.469222
394.529801	2754.332706
394.913047	2779.324227
395.296230	2802.495890
395.679351	2837.927640
396.062410	2876.666387
396.445408	2915.037129
396.828343	2963.822896
397.211217	3018.862213
397.594028	3056.038202
397.976778	3126.987402
398.359466	3193.318904
398.742092	3257.308790
399.124656	3299.291519
399.507158	3387.957854
399.889598	3477.705516
400.271977	3585.699634
400.654294	3650.987617
401.036549	3733.077767
401.418742	3777.588635
401.800874	3931.701749
402.182944	4028.083569
402.564952	4164.035927
402.946898	4266.792286
403.328783	4262.219960
403.710606	4340.630067
404.092367	4601.487093
404.474067	4694.531669
404.855705	4708.354513
405.237282	4736.015324
405.618797	4970.885203
406.000250	5034.983474
406.381642	5243.709928
406.762972	5325.694213
407.144240	5431.326551
407.525447	5484.102391
407.906593	5583.738276
408.287677	5765.302993
408.668700	5747.984109
409.049661	5906.304066
409.430560	5980.252752
409.811399	5903.208798
410.192176	6185.281520
410.572891	6232.134004
410.953545	6470.479758
411.334138	6260.503097
411.714669	6457.188756
412.095139	6298.541124
412.475547	6557.797584
412.855894	6648.810575
413.236180	6837.490881
413.616405	6573.493216
413.996568	6799.646939
414.376670	6841.972467
414.756711	6761.366938
415.136691	6870.807867
415.516609	7078.826039
415.896466	7087.065805
416.276262	7285.215919
416.655997	7274.727798
417.035670	7481.165569
417.415283	7819.462280
417.794834	7872.785085
418.174324	7744.303717
418.553753	7662.911768
418.933121	7985.651478
419.312428	8094.726924
419.691674	7872.233079
420.070859	8347.573557
420.449983	8034.812811
420.829045	8394.310094
421.208047	8185.197992
421.586988	8473.554512
421.965867	8489.572779
422.344686	8606.893032
422.723444	8633.807752
423.102141	8011.895725
423.480777	8757.603367
423.859352	8280.790872
424.237866	8904.800018
424.616319	8779.290411
424.994712	9180.150362
425.373044	8752.731092
425.751314	9211.337460
426.129524	9076.103467
426.507673	9203.407725
426.885762	9349.684366
427.263789	9267.838712
427.641756	9188.498513
428.019662	9287.864696
428.397508	9528.035347
428.775292	9222.206188
429.153016	9602.914126
429.530679	9426.730840
429.908282	9474.334456
430.285824	9182.083644
430.663305	9863.952634
431.040726	9320.095313
431.418086	9314.381165
431.795385	9636.447882
432.172624	9717.963339
432.549802	9639.054158
432.926920	9713.063338
433.303977	9592.305018
433.680974	9800.731524
434.057910	9881.941992
434.434786	9951.976221
434.811601	9795.866810
435.188355	10355.863385
435.565050	10084.959339
435.941683	10019.351243
436.318257	10509.484987
436.694770	10640.930553
437.071222	10704.242404
437.447614	10554.222707
437.823946	10447.390574
438.200218	10583.317726
438.576429	10398.105734
438.952580	10638.793104
439.328670	10693.345950
439.704700	10477.617333
440.080670	10467.293050
440.456580	11020.476505
440.832429	10782.077819
441.208218	10381.051510
441.583947	10714.375123
441.959616	10858.980621
442.335224	10661.884109
442.710773	10799.532815
443.086261	11010.787408
443.461689	10284.279001
443.837057	10935.349061
444.212365	11212.983047
444.587612	10856.596156
444.962800	11086.024108
445.337927	10849.893942
445.712995	10445.142220
446.088002	11532.078003
446.462949	11187.482371
446.837837	11161.827939
447.212664	11140.965123
447.587431	11661.852427
447.962139	12388.733879
448.336786	14652.224559
448.711374	15198.211768
449.085901	13039.267057
449.460369	12667.519769
449.834776	12113.471756
450.209124	12999.578053
450.583412	13404.322213
450.957640	14349.253734
451.331808	13484.574861
451.705917	12474.403248
452.079965	11776.379881
452.453954	12684.495855
452.827883	12314.712097
453.201752	12616.223508
453.575562	12126.888787
453.949311	12545.894371
454.323001	12511.506140
454.696632	12740.823187
455.070202	13020.942463
455.443713	13243.877409
455.817164	13724.372468
456.190556	13709.513667
456.563888	14068.247215
456.937160	14236.157968
457.310373	13576.500302
457.683526	13672.045291
458.056619	13204.503477
458.429653	13362.268907
458.802628	12791.330508
459.175542	13171.163806
459.548398	14124.367861
459.921194	14457.754488
460.293930	14522.419889
460.666607	15396.624021
461.039224	16437.753361
461.411782	17140.202861
461.784280	16995.942682
462.156719	17071.338179
462.529099	16755.305724
462.901419	15684.705799
463.273680	15459.036027
463.645882	15345.612586
464.018024	15078.998562
464.390106	15301.247911
464.762130	16020.060997
465.134094	16780.224147
465.505999	18806.273960
465.877845	22050.604300
466.249631	24892.590069
466.621358	24541.987901
466.993026	23112.490590
467.364634	22559.402916
467.736184	21078.019529
468.107674	20280.370359
468.479105	20414.621327
468.850477	19866.859633
469.221790	19463.209403
469.593043	18782.958624
469.964238	18221.046410
470.335373	17868.826032
470.706449	18331.672011
471.077467	17894.672028
471.448425	19730.506503
471.819324	23796.902842
472.190164	25748.492292
472.560945	22174.190707
472.931667	19825.449074
473.302330	19203.290031
473.672934	18756.008615
474.043479	19055.417866
474.413965	18868.111274
474.784393	18487.247060
475.154761	19194.372230
475.525070	19161.395522
475.895321	18846.610753
476.265513	19440.756104
476.635645	20022.709424
477.005719	19805.944850
477.375734	19981.198043
477.745691	20474.094340
478.115588	20997.512303
478.485427	21531.814116
478.855207	22600.735337
479.224928	24376.282653
479.594591	26606.955422
479.964194	26595.307836
480.333739	26807.167367
480.703226	26377.227520
481.072653	26069.114718
481.442022	26659.048185
481.811333	27585.796264
482.180584	27490.959557
482.549777	26538.234412
482.918912	26201.903751
483.287988	26317.867934
483.657005	25965.879449
484.025964	25734.959315
484.394864	25632.056762
484.763706	25317.357692
485.132489	24742.600618
485.501213	24925.687764
485.869879	24835.093188
486.238487	24669.057745
486.607036	24806.088910
486.975527	24515.045454
487.343959	24833.588404
487.712333	24767.657673
488.080648	24435.095275
488.448905	24944.546721
488.817104	24684.743296
489.185244	25359.950401
489.553326	25330.099208
489.921350	26329.061816
490.289315	28629.713361
490.657222	30394.974204
491.025070	30898.648487
491.392861	30662.798105
491.760593	29810.764967
492.128267	28917.104501
492.495883	27856.536473
492.863440	26982.007186
493.230939	26119.455680
493.598380	25965.781146
493.965763	25568.084519
494.333088	25104.333654
494.700354	25042.357708
495.067563	24911.622945
495.434713	24662.320243
495.801805	24832.494474
496.168839	24623.261383
496.535815	24467.761952
496.902733	24685.287740
497.269593	24366.946437
497.636395	24533.274267
498.003139	24493.968390
498.369825	24244.516974
498.736453	24445.873262
499.103023	24328.565612
499.469535	24320.918181
499.835989	24545.932604
500.202385	24568.388424
500.568723	24077.692591
500.935003	24304.915038
501.301226	23945.773156
501.667390	24785.755416
502.033497	25006.119374
502.399546	24739.628858
502.765537	24287.714622
503.131470	24685.433934
503.497345	24817.796990
503.863163	24047.987592
504.228923	24631.901921
504.594625	24847.529715
504.960269	24388.094077
505.325856	24867.490164
505.691385	24277.715493
506.056856	24875.692121
506.422270	24852.802762
506.787625	24411.653909
507.152924	24827.387785
507.518164	24859.721746
507.883347	24675.880947
508.248472	24354.267935
508.613540	25138.762214
508.978550	24922.557208
509.343503	24930.872591
509.708398	25169.636761
510.073236	25332.196328
510.438016	25536.731063
510.802738	25207.175713
511.167403	25468.945188
511.532010	25185.982702
511.896561	25939.746107
512.261053	25898.978296
512.625488	25746.508598
512.989866	25638.794264
513.354186	25473.454500
513.718449	25603.226403
514.082655	25963.648738
514.446803	25710.164399
514.810894	26183.148138
515.174927	25669.620920
515.538904	25684.262951
515.902822	26174.568095
516.266684	25943.968074
516.630488	25848.912077
516.994235	25804.635623
517.357925	26127.319880
517.721558	26308.438456
518.085133	26399.973207
518.448651	26296.248946
518.812112	26046.273250
519.175516	26274.158609
519.538863	26421.932473
519.902152	26207.587652
520.265385	26466.972662
520.628560	26264.159481
520.991678	26259.556907
521.354739	26336.207652
521.717743	26402.168629
522.080690	26195.647679
522.443580	26518.432760
522.806413	26503.218558
523.169189	26604.036594
523.531908	26657.107341
523.894569	26258.946928
524.257174	26355.714396
524.619722	26520.068615
524.982213	26216.230711
525.344647	26265.838185
525.707025	26404.328763
526.069345	26389.601033
526.431608	26345.327099
526.793815	26525.669337
527.155964	26009.024164
527.518057	26165.148699
527.880093	26090.232111
528.242072	26336.696643
528.603995	26037.257146
528.965860	25832.631670
529.327669	25871.839244
529.689421	25857.507244
530.051117	25696.210486
530.412755	25877.051798
530.774337	25664.625136
531.135862	25555.605143
531.497331	25740.779327
531.858743	25312.311497
532.220098	25793.875280
532.581396	25473.333512
532.942638	25386.361006
533.303824	25496.817728
533.664953	25498.050290
534.026025	25168.666338
534.387040	25400.756020
534.747999	25461.895134
535.108902	25623.665761
535.469748	25123.243022
535.830537	25294.475894
536.191270	25430.476143
536.551947	25283.309739
536.912567	24909.896350
537.273131	25299.123838
537.633638	24994.864998
537.994089	25204.471134
538.354483	24723.038421
538.714821	25231.884928
539.075103	25256.349648
539.435328	25049.513626
539.795497	24627.264059
540.155609	24994.297868
540.515665	25302.375383
540.875665	24529.553895
541.235609	24854.710839
541.595496	24796.049452
541.955328	25151.806199
542.315102	25074.908439
542.674821	24592.159985
543.034483	24473.859227
543.394090	24650.670137
543.753640	24447.572131
544.113134	25075.341978
544.472571	24669.990359
544.831953	24966.838703
545.191278	24607.676656
545.550548	24516.522512
545.909761	24716.389139
546.268918	24954.893689
546.628019	24920.545787
546.987064	24602.428815
547.346053	24362.016188
547.704986	24464.986797
548.063863	24625.015705
548.422684	24646.294415
548.781449	24162.802391
549.140158	24571.236676
549.498811	24145.581809
549.857408	23905.375870
550.215949	24300.388082
550.574434	23989.893335
550.932864	24203.353432
551.291237	24379.372881
551.649555	24232.345108
552.007817	24289.279900
552.366022	24146.670699
552.724173	24172.083155
553.082267	24137.198371
553.440305	24615.661844
553.798288	23861.550599
554.156215	24363.364697
554.514086	24480.589168
554.871902	23849.895451
555.229661	24144.881089
555.587365	23989.172450
555.945014	23878.254462
556.302606	24111.962354
556.660143	24082.879938
557.017625	24312.254958
557.375050	23838.522608
557.732421	24232.423246
558.089735	24050.944228
558.446994	24093.899900
558.804197	24132.048832
559.161345	24044.625142
559.518437	23837.506816
559.875474	24012.704556
560.232455	24185.537995
560.589381	24008.550645
560.946251	24000.469675
561.303065	24310.437623
561.659825	24406.552262
562.016528	24006.413196
562.373177	23742.176076
562.729770	24109.333393
563.086307	23960.518531
563.442789	24134.887002
563.799216	23980.448733
564.155587	23980.723476
564.511904	23956.624240
564.868164	23895.197780
565.224370	23863.604869
565.580520	23790.588797
565.936615	23910.664040
566.292654	23612.051292
566.648638	23881.765626
567.004567	23701.350291
567.360441	23647.079750
567.716260	23378.809707
568.072023	23704.178379
568.427732	23477.144974
568.783385	23244.523450
569.138982	23500.034333
569.494525	23520.836654
569.850013	23271.982615
570.205445	23375.454819
570.560823	23182.338297
570.916145	22948.048152
571.271412	23141.583089
571.626625	22893.656622
571.981782	23000.960102
572.336884	22796.594246
572.691931	22937.738992
573.046923	22677.587727
573.401860	22553.426628
573.756743	22575.955545
574.111570	22475.344197
574.466342	22391.875292
574.821059	22479.961893
575.175722	22183.766379
575.530330	22160.075476
575.884882	22176.711284
576.239380	22105.441971
576.593823	21981.679124
576.948211	21964.536680
577.302544	21812.261067
577.656823	21679.925737
578.011047	21778.392074
578.365216	21640.337556
578.719330	21526.397397
579.073389	21414.072927
579.427394	21580.604924
579.781344	21333.094352
580.135239	21217.538503
580.489080	21174.003099
580.842866	20956.961261
581.196597	21155.340747
581.550273	21131.191100
581.903895	21004.227119
582.257463	21314.893266
582.610975	20838.698312
582.964434	21169.466060
583.317837	20863.271417
583.671186	20948.257709
584.024481	20934.505441
584.377721	20691.708348
584.730906	20774.753796
585.084037	20753.444839
585.437113	20687.020075
585.790135	20893.450284
586.143103	20346.696820
586.496016	20366.427897
586.848874	20610.621389
587.201679	20524.054695
587.554428	20211.543486
587.907124	20540.942560
588.259765	20316.149949
588.612352	20389.927235
588.964884	19956.778694
589.317362	20119.993611
589.669786	20195.038748
590.022155	20211.850996
590.374470	20424.456618
590.726731	20193.107986
591.078937	19979.584874
591.431090	20060.787780
591.783188	19825.166770
592.135232	19793.568818
592.487222	19894.926257
592.839157	19902.160312
593.191038	19783.221849
593.542866	19688.637200
593.894639	19385.336179
594.246358	19598.105639
594.598022	19496.123097
594.949633	19248.612525
595.301190	19231.275997
595.652692	19400.573067
596.004141	19633.759199
596.355535	18959.691395
596.706876	18979.445157
597.058162	18874.327017
597.409395	19103.142469
597.760573	19168.201080
598.111698	18932.877498
598.462768	18887.469305
598.813785	18843.243262
599.164748	18658.681578
599.515657	18701.423001
599.866511	18499.575201
600.217312	18850.368933
600.568060	18371.184575
600.918753	18679.539352
601.269392	18580.357171
601.619978	18375.751860
601.970510	18560.116938
602.320988	18518.781997
602.671412	18717.161484
603.021783	18639.817581
603.372100	18354.044652
603.722363	18503.351026
604.072572	18447.822716
604.422728	18599.115305
604.772830	18348.522068
605.122878	18302.135890
605.472872	18298.617165
605.822813	18274.860727
606.172701	18251.893231
606.522534	18439.638403
606.872314	18466.172516
607.222041	18301.483061
607.571714	18514.955762
607.921333	18342.513012
608.270899	18412.650586
608.620411	18588.564170
608.969870	18373.934524
609.319276	18365.230972
609.668627	18399.704903
610.017926	18533.960912
610.367171	18640.646851
610.716362	18695.739100
611.065500	18504.490326
611.414585	18657.093615
611.763616	18643.999218
612.112594	18577.070339
612.461518	18536.988125
612.810389	18733.928361
613.159207	18591.911496
613.507971	18507.018465
613.856682	18774.363456
614.205340	18700.276139
614.553945	18843.056739
614.902496	18584.616946
615.250994	18812.146904
615.599439	18760.306199
615.947830	18742.001769
616.296169	18810.881575
616.644454	18760.956508
616.992686	18745.780114
617.340864	18967.353949
617.688990	18705.932313
618.037063	18886.030055
618.385082	18737.704186
618.733048	19011.088479
619.080961	18897.241581
619.428821	18919.437782
619.776628	18809.827974
620.124382	18736.758969
620.472083	18783.571124
620.819731	18801.285738
621.167326	18496.119490
621.514868	18531.614255
621.862357	18307.867682
622.209793	18314.910174
622.557176	18148.680647
622.904506	17968.817319
623.251783	17898.379797
623.599007	17645.439902
623.946179	17587.461592
624.293297	17516.996343
624.640363	17261.004031
624.987376	17291.742466
625.334336	17095.213083
625.681243	16938.831450
626.028097	16947.356041
626.374899	16875.111265
626.721647	16737.674288
627.068343	16571.018783
627.414987	16514.993920
627.761577	16468.837115
628.108115	16510.613157
628.454600	16227.864920
628.801032	16337.986405
629.147412	16276.897703
629.493739	16284.797191
629.840014	16093.157728
630.186236	16190.938468
630.532405	15949.648681
630.878521	16155.758776
631.224585	16056.788323
631.570597	15873.688574
631.916556	15907.013122
632.262462	15888.318003
632.608316	15793.955165
632.954117	15740.110600
633.299866	15739.533388
633.645562	15648.195242
633.991206	15412.118008
634.336797	15279.989365
634.682336	15247.907462
635.027823	15129.281551
635.373257	14997.934287
635.718639	14914.044446
636.063968	14851.566906
