Dividing Wavelength (nm)	Counts (n)	Blue Motor Position (mm): 12.100000	Red Motor Position (mm): 0.000000	
326.493990	2162.947387
326.888308	2162.947387
327.282561	2162.947387
327.676750	2121.627569
328.070874	2118.635645
328.464933	2121.357868
328.858929	2121.309977
329.252859	2128.337345
329.646726	2136.062913
330.040528	2148.696045
330.434265	2161.820689
330.827938	2181.617300
331.221547	2196.987778
331.615091	2215.430840
332.008571	2234.602348
332.401986	2252.813516
332.795338	2271.306989
333.188625	2288.840122
333.581847	2307.305868
333.975006	2324.254228
334.368100	2343.960098
334.761129	2362.632532
335.154095	2379.341436
335.546996	2399.453120
335.939833	2421.747623
336.332606	2439.114398
336.725315	2454.290791
337.117960	2462.666668
337.510540	2476.759214
337.903056	2485.130050
338.295508	2496.253356
338.687896	2505.380365
339.080220	2511.845645
339.472480	2517.963085
339.864676	2523.936852
340.256807	2530.797863
340.648875	2535.168543
341.040879	2534.848430
341.432818	2538.251208
341.824694	2542.294214
342.216506	2540.673483
342.608253	2543.181457
342.999937	2544.260264
343.391557	2542.541230
343.783113	2542.135417
344.174605	2544.008206
344.566033	2541.117104
344.957397	2541.951415
345.348697	2537.888245
345.739934	2538.079809
346.131106	2533.555374
346.522215	2533.404139
346.913260	2532.441279
347.304241	2529.971113
347.695159	2528.347862
348.086012	2527.828623
348.476802	2525.073632
348.867528	2519.656912
349.258191	2515.581140
349.648789	2517.282529
350.039324	2512.730367
350.429796	2518.658764
350.820203	2516.012158
351.210548	2515.606345
351.600828	2512.511077
351.991045	2511.187774
352.381198	2510.839934
352.771288	2509.788854
353.161314	2505.702999
353.551276	2508.606703
353.941175	2505.871877
354.331010	2507.457320
354.720782	2506.237361
355.110490	2509.892198
355.500135	2507.139728
355.889717	2508.654594
356.279235	2506.607886
356.668689	2508.064779
357.058080	2508.253823
357.447408	2509.309944
357.836672	2509.851868
358.225873	2508.394975
358.615010	2508.619306
359.004084	2508.641991
359.393095	2509.451097
359.782043	2508.087464
360.170927	2510.527383
360.559748	2510.736591
360.948505	2514.136849
361.337199	2512.440501
361.725830	2514.351098
362.114398	2514.033505
362.502903	2514.189781
362.891344	2515.389576
363.279722	2515.782786
363.668037	2517.564834
364.056289	2514.784637
364.444478	2515.901253
364.832603	2516.097858
365.220665	2518.114319
365.608665	2517.509381
365.996601	2514.976201
366.384474	2518.850328
366.772284	2520.254289
367.160031	2519.145235
367.547715	2521.312932
367.935336	2520.367715
368.322893	2517.055677
368.710388	2517.053157
369.097820	2519.614063
369.485189	2518.782272
369.872495	2523.135309
370.259738	2521.837212
370.646918	2520.765966
371.034035	2521.403672
371.421090	2524.030113
371.808081	2526.868283
372.195010	2523.755371
372.581875	2524.221677
372.968678	2523.155473
373.355418	2520.395442
373.742096	2524.456091
374.128710	2522.784948
374.515262	2522.434588
374.901751	2530.003881
375.288177	2523.664630
375.674540	2522.028775
376.060841	2526.800227
376.447079	2525.121523
376.833254	2525.141688
377.219367	2525.532377
377.605417	2524.975330
377.991404	2528.035310
378.377329	2526.805269
378.763191	2530.689478
379.148991	2526.165042
379.534727	2525.877696
379.920402	2527.478263
380.306013	2525.061029
380.691563	2529.194776
381.077049	2525.537418
381.462474	2528.211751
381.847835	2529.708973
382.233134	2527.032121
382.618371	2531.286854
383.003545	2530.334076
383.388657	2530.046731
383.773706	2530.908768
384.158693	2533.867925
384.543618	2529.275434
384.928480	2530.134951
385.313280	2530.092101
385.698017	2531.150743
386.082692	2531.319622
386.467305	2531.491021
386.851856	2532.027904
387.236344	2532.365661
387.620770	2530.185362
388.005133	2529.605630
388.389435	2531.254087
388.773674	2526.540608
389.157851	2533.814993
389.541965	2531.894313
389.926018	2535.917154
390.310008	2531.697708
390.693936	2537.154757
391.077802	2534.646783
391.461606	2532.191742
391.845348	2534.611495
392.229027	2535.564273
392.612645	2531.843902
392.996200	2534.777853
393.379694	2534.467823
393.763125	2536.794315
394.146494	2533.729293
394.529801	2537.419418
394.913047	2536.827083
395.296230	2536.204500
395.679351	2536.176774
396.062410	2535.125693
396.445408	2536.171733
396.828343	2537.356404
397.211217	2537.379089
397.594028	2534.062010
397.976778	2536.068389
398.359466	2538.649460
398.742092	2533.724252
399.124656	2536.877494
399.507158	2540.706250
399.889598	2538.765406
400.271977	2540.154244
400.654294	2538.568801
401.036549	2538.185673
401.418742	2538.992258
401.800874	2538.727598
402.182944	2538.775488
402.564952	2537.293389
402.946898	2540.623071
403.328783	2542.261446
403.710606	2539.269522
404.092367	2540.486960
404.474067	2539.861857
404.855705	2538.031918
405.237282	2540.711292
405.618797	2542.379913
406.000250	2542.231199
406.381642	2543.068031
406.762972	2535.155940
407.144240	2537.106867
407.525447	2538.994779
407.906593	2536.713657
408.287677	2541.785057
408.668700	2541.926210
409.049661	2543.685572
409.430560	2540.555016
409.811399	2543.330171
410.192176	2542.861344
410.572891	2544.779503
410.953545	2544.497198
411.334138	2543.277239
411.714669	2544.197249
412.095139	2541.780016
412.475547	2545.177754
412.855894	2543.322609
413.236180	2540.789429
413.616405	2547.060625
413.996568	2542.891591
414.376670	2542.279090
414.756711	2544.419060
415.136691	2545.777651
415.516609	2544.655994
415.896466	2543.640202
416.276262	2545.787733
416.655997	2545.364277
417.035670	2546.964843
417.415283	2547.350491
417.794834	2543.947712
418.174324	2546.012065
418.553753	2546.490974
418.933121	2548.852755
419.312428	2545.961653
419.691674	2545.306303
420.070859	2543.652805
420.449983	2547.078269
420.829045	2547.355532
421.208047	2546.117929
421.586988	2546.375028
421.965867	2547.579864
422.344686	2547.423588
422.723444	2548.164637
423.102141	2547.552137
423.480777	2546.037271
423.859352	2546.536345
424.237866	2548.220090
424.616319	2546.886705
424.994712	2549.404761
425.373044	2551.078424
425.751314	2545.323947
426.129524	2545.676828
426.507673	2545.016437
426.885762	2545.467620
427.263789	2548.772097
427.641756	2549.261088
428.019662	2548.494833
428.397508	2549.505584
428.775292	2552.086655
429.153016	2548.714123
429.530679	2549.528270
429.908282	2548.522559
430.285824	2551.718651
430.663305	2548.706562
431.040726	2547.960471
431.418086	2550.730585
431.795385	2551.222097
432.172624	2548.908208
432.549802	2548.976263
432.926920	2549.475338
433.303977	2550.264278
433.680974	2552.865513
434.057910	2551.075904
434.434786	2551.501881
434.811601	2553.130174
435.188355	2549.258568
435.565050	2551.035575
435.941683	2549.291335
436.318257	2552.736964
436.694770	2553.145297
437.071222	2550.660009
437.447614	2553.286450
437.823946	2550.786038
438.200218	2550.526418
438.576429	2553.132695
438.952580	2551.963147
439.328670	2551.310317
439.704700	2551.096068
440.080670	2552.835267
440.456580	2552.865513
440.832429	2552.280740
441.208218	2551.249824
441.583947	2552.820143
441.959616	2554.319886
442.335224	2554.420709
442.710773	2548.825029
443.086261	2550.639844
443.461689	2553.760318
443.837057	2552.852911
444.212365	2552.303425
444.587612	2549.669422
444.962800	2548.023485
445.337927	2551.985832
445.712995	2548.923331
446.088002	2554.266954
446.462949	2554.748384
446.837837	2554.980277
447.212664	2551.229659
447.587431	2555.197047
447.962139	2552.421892
448.336786	2553.394835
448.711374	2552.802499
449.085901	2554.766028
449.460369	2555.323076
449.834776	2555.713765
450.209124	2552.469783
450.583412	2554.493806
450.957640	2553.765359
451.331808	2557.674774
451.705917	2553.898950
452.079965	2553.662016
452.453954	2553.026830
452.827883	2554.340051
453.201752	2557.594116
453.575562	2555.451625
453.949311	2556.207798
454.323001	2557.082439
454.696632	2554.856769
455.070202	2560.107131
455.443713	2552.626059
455.817164	2555.950700
456.190556	2556.175031
456.563888	2556.049002
456.937160	2557.901626
457.310373	2557.755433
457.683526	2554.950031
458.056619	2553.856100
458.429653	2555.650751
458.802628	2557.742830
459.175542	2556.175031
459.548398	2556.260731
459.921194	2554.201419
460.293930	2558.302398
460.666607	2554.670247
461.039224	2561.458160
461.411782	2559.040927
461.784280	2557.105124
462.156719	2555.393652
462.529099	2558.463715
462.901419	2556.076728
463.273680	2555.892726
463.645882	2554.690411
464.018024	2556.510268
464.390106	2555.703683
464.762130	2558.909857
465.134094	2559.363561
465.505999	2559.446740
465.877845	2557.962120
466.249631	2560.883469
466.621358	2559.492110
466.993026	2558.420865
467.364634	2566.083419
467.736184	2560.013870
468.107674	2561.448078
468.479105	2561.294323
468.850477	2559.219888
469.221790	2560.520506
469.593043	2561.639642
469.964238	2559.292985
470.335373	2562.504200
470.706449	2562.179045
471.077467	2560.124775
471.448425	2561.168294
471.819324	2564.245918
472.190164	2562.257183
472.560945	2564.099725
472.931667	2561.385063
473.302330	2563.038562
473.672934	2560.959086
474.043479	2565.544015
474.413965	2564.382029
474.784393	2561.440516
475.154761	2563.003274
475.525070	2560.984292
475.895321	2563.651062
476.265513	2564.160219
476.635645	2563.613253
477.005719	2564.034190
477.375734	2562.247101
477.745691	2565.506207
478.115588	2564.467729
478.485427	2566.312791
478.855207	2565.896896
479.224928	2566.022925
479.594591	2566.411094
479.964194	2569.682803
480.333739	2567.121897
480.703226	2566.106104
481.072653	2568.954356
481.442022	2565.705332
481.811333	2564.223233
482.180584	2565.176011
482.549777	2565.586865
482.918912	2561.715259
483.287988	2565.997719
483.657005	2568.362020
484.025964	2568.077195
484.394864	2564.654252
484.763706	2567.129458
485.132489	2566.562328
485.501213	2566.383367
485.869879	2569.342525
486.238487	2565.619633
486.607036	2569.423183
486.975527	2568.228430
487.343959	2570.653225
487.712333	2567.129458
488.080648	2566.602658
488.448905	2568.498132
488.817104	2569.045097
489.185244	2569.035014
489.553326	2567.620971
489.921350	2570.355797
490.289315	2569.886969
490.657222	2570.789336
491.025070	2574.817218
491.392861	2570.837227
491.760593	2571.963925
492.128267	2574.078689
492.495883	2568.833368
492.863440	2570.355797
493.230939	2569.942422
493.598380	2570.020560
493.965763	2571.205231
494.333088	2569.708008
494.700354	2568.558625
495.067563	2570.076013
495.434713	2570.007957
495.801805	2570.610375
496.168839	2570.557443
496.535815	2569.831517
496.902733	2572.132803
497.269593	2570.799418
497.636395	2572.278997
498.003139	2570.504511
498.369825	2571.613565
498.736453	2571.616085
499.103023	2569.445868
499.469535	2572.231106
499.835989	2569.879408
500.202385	2567.431927
500.568723	2564.815569
500.935003	2568.639284
501.301226	2563.706515
501.667390	2570.471743
502.033497	2571.933678
502.399546	2572.231106
502.765537	2573.070458
503.131470	2570.580128
503.497345	2572.982238
503.863163	2569.496280
504.228923	2568.672051
504.594625	2572.420149
504.960269	2571.301013
505.325856	2574.986097
505.691385	2571.827814
506.056856	2573.967783
506.422270	2572.478122
506.787625	2574.056004
507.152924	2572.384861
507.518164	2573.587176
507.883347	2572.810839
508.248472	2571.439645
508.613540	2571.391754
508.978550	2574.562640
509.343503	2574.144224
509.708398	2574.718915
510.073236	2575.321333
510.438016	2576.306879
510.802738	2577.494071
511.167403	2575.291086
511.532010	2575.485171
511.896561	2577.809143
512.261053	2575.588514
512.625488	2581.279977
512.989866	2576.785788
513.354186	2578.653536
513.718449	2581.345512
514.082655	2579.422312
514.446803	2580.060018
514.810894	2581.534555
515.174927	2582.013465
515.538904	2583.046902
515.902822	2583.692169
516.266684	2581.975656
516.630488	2583.145204
516.994235	2583.735019
517.357925	2583.689649
517.721558	2586.883220
518.085133	2585.569999
518.448651	2582.552868
518.812112	2582.333578
519.175516	2587.770463
519.538863	2583.576223
519.902152	2589.648292
520.265385	2592.040320
520.628560	2590.434712
520.991678	2590.946390
521.354739	2591.747933
521.717743	2592.337748
522.080690	2591.606781
522.443580	2594.167687
522.806413	2595.496031
523.169189	2595.301947
523.531908	2598.087184
523.894569	2596.194231
524.257174	2596.847060
524.619722	2601.696650
524.982213	2600.390991
525.344647	2600.075919
525.707025	2603.682865
526.069345	2600.640528
526.431608	2601.016094
526.793815	2603.435848
527.155964	2604.630602
527.518057	2603.115735
527.880093	2604.996085
528.242072	2604.905345
528.603995	2608.885336
528.965860	2607.801487
529.327669	2607.718308
529.689421	2608.164451
530.051117	2608.983638
530.412755	2610.616972
530.774337	2613.150152
531.135862	2611.126128
531.497331	2613.442539
531.858743	2613.104781
532.220098	2613.739967
532.581396	2615.451438
532.942638	2615.378342
533.303824	2615.706017
533.664953	2615.703496
534.026025	2615.222066
534.387040	2620.353961
534.747999	2618.728188
535.108902	2620.898405
535.469748	2621.362191
535.830537	2620.056532
536.191270	2625.581637
536.551947	2619.754063
536.912567	2622.879579
537.273131	2624.268417
537.633638	2623.159363
537.994089	2624.487707
538.354483	2625.957203
538.714821	2629.002060
539.075103	2629.380147
539.435328	2629.508696
539.795497	2629.551546
540.155609	2629.160856
540.515665	2631.036166
540.875665	2631.073974
541.235609	2631.537760
541.595496	2632.379633
541.955328	2631.305867
542.315102	2636.447844
542.674821	2635.419449
543.034483	2633.231588
543.394090	2636.578914
543.753640	2639.343987
544.113134	2640.395068
544.472571	2637.662762
544.831953	2639.890952
545.191278	2637.892135
545.550548	2638.149234
545.909761	2642.386323
546.268918	2643.273567
546.628019	2643.157620
546.987064	2643.644091
547.346053	2642.913124
547.704986	2643.349184
548.063863	2648.090389
548.422684	2646.600728
548.781449	2646.192395
549.140158	2646.633496
549.498811	2647.016623
549.857408	2646.953609
550.215949	2649.020482
550.574434	2647.130049
550.932864	2650.109371
551.291237	2651.939310
551.649555	2652.329999
552.007817	2651.157931
552.366022	2652.730771
552.724173	2649.748929
553.082267	2652.027530
553.440305	2655.203457
553.798288	2651.939310
554.156215	2656.292346
554.514086	2653.917963
554.871902	2653.413847
555.229661	2653.106337
555.587365	2652.750936
555.945014	2658.507933
556.302606	2658.535660
556.660143	2659.894251
557.017625	2660.584889
557.375050	2661.514982
557.732421	2663.261742
558.089735	2664.464057
558.446994	2665.174859
558.804197	2666.598985
559.161345	2667.208965
559.518437	2662.971875
559.875474	2666.649397
560.232455	2668.252484
560.589381	2669.144768
560.946251	2669.580828
561.303065	2672.025787
561.659825	2675.136179
562.016528	2670.863802
562.373177	2675.431087
562.729770	2674.173319
563.086307	2676.570388
563.442789	2678.745646
563.799216	2679.602642
564.155587	2676.615758
564.511904	2681.223373
564.868164	2681.581295
565.224370	2685.674712
565.580520	2683.622962
565.936615	2688.217974
566.292654	2686.335103
566.648638	2688.805268
567.004567	2691.076308
567.360441	2691.628314
567.716260	2691.320804
568.072023	2694.501772
568.427732	2695.522606
568.783385	2695.688964
569.138982	2697.801207
569.494525	2701.793801
569.850013	2706.184646
570.205445	2703.437217
570.560823	2701.166177
570.916145	2706.010726
571.271412	2706.487115
571.626625	2714.132025
571.981782	2717.897767
572.336884	2711.598845
572.691931	2714.941130
573.046923	2712.085317
573.401860	2715.493137
573.756743	2723.692573
574.111570	2726.926473
574.466342	2727.889334
574.821059	2731.539129
575.175722	2732.280179
575.530330	2735.118348
575.884882	2737.137331
576.239380	2743.625296
576.593823	2744.774679
576.948211	2749.099989
577.302544	2747.393558
577.656823	2748.976480
578.011047	2752.369177
578.365216	2756.661719
578.719330	2759.298243
579.073389	2764.155395
579.427394	2776.153341
579.781344	2771.510438
580.135239	2775.765172
580.489080	2778.489916
580.842866	2778.931017
581.196597	2796.164201
581.550273	2794.170425
581.903895	2801.953966
582.257463	2808.522590
582.610975	2811.065852
582.964434	2819.406441
583.317837	2823.615804
583.671186	2834.088801
584.024481	2841.867302
584.377721	2841.131293
584.730906	2849.804598
585.084037	2855.987574
585.437113	2861.426979
585.790135	2873.853423
586.143103	2875.159082
586.496016	2878.375338
586.848874	2893.440826
587.201679	2894.905281
587.554428	2900.097670
587.907124	2916.529311
588.259765	2925.943666
588.612352	2938.816252
588.964884	2936.580500
589.317362	2945.755400
589.669786	2958.834674
590.022155	2969.564770
590.374470	2985.847697
590.726731	2991.874396
591.078937	2993.709376
591.431090	3007.854854
591.783188	3011.844927
592.135232	3020.954292
592.487222	3037.968186
592.839157	3050.160217
593.191038	3059.113306
593.542866	3062.175807
593.894639	3073.651994
594.246358	3095.460025
594.598022	3101.365737
594.949633	3108.128445
595.301190	3114.747480
595.652692	3135.073412
596.004141	3152.833397
596.355535	3146.922644
596.706876	3159.197854
597.058162	3174.681758
597.409395	3186.281453
597.760573	3205.886500
598.111698	3211.159547
598.462768	3227.215622
598.813785	3239.422776
599.164748	3247.503746
599.515657	3263.111158
599.866511	3273.092643
600.217312	3301.575162
600.568060	3295.636683
600.918753	3333.359637
601.269392	3348.273891
601.619978	3350.844879
601.970510	3386.606825
602.320988	3398.317425
602.671412	3425.690890
603.021783	3437.477108
603.372100	3445.021195
603.722363	3474.116214
604.072572	3494.691684
604.422728	3518.369983
604.772830	3536.253477
605.122878	3539.799928
605.472872	3571.549115
605.822813	3593.848659
606.172701	3611.850620
606.522534	3645.523007
606.872314	3668.540915
607.222041	3677.443593
607.571714	3714.412895
607.921333	3737.627408
608.270899	3766.160339
608.620411	3813.421156
608.969870	3809.078202
609.319276	3844.633460
609.668627	3880.218965
610.017926	3922.088268
610.367171	3957.522539
610.716362	4005.095908
611.065500	4005.073222
611.414585	4046.907238
611.763616	4073.849684
612.112594	4103.776494
612.461518	4122.191829
612.810389	4173.969520
613.159207	4182.342877
613.507971	4210.165005
613.856682	4286.520842
614.205340	4314.184173
614.553945	4375.764388
614.902496	4362.365001
615.250994	4441.440541
615.599439	4465.703614
615.947830	4494.463397
616.296169	4526.714178
616.644454	4579.023711
616.992686	4593.280094
617.340864	4670.666847
617.688990	4691.819529
618.037063	4766.363071
618.385082	4790.293428
618.733048	4856.856823
619.080961	4880.961100
619.428821	4940.348413
619.776628	4974.446778
620.124382	4992.254654
620.472083	5042.310791
620.819731	5089.886680
621.167326	5070.881530
621.514868	5103.792703
621.862357	5115.354590
622.209793	5144.666379
622.557176	5154.388244
622.904506	5144.626049
623.251783	5169.335265
623.599007	5181.741545
623.946179	5209.167942
624.293297	5229.350202
624.640363	5228.266353
624.987376	5253.767030
625.334336	5247.901648
625.681243	5263.090644
626.028097	5287.504952
626.374899	5342.997974
626.721647	5331.052960
627.068343	5336.772149
627.414987	5361.730902
627.761577	5418.030508
628.108115	5465.034226
628.454600	5434.613383
628.801032	5478.453778
629.147412	5508.922512
629.493739	5556.425304
629.840014	5570.341409
630.186236	5615.101814
630.532405	5607.782059
630.878521	5697.817067
631.224585	5709.328542
631.570597	5726.347477
631.916556	5754.386375
632.262462	5789.210665
632.608316	5832.035267
632.954117	5848.565211
633.299866	5890.976438
633.645562	5914.289254
633.991206	5884.881683
634.336797	5867.653540
634.682336	5917.069450
635.027823	5909.553090
635.373257	5930.728457
635.718639	5917.492907
636.063968	5941.375374
636.409245	5917.392084
636.754470	5957.096212
637.099642	5951.432476
637.444762	5911.607360
637.789829	5973.149766
638.134845	5959.861285
638.479808	6002.673284
638.824719	6023.586511
639.169577	6007.767370
639.514383	6054.982817
639.859137	6034.145207
640.203839	6101.923521
640.548489	6072.906639
640.893086	6124.573425
641.237632	6092.161326
641.582125	6195.880546
641.926566	6175.743657
642.270955	6203.757349
642.615292	6228.310289
642.959576	6263.613489
643.303809	6320.084495
643.647990	6317.904196
643.992118	6394.625516
644.336195	6328.236040
