Dividing Wavelength (nm)	Counts (n)	Blue Motor Position (mm): 31.000000	Red Motor Position (mm): 0.000000	
326.493990	2213.434543
326.888308	2213.434543
327.282561	2213.434543
327.676750	2177.135714
328.070874	2173.022133
328.464933	2173.954746
328.858929	2178.438853
329.252859	2181.592094
329.646726	2192.115503
330.040528	2204.161340
330.434265	2214.475541
330.827938	2235.260218
331.221547	2253.564648
331.615091	2269.141813
332.008571	2286.153187
332.401986	2304.414767
332.795338	2324.828919
333.188625	2344.156703
333.581847	2365.571525
333.975006	2382.615666
334.368100	2400.637791
334.761129	2418.501119
335.154095	2434.663059
335.546996	2462.623818
335.939833	2500.233347
336.332606	2515.865965
336.725315	2527.949611
337.117960	2538.024357
337.510540	2550.564227
337.903056	2563.688871
338.295508	2569.150961
338.687896	2577.897363
339.080220	2586.807602
339.472480	2593.857656
339.864676	2601.401743
340.256807	2604.058431
340.648875	2607.751076
341.040879	2610.082610
341.432818	2616.704165
341.824694	2617.871192
342.216506	2618.352622
342.608253	2618.506378
342.999937	2618.042592
343.391557	2621.493261
343.783113	2620.696759
344.174605	2617.336830
344.566033	2618.617283
344.957397	2617.881275
345.348697	2616.764659
345.739934	2612.252826
346.131106	2610.158227
346.522215	2610.740480
346.913260	2607.735952
347.304241	2604.174377
347.695159	2603.261928
348.086012	2604.199583
348.476802	2600.638008
348.867528	2595.624580
349.258191	2592.589806
349.648789	2594.727255
350.039324	2587.641913
350.429796	2591.029569
350.820203	2592.229363
351.210548	2590.480083
351.600828	2589.560072
351.991045	2586.505133
352.381198	2586.653847
352.771288	2586.842890
353.161314	2586.316090
353.551276	2584.753332
353.941175	2586.442119
354.331010	2582.217632
354.720782	2584.140832
355.110490	2585.285174
355.500135	2585.118816
355.889717	2584.856676
356.279235	2582.378949
356.668689	2584.385328
357.058080	2584.788620
357.447408	2584.045050
357.836672	2586.873137
358.225873	2589.804568
358.615010	2588.267016
359.004084	2584.919690
359.393095	2587.752819
359.782043	2586.162335
360.170927	2589.522264
360.559748	2590.893457
360.948505	2587.972109
361.337199	2592.599888
361.725830	2589.733992
362.114398	2590.028900
362.502903	2591.715166
362.891344	2591.657192
363.279722	2592.577203
363.668037	2593.645928
364.056289	2593.373705
364.444478	2594.691967
364.832603	2594.659199
365.220665	2595.228850
365.608665	2598.586258
365.996601	2597.336052
366.384474	2596.075764
366.772284	2598.261104
367.160031	2597.199941
367.547715	2597.396546
367.935336	2595.306988
368.322893	2596.942842
368.710388	2594.898654
369.097820	2599.057606
369.485189	2596.007708
369.872495	2599.947370
370.259738	2599.707915
370.646918	2598.578697
371.034035	2600.698502
371.421090	2601.464757
371.808081	2602.472988
372.195010	2600.595158
372.581875	2603.103132
372.968678	2601.106835
373.355418	2600.327977
373.742096	2604.814604
374.128710	2604.600355
374.515262	2602.162957
374.901751	2601.089191
375.288177	2604.837289
375.674540	2606.926847
376.060841	2606.916765
376.447079	2604.129007
376.833254	2605.691765
377.219367	2605.759820
377.605417	2606.236209
377.991404	2605.417022
378.377329	2606.480705
378.763191	2604.713781
379.148991	2608.298041
379.534727	2607.768720
379.920402	2608.371138
380.306013	2607.080602
380.691563	2607.998092
381.077049	2608.540017
381.462474	2607.592280
381.847835	2609.523042
382.233134	2607.867022
382.618371	2610.183433
383.003545	2608.802157
383.388657	2610.445573
383.773706	2611.262240
384.158693	2611.973042
384.543618	2611.433639
384.928480	2611.405912
385.313280	2610.395161
385.698017	2613.503033
386.082692	2613.908845
386.467305	2610.357352
386.851856	2613.671911
387.236344	2615.285080
387.620770	2611.617641
388.005133	2610.538834
388.389435	2612.842641
388.773674	2609.570932
389.157851	2615.096037
389.541965	2614.632251
389.926018	2617.021758
390.310008	2613.825666
390.693936	2617.475462
391.077802	2618.511419
391.461606	2615.879937
391.845348	2615.408589
392.229027	2617.745163
392.612645	2619.565020
392.996200	2619.887654
393.379694	2618.236676
393.763125	2621.440329
394.146494	2618.695421
394.529801	2619.451594
394.913047	2621.115175
395.296230	2619.764146
395.679351	2621.647017
396.062410	2621.949486
396.445408	2621.115175
396.828343	2622.390587
397.211217	2621.510905
397.594028	2622.267078
397.976778	2624.540639
398.359466	2625.271606
398.742092	2625.916874
399.124656	2624.525515
399.507158	2626.423510
399.889598	2625.264044
400.271977	2624.853190
400.654294	2625.785804
401.036549	2629.884262
401.418742	2626.438633
401.800874	2628.833181
402.182944	2631.396608
402.564952	2629.670013
402.946898	2630.862246
403.328783	2629.246556
403.710606	2631.154633
404.092367	2631.731845
404.474067	2630.098511
404.855705	2633.594551
405.237282	2633.738224
405.618797	2635.091774
406.000250	2636.783081
406.381642	2636.213431
406.762972	2633.705457
407.144240	2632.248563
407.525447	2637.279635
407.906593	2632.997174
408.287677	2634.116311
408.668700	2640.752990
409.049661	2640.689975
409.430560	2641.425984
409.811399	2638.683596
410.192176	2645.337919
410.572891	2642.628299
410.953545	2646.217600
411.334138	2643.513021
411.714669	2645.040491
412.095139	2644.027219
412.475547	2645.534524
412.855894	2645.627785
413.236180	2646.020995
413.616405	2648.924700
413.996568	2649.789258
414.376670	2649.678352
414.756711	2649.277581
415.136691	2648.597025
415.516609	2650.742036
415.896466	2655.521050
416.276262	2655.238745
416.655997	2657.744199
417.035670	2657.121616
417.415283	2660.131185
417.794834	2662.969355
418.174324	2661.550270
418.553753	2665.116886
418.933121	2674.984945
419.312428	2679.602642
419.691674	2687.066070
420.070859	2695.930939
420.449983	2701.945036
420.829045	2714.187478
421.208047	2724.478993
421.586988	2743.443814
421.965867	2760.583737
422.344686	2784.423354
422.723444	2804.698874
423.102141	2809.556026
423.480777	2858.815661
423.859352	2875.887528
424.237866	2935.446241
424.616319	2972.387816
424.994712	3035.671941
425.373044	3061.056671
425.751314	3145.324599
426.129524	3185.149714
426.507673	3258.080087
426.885762	3336.911130
427.263789	3402.327663
427.641756	3464.825368
428.019662	3553.564799
428.397508	3662.776356
428.775292	3700.373281
429.153016	3847.408615
429.530679	3907.741145
429.908282	4004.001977
430.285824	4033.550701
430.663305	4268.108027
431.040726	4249.667487
431.418086	4336.912216
431.795385	4513.592055
432.172624	4643.394205
432.549802	4720.967480
432.926920	4856.728274
433.303977	4916.234054
433.680974	5085.364765
434.057910	5232.334565
434.434786	5357.589594
434.811601	5428.223721
435.188355	5755.538278
435.565050	5767.790803
435.941683	5855.993351
436.318257	6194.721081
436.694770	6375.040633
437.071222	6542.293515
437.447614	6590.648263
437.823946	6662.862792
438.200218	6874.324072
438.576429	6885.447378
438.952580	7135.244113
439.328670	7300.185625
439.704700	7295.693957
440.080670	7399.768578
440.456580	7879.845221
440.832429	7840.103285
441.208218	7697.458795
441.583947	8029.426338
441.959616	8239.057679
442.335224	8223.825833
442.710773	8440.713916
443.086261	8700.446765
443.461689	8279.018906
443.837057	8846.042849
444.212365	9177.649949
444.587612	9006.341459
444.962800	9300.487745
445.337927	9215.251916
445.712995	8948.970608
446.088002	9934.932080
446.462949	9728.932890
446.837837	9790.624010
447.212664	9891.948682
447.587431	10382.301717
447.962139	11054.900024
448.336786	13062.053072
448.711374	13702.458572
449.085901	11901.992832
449.460369	11623.801798
449.834776	11207.921729
450.209124	12024.727284
450.583412	12431.566043
450.957640	13405.915217
451.331808	12709.638610
451.705917	11799.569188
452.079965	11217.782226
452.453954	12097.355187
452.827883	11794.006275
453.201752	12098.083634
453.575562	11663.863847
453.949311	12092.808066
454.323001	12081.568814
454.696632	12309.738999
455.070202	12610.282509
455.443713	12899.191036
455.817164	13359.612219
456.190556	13397.567067
456.563888	13760.827572
456.937160	13964.996823
457.310373	13322.900016
457.683526	13413.587853
458.056619	12990.309891
458.429653	13123.966003
458.802628	12607.149432
459.175542	12959.541209
459.548398	13910.343153
459.921194	14238.716353
460.293930	14300.956959
460.666607	15198.357961
461.039224	16226.105558
461.411782	16908.423210
461.784280	16844.776122
462.156719	16883.502266
462.529099	16589.035867
462.901419	15504.948335
463.273680	15314.491022
463.645882	15175.574466
464.018024	14906.623867
464.390106	15133.858918
464.762130	15861.408324
465.134094	16601.333762
465.505999	18555.108552
465.877845	21802.445940
466.249631	24646.307018
466.621358	24383.395722
466.993026	22923.598555
467.364634	22380.895659
467.736184	20942.699837
468.107674	20131.870570
468.479105	20257.226422
468.850477	19720.661130
469.221790	19302.270567
469.593043	18638.774062
469.964238	18080.877128
470.335373	17765.479858
470.706449	18165.450045
471.077467	17711.544553
471.448425	19520.086221
471.819324	23488.532941
472.190164	25601.842606
472.560945	22115.584773
472.931667	19712.343226
473.302330	19063.582014
473.672934	18531.755407
474.043479	18917.708666
474.413965	18728.080623
474.784393	18358.972379
475.154761	19029.634884
475.525070	19044.060146
475.895321	18694.703143
476.265513	19270.609600
476.635645	19858.130875
477.005719	19641.981321
477.375734	19839.902062
477.745691	20317.659774
478.115588	20831.058444
478.485427	21334.783139
478.855207	22379.451368
479.224928	24125.144972
479.594591	26335.958114
479.964194	26428.286847
480.333739	26625.766487
480.703226	26191.854211
481.072653	25854.411976
481.442022	26404.212817
481.811333	27316.144945
482.180584	27258.746367
482.549777	26315.259137
482.918912	25945.198115
483.287988	26070.495994
483.657005	25762.131134
484.025964	25476.862320
484.394864	25411.566775
484.763706	25119.429389
485.132489	24531.645974
485.501213	24715.451484
485.869879	24622.122082
486.238487	24420.604478
486.607036	24581.475259
486.975527	24259.610189
487.343959	24588.056485
487.712333	24549.085846
488.080648	24211.827612
488.448905	24688.483832
488.817104	24422.346197
489.185244	25095.065492
489.553326	25072.929786
489.921350	26047.357098
490.289315	28301.405697
490.657222	30109.589443
491.025070	30613.026793
491.392861	30402.130122
491.760593	29558.258612
492.128267	28661.356684
492.495883	27621.893446
492.863440	26756.876817
493.230939	25871.262032
493.598380	25722.752161
493.965763	25317.221581
494.333088	24881.365940
494.700354	24798.023064
495.067563	24682.852863
495.434713	24426.341311
495.801805	24581.331586
496.168839	24404.520677
496.535815	24224.677513
496.902733	24443.753457
497.269593	24117.396718
497.636395	24304.811695
498.003139	24289.181597
498.369825	24028.629561
498.736453	24213.143353
499.103023	24104.929945
499.469535	24122.233705
499.835989	24317.981709
500.202385	24353.705846
500.568723	23849.910575
500.935003	24115.334886
501.301226	23718.071799
501.667390	24544.493354
502.033497	24785.924294
502.399546	24522.002247
502.765537	24101.408699
503.131470	24472.588857
503.497345	24614.527584
503.863163	23835.379449
504.228923	24446.193375
504.594625	24646.617049
504.960269	24155.293592
505.325856	24648.540249
505.691385	24048.900040
506.056856	24668.110008
506.422270	24622.071671
506.787625	24216.835998
507.152924	24631.443176
507.518164	24642.848787
507.883347	24459.403719
508.248472	24146.708507
508.613540	24936.611945
508.978550	24703.657705
509.343503	24704.124012
509.708398	24967.345339
510.073236	25115.648523
510.438016	25323.800286
510.802738	25010.104406
511.167403	25250.759008
511.532010	24945.509581
511.896561	25741.913586
512.261053	25702.529572
512.625488	25547.808999
512.989866	25430.445896
513.354186	25270.648881
513.718449	25377.932196
514.082655	25751.514464
514.446803	25501.697564
514.810894	25952.202798
515.174927	25441.591887
515.538904	25474.072041
515.902822	25969.466230
516.266684	25715.694545
516.630488	25621.835822
516.994235	25610.084893
517.357925	25899.971403
517.721558	26087.958551
518.085133	26167.845716
518.448651	26100.475736
518.812112	25823.229918
519.175516	26009.563568
519.538863	26175.659504
519.902152	25963.515148
520.265385	26244.385555
520.628560	26028.649376
520.991678	26047.188219
521.354739	26129.742155
521.717743	26190.205754
522.080690	25980.062735
522.443580	26311.886605
522.806413	26311.533724
523.169189	26396.381384
523.531908	26448.237213
523.894569	26053.174589
524.257174	26126.530940
524.619722	26317.754508
524.982213	26006.312023
525.344647	26065.308647
525.707025	26209.314247
526.069345	26182.253334
526.431608	26136.151982
526.793815	26318.440105
527.155964	25783.384638
527.518057	25960.102287
527.880093	25888.366667
528.242072	26113.912932
528.603995	25820.245555
528.965860	25620.131912
529.327669	25673.550499
529.689421	25664.083212
530.051117	25492.290771
530.412755	25670.117473
530.774337	25462.154754
531.135862	25336.193963
531.497331	25542.682145
531.858743	25082.961682
532.220098	25575.021147
532.581396	25254.434009
532.942638	25196.185997
533.303824	25283.738237
533.664953	25307.025847
534.026025	24956.388391
534.387040	25205.396185
534.747999	25263.399702
535.108902	25437.967298
535.469748	24919.187196
535.830537	25102.891884
536.191270	25227.340328
536.551947	25096.971048
536.912567	24746.948613
537.273131	25092.416366
537.633638	24801.985411
537.994089	25014.046588
538.354483	24551.059457
538.714821	25045.258892
539.075103	25093.172539
539.435328	24882.384253
539.795497	24436.007724
540.155609	24845.782955
540.515665	25125.851819
540.875665	24373.484813
541.235609	24658.597351
541.595496	24620.725683
541.955328	24982.884696
542.315102	24893.613423
542.674821	24449.192862
543.034483	24326.770961
543.394090	24488.954963
543.753640	24280.987202
544.113134	24914.201495
544.472571	24521.530899
544.831953	24807.313910
545.191278	24417.693212
545.550548	24356.105435
545.909761	24549.952924
546.268918	24778.816267
546.628019	24742.262861
546.987064	24453.356855
547.346053	24203.613052
547.704986	24329.004192
548.063863	24487.495548
548.422684	24490.308512
548.781449	24032.876733
549.140158	24432.176447
549.498811	24004.303473
549.857408	23746.758485
550.215949	24180.945504
550.574434	23861.109498
550.932864	24088.989816
551.291237	24233.784358
551.649555	24103.820891
552.007817	24155.454909
552.366022	24031.437483
552.724173	24064.658687
553.082267	24004.371528
553.440305	24473.607170
553.798288	23739.625252
554.156215	24254.105249
554.514086	24361.103739
554.871902	23713.302867
555.229661	24014.375698
555.587365	23861.076730
555.945014	23719.964752
556.302606	23985.810000
556.660143	23930.221197
557.017625	24180.849722
557.375050	23707.697104
557.732421	24104.476241
558.089735	23912.763681
558.446994	23979.478311
558.804197	23988.307892
559.161345	23945.659730
559.518437	23710.411765
559.875474	23906.152207
560.232455	24086.774229
560.589381	23893.745928
560.946251	23882.486511
561.303065	24209.879206
561.659825	24299.016888
562.016528	23891.948757
562.373177	23638.242607
562.729770	23997.734849
563.086307	23856.814435
563.442789	24019.258056
563.799216	23858.407439
564.155587	23864.910528
564.511904	23838.860365
564.868164	23772.294449
565.224370	23754.468929
565.580520	23668.754191
565.936615	23802.516167
566.292654	23483.234688
566.648638	23785.625781
567.004567	23609.182876
567.360441	23557.170771
567.716260	23283.345376
568.072023	23615.958186
568.427732	23368.039281
568.783385	23156.799812
569.138982	23389.880080
569.494525	23435.873048
569.850013	23163.295338
570.205445	23268.060598
570.560823	23074.170259
570.916145	22824.804543
571.271412	23014.203213
571.626625	22755.904573
571.981782	22886.621692
572.336884	22685.903110
572.691931	22824.938133
573.046923	22549.625598
573.401860	22440.426644
573.756743	22447.854785
574.111570	22349.466585
574.466342	22287.281432
574.821059	22366.233463
575.175722	22076.989699
575.530330	22059.741391
575.884882	22092.861772
576.239380	21988.366214
576.593823	21876.326570
576.948211	21862.009693
577.302544	21710.011343
577.656823	21572.193759
578.011047	21665.729848
578.365216	21543.149151
578.719330	21419.537538
579.073389	21314.063997
579.427394	21482.486426
579.781344	21236.372254
580.135239	21122.570727
580.489080	21093.599215
580.842866	20866.434741
581.196597	21058.288453
581.550273	21026.808968
581.903895	20913.418295
582.257463	21230.915205
582.610975	20764.855491
582.964434	21073.386709
583.317837	20768.512848
583.671186	20872.252232
584.024481	20830.450985
584.377721	20610.568457
584.730906	20678.291317
585.084037	20688.121567
585.437113	20606.981676
585.790135	20806.024074
586.143103	20260.034345
586.496016	20282.764907
586.848874	20519.381545
587.201679	20451.293201
587.554428	20134.650766
587.907124	20462.804676
588.259765	20232.204655
588.612352	20314.113323
588.964884	19884.491068
589.317362	20060.450023
589.669786	20107.625140
590.022155	20140.218721
590.374470	20322.605146
590.726731	20133.287134
591.078937	19896.085722
591.431090	19993.226236
591.783188	19742.441435
592.135232	19708.693431
592.487222	19808.016764
592.839157	19835.526341
593.191038	19714.352126
593.542866	19603.066134
593.894639	19307.273912
594.246358	19537.606752
594.598022	19434.260577
594.949633	19192.592703
595.301190	19158.930398
595.652692	19322.445264
596.004141	19560.826306
596.355535	18888.989212
596.706876	18908.029651
597.058162	18797.209966
597.409395	19028.140182
597.760573	19107.303942
598.111698	18870.157982
598.462768	18822.108224
598.813785	18778.141801
599.164748	18596.110777
599.515657	18625.959449
599.866511	18427.481660
600.217312	18792.955232
600.568060	18316.856060
600.918753	18616.802193
601.269392	18518.887862
601.619978	18301.692269
601.970510	18520.511113
602.320988	18454.335887
602.671412	18659.906579
603.021783	18584.954703
603.372100	18303.807033
603.722363	18433.031971
604.072572	18383.709321
604.422728	18528.617289
604.772830	18282.119989
605.122878	18237.266323
605.472872	18223.511534
605.822813	18210.132312
606.172701	18188.094908
606.522534	18383.399290
606.872314	18402.071724
607.222041	18229.949088
607.571714	18452.238767
607.921333	18284.953117
608.270899	18351.826544
608.620411	18535.349750
608.969870	18311.905647
609.319276	18308.724678
609.668627	18338.326334
610.017926	18468.524214
610.367171	18582.671061
610.716362	18631.729049
611.065500	18442.920194
611.414585	18586.162060
611.763616	18561.036949
612.112594	18505.586777
612.461518	18470.081931
612.810389	18669.452004
613.159207	18523.281227
613.507971	18440.702086
613.856682	18713.045382
614.205340	18639.552920
614.553945	18786.563049
614.902496	18523.132513
615.250994	18764.326519
615.599439	18705.713023
615.947830	18686.879272
616.296169	18732.547085
616.644454	18705.556748
616.992686	18686.730558
617.340864	18886.753461
617.688990	18652.380136
618.037063	18819.081012
618.385082	18672.320420
618.733048	18959.890521
619.080961	18815.549683
619.428821	18862.903762
619.776628	18742.495802
620.124382	18680.149332
620.472083	18711.719558
620.819731	18733.361232
621.167326	18424.358665
621.514868	18466.273339
621.862357	18238.327486
622.209793	18254.005474
622.557176	18071.767762
622.904506	17899.292245
623.251783	17814.424420
623.599007	17578.069922
623.946179	17517.414759
624.293297	17467.719065
624.640363	17212.563583
624.987376	17236.801451
625.334336	17028.037188
625.681243	16874.193775
626.028097	16881.067389
626.374899	16807.121223
626.721647	16668.991088
627.068343	16499.502454
627.414987	16436.092300
627.761577	16416.769558
628.108115	16447.132427
628.454600	16176.119997
628.801032	16271.833864
629.147412	16208.234667
629.493739	16219.128601
629.840014	16028.477203
630.186236	16136.143647
630.532405	15897.261010
630.878521	16084.539875
631.224585	15980.944164
631.570597	15803.281299
631.916556	15846.438617
632.262462	15816.738659
632.608316	15733.484004
632.954117	15685.058680
633.299866	15676.463512
633.645562	15595.837818
633.991206	15352.841600
634.336797	15217.899994
634.682336	15188.996538
635.027823	15071.099073
635.373257	14960.070181
635.718639	14856.177041
636.063968	14806.478826
636.409245	14555.305856
636.754470	14582.896091
