Dividing Wavelength (nm)	Counts (n)	Blue Motor Position (mm): 15.700000	Red Motor Position (mm): 0.000000	
326.493990	2175.242761
326.888308	2175.242761
327.282561	2175.242761
327.676750	2132.095525
328.070874	2131.596451
328.464933	2133.025618
328.858929	2133.272635
329.252859	2139.937040
329.646726	2147.682773
330.040528	2160.726759
330.434265	2173.914417
330.827938	2192.942252
331.221547	2209.288194
331.615091	2228.409290
332.008571	2245.095509
332.401986	2262.681575
332.795338	2279.690428
333.188625	2300.462502
333.581847	2317.993115
333.975006	2336.451299
334.368100	2356.595750
334.761129	2373.004706
335.154095	2391.029352
335.546996	2413.041550
335.939833	2438.179263
336.332606	2454.638631
336.725315	2467.584314
337.117960	2479.519246
337.510540	2494.042810
337.903056	2502.552277
338.295508	2511.681807
338.687896	2518.041223
339.080220	2527.362316
339.472480	2532.640404
339.864676	2540.272711
340.256807	2545.449976
340.648875	2549.737478
341.040879	2551.784186
341.432818	2554.869372
341.824694	2557.059753
342.216506	2558.753581
342.608253	2559.224929
342.999937	2557.014383
343.391557	2557.198385
343.783113	2559.250135
344.174605	2560.492779
344.566033	2559.587892
344.957397	2556.802655
345.348697	2555.902809
345.739934	2553.634289
346.131106	2549.833259
346.522215	2550.846531
346.913260	2548.187323
347.304241	2543.909904
347.695159	2543.446117
348.086012	2541.953936
348.476802	2540.121477
348.867528	2535.433203
349.258191	2530.293747
349.648789	2531.226361
350.039324	2527.742923
350.429796	2534.800539
350.820203	2530.197965
351.210548	2528.824251
351.600828	2529.671165
351.991045	2530.026566
352.381198	2525.013138
352.771288	2528.778880
353.161314	2524.181348
353.551276	2526.482635
353.941175	2522.197654
354.331010	2524.503982
354.720782	2524.088087
355.110490	2521.519619
355.500135	2523.311749
355.889717	2526.066740
356.279235	2521.973323
356.668689	2522.283354
357.058080	2522.973992
357.447408	2525.071112
357.836672	2523.747809
358.225873	2524.057840
358.615010	2526.729651
359.004084	2526.606143
359.393095	2524.645134
359.782043	2526.472553
360.170927	2526.870804
360.559748	2529.726617
360.948505	2527.175793
361.337199	2529.504807
361.725830	2527.687471
362.114398	2529.477080
362.502903	2527.873993
362.891344	2532.927750
363.279722	2531.738038
363.668037	2533.212575
364.056289	2531.246525
364.444478	2529.673685
364.832603	2532.882380
365.220665	2533.280631
365.608665	2533.691485
365.996601	2536.136444
366.384474	2536.005374
366.772284	2534.142668
367.160031	2536.325488
367.547715	2537.031249
367.935336	2536.252391
368.322893	2532.771474
368.710388	2534.840868
369.097820	2532.670651
369.485189	2533.414221
369.872495	2539.251877
370.259738	2537.341280
370.646918	2541.454862
371.034035	2538.601569
371.421090	2538.566281
371.808081	2540.078627
372.195010	2539.546785
372.581875	2538.571322
372.968678	2541.238092
373.355418	2538.324305
373.742096	2541.101981
374.128710	2538.533513
374.515262	2541.187681
374.901751	2542.851261
375.288177	2543.420912
375.674540	2541.636343
376.060841	2542.266488
376.447079	2542.720191
376.833254	2543.257074
377.219367	2542.765562
377.605417	2543.204142
377.991404	2542.140459
378.377329	2542.087527
378.763191	2543.773792
379.148991	2543.292362
379.534727	2545.334030
379.920402	2542.344625
380.306013	2544.633309
380.691563	2545.951571
381.077049	2547.708413
381.462474	2544.537527
381.847835	2543.501570
382.233134	2543.005017
382.618371	2543.990562
383.003545	2545.792775
383.388657	2545.843186
383.773706	2546.390151
384.158693	2544.819832
384.543618	2547.350491
384.928480	2546.967363
385.313280	2546.138094
385.698017	2547.365615
386.082692	2545.258412
386.467305	2546.133052
386.851856	2547.121119
387.236344	2549.745039
387.620770	2546.420398
388.005133	2542.793288
388.389435	2543.919986
388.773674	2542.773123
389.157851	2547.564740
389.541965	2546.387631
389.926018	2550.692776
390.310008	2550.108002
390.693936	2549.810574
391.077802	2550.387786
391.461606	2548.421736
391.845348	2554.453477
392.229027	2548.056253
392.612645	2550.395348
392.996200	2552.079093
393.379694	2550.155893
393.763125	2551.350647
394.146494	2552.694114
394.529801	2552.094217
394.913047	2552.547921
395.296230	2554.042623
395.679351	2552.583209
396.062410	2554.559341
396.445408	2553.568754
396.828343	2556.099414
397.211217	2552.182437
397.594028	2552.842828
397.976778	2555.232335
398.359466	2553.788045
398.742092	2554.123281
399.124656	2555.985988
399.507158	2554.773590
399.889598	2553.508261
400.271977	2555.365926
400.654294	2558.514126
401.036549	2552.227807
401.418742	2555.996070
401.800874	2555.262582
402.182944	2553.558672
402.564952	2553.001625
402.946898	2556.422047
403.328783	2555.111348
403.710606	2556.795093
404.092367	2556.389280
404.474067	2556.963972
404.855705	2556.036399
405.237282	2557.843653
405.618797	2553.568754
406.000250	2559.585372
406.381642	2558.249466
406.762972	2554.869372
407.144240	2552.628579
407.525447	2554.319886
407.906593	2555.973385
408.287677	2560.754919
408.668700	2559.711400
409.049661	2560.850701
409.430560	2560.452450
409.811399	2559.918088
410.192176	2561.213664
410.572891	2558.627552
410.953545	2559.499672
411.334138	2556.958930
411.714669	2558.733417
412.095139	2560.132337
412.475547	2560.686864
412.855894	2561.816082
413.236180	2561.402708
413.616405	2562.572255
413.996568	2558.544373
414.376670	2562.862122
414.756711	2562.395815
415.136691	2563.058727
415.516609	2559.923129
415.896466	2561.624518
416.276262	2563.351113
416.655997	2560.805331
417.035670	2562.431103
417.415283	2563.872873
417.794834	2561.531257
418.174324	2564.324056
418.553753	2563.446895
418.933121	2562.978068
419.312428	2563.335990
419.691674	2565.937225
420.070859	2563.915723
420.449983	2564.129972
420.829045	2565.052503
421.208047	2564.341700
421.586988	2566.108625
421.965867	2564.893707
422.344686	2564.288768
422.723444	2564.008984
423.102141	2563.971175
423.480777	2563.867832
423.859352	2566.874880
424.237866	2567.444530
424.616319	2565.302040
424.994712	2565.538974
425.373044	2565.478480
425.751314	2564.679458
426.129524	2560.381874
426.507673	2564.008984
426.885762	2561.639642
427.263789	2564.913871
427.641756	2567.510065
428.019662	2565.765826
428.397508	2565.695250
428.775292	2565.259190
429.153016	2567.310940
429.530679	2565.642318
429.908282	2562.698284
430.285824	2566.181721
430.663305	2564.976886
431.040726	2566.569890
431.418086	2564.510579
431.795385	2566.791701
432.172624	2567.638615
432.549802	2564.893707
432.926920	2565.148285
433.303977	2566.234653
433.680974	2571.744635
434.057910	2567.678944
434.434786	2567.459654
434.811601	2569.569377
435.188355	2566.184242
435.565050	2568.714901
435.941683	2565.859087
436.318257	2568.299006
436.694770	2570.257494
437.071222	2565.722976
437.447614	2567.628532
437.823946	2569.332443
438.200218	2567.494942
438.576429	2570.191959
438.952580	2569.113152
439.328670	2569.390416
439.704700	2570.507031
440.080670	2570.398647
440.456580	2566.577452
440.832429	2571.603482
441.208218	2569.012329
441.583947	2571.051476
441.959616	2569.647515
442.335224	2569.178687
442.710773	2571.003585
443.086261	2570.834706
443.461689	2570.365879
443.837057	2572.631878
444.212365	2573.796384
444.587612	2568.147771
444.962800	2566.733728
445.337927	2569.471074
445.712995	2569.758420
446.088002	2570.890159
446.462949	2571.248081
446.837837	2575.986766
447.212664	2570.547361
447.587431	2571.749676
447.962139	2571.293451
448.336786	2573.650191
448.711374	2575.908628
449.085901	2573.662794
449.460369	2574.940726
449.834776	2572.462999
450.209124	2576.054821
450.583412	2573.831672
450.957640	2573.778740
451.331808	2577.136149
451.705917	2573.703123
452.079965	2573.332598
452.453954	2574.030798
452.827883	2575.006261
453.201752	2573.957701
453.575562	2575.530541
453.949311	2574.353432
454.323001	2574.267732
454.696632	2575.744790
455.070202	2574.585325
455.443713	2575.782599
455.817164	2574.338308
456.190556	2575.414595
456.563888	2575.860737
456.937160	2576.629513
457.310373	2576.810994
457.683526	2576.261508
458.056619	2577.761252
458.429653	2577.443659
458.802628	2577.022723
459.175542	2575.676735
459.548398	2576.495922
459.921194	2577.499112
460.293930	2578.436766
460.666607	2581.191757
461.039224	2577.594894
461.411782	2579.684452
461.784280	2578.628330
462.156719	2577.957857
462.529099	2580.009606
462.901419	2580.901891
463.273680	2575.056673
463.645882	2575.522979
464.018024	2577.622620
464.390106	2573.647670
464.762130	2579.787796
465.134094	2578.174626
465.505999	2581.983218
465.877845	2582.459607
466.249631	2584.224011
466.621358	2588.035123
466.993026	2584.705441
467.364634	2587.707448
467.736184	2584.760894
468.107674	2583.311562
468.479105	2583.044381
468.850477	2583.790472
469.221790	2585.890112
469.593043	2585.010431
469.964238	2582.212591
470.335373	2583.551017
470.706449	2585.847262
471.077467	2584.196285
471.448425	2587.581419
471.819324	2583.979515
472.190164	2589.038313
472.560945	2587.813312
472.931667	2584.468507
473.302330	2586.290884
473.672934	2584.813826
474.043479	2584.831470
474.413965	2583.808116
474.784393	2587.052098
475.154761	2588.161152
475.525070	2586.827767
475.895321	2585.837180
476.265513	2586.447160
476.635645	2587.689804
477.005719	2586.295925
477.375734	2587.173086
477.745691	2587.009248
478.115588	2588.143508
478.485427	2589.060998
478.855207	2587.866245
479.224928	2591.891606
479.594591	2591.926894
479.964194	2593.378746
480.333739	2591.936976
480.703226	2590.059147
481.072653	2595.115424
481.442022	2594.444950
481.811333	2593.028386
482.180584	2590.689291
482.549777	2588.120823
482.918912	2587.513364
483.287988	2593.545104
483.657005	2591.667275
484.025964	2594.092070
484.394864	2593.381267
484.763706	2595.559045
485.132489	2595.548963
485.501213	2594.162646
485.869879	2595.140630
486.238487	2593.600557
486.607036	2596.242122
486.975527	2595.019642
487.343959	2595.677513
487.712333	2596.378233
488.080648	2597.426793
488.448905	2595.085177
488.817104	2596.766402
489.185244	2594.840681
489.553326	2598.051896
489.921350	2597.197420
490.289315	2598.971907
490.657222	2602.689757
491.025070	2602.087340
491.392861	2604.116404
491.760593	2602.528441
492.128267	2602.682196
492.495883	2601.121959
492.863440	2600.459047
493.230939	2599.496187
493.598380	2601.129520
493.965763	2599.869232
494.333088	2599.594489
494.700354	2598.803028
495.067563	2601.714294
495.434713	2599.173553
495.801805	2599.823862
496.168839	2600.239757
496.535815	2598.913933
496.902733	2600.252360
497.269593	2601.311002
497.636395	2600.874942
498.003139	2602.180601
498.369825	2599.856629
498.736453	2600.892586
499.103023	2601.890735
499.469535	2603.839141
499.835989	2600.232195
500.202385	2597.232708
500.568723	2601.200097
500.935003	2595.702718
501.301226	2597.318408
501.667390	2604.514655
502.033497	2605.303596
502.399546	2603.088009
502.765537	2605.411981
503.131470	2605.001127
503.497345	2608.280397
503.863163	2608.013216
504.228923	2606.687392
504.594625	2608.814759
504.960269	2607.355345
505.325856	2609.233175
505.691385	2609.376848
506.056856	2611.955398
506.422270	2610.246447
506.787625	2611.935234
507.152924	2610.407764
507.518164	2613.566047
507.883347	2610.727877
508.248472	2615.486727
508.613540	2615.353136
508.978550	2615.524535
509.343503	2614.745677
509.708398	2618.438322
510.073236	2619.612911
510.438016	2619.875051
510.802738	2620.613580
511.167403	2622.206585
511.532010	2622.317490
511.896561	2627.489714
512.261053	2625.606843
512.625488	2626.022738
512.989866	2628.747482
513.354186	2629.097842
513.718449	2629.317132
514.082655	2632.543471
514.446803	2632.692185
514.810894	2636.954480
515.174927	2636.518420
515.538904	2635.336270
515.902822	2637.135962
516.266684	2638.088740
516.630488	2640.876498
516.994235	2644.032260
517.357925	2645.305152
517.721558	2648.355050
518.085133	2648.929741
518.448651	2647.303969
518.812112	2647.702220
519.175516	2649.890081
519.538863	2652.551810
519.902152	2657.051040
520.265385	2663.571772
520.628560	2661.008346
520.991678	2664.317863
521.354739	2664.509427
521.717743	2669.721980
522.080690	2674.629543
522.443580	2673.853206
522.806413	2680.971315
523.169189	2682.743281
523.531908	2684.331244
523.894569	2684.742098
524.257174	2690.083201
524.619722	2691.855166
524.982213	2695.222657
525.344647	2698.345652
525.707025	2704.213555
526.069345	2709.466437
526.431608	2708.553988
526.793815	2717.255020
527.155964	2717.809547
527.518057	2722.202912
527.880093	2724.378170
528.242072	2731.841598
528.603995	2735.367886
528.965860	2741.331571
529.327669	2746.667632
529.689421	2753.858838
530.051117	2755.719024
530.412755	2763.799993
530.774337	2773.100922
531.135862	2774.633433
531.497331	2785.103909
531.858743	2789.688839
532.220098	2800.547484
532.581396	2805.112249
532.942638	2813.316727
533.303824	2823.202430
533.664953	2830.050837
534.026025	2837.794049
534.387040	2848.428363
534.747999	2863.511496
535.108902	2871.269832
535.469748	2875.864843
535.830537	2891.943603
536.191270	2909.801891
536.551947	2914.449835
536.912567	2920.799168
537.273131	2941.427570
537.633638	2949.110288
537.994089	2972.924699
538.354483	2976.526603
538.714821	3004.870491
539.075103	3024.757843
539.435328	3035.142620
539.795497	3044.894732
540.155609	3069.798032
540.515665	3092.783173
540.875665	3099.462702
541.235609	3117.625979
541.595496	3146.279897
541.955328	3173.131603
542.315102	3197.472815
542.674821	3207.522355
543.034483	3220.725137
543.394090	3252.444077
543.753640	3270.201541
544.113134	3313.956236
544.472571	3331.915347
544.831953	3379.055176
545.191278	3389.392062
545.550548	3415.772420
545.909761	3441.600772
546.268918	3488.158348
546.628019	3519.113553
546.987064	3554.925910
547.346053	3579.307451
547.704986	3612.412708
548.063863	3661.689987
548.422684	3677.960311
548.781449	3711.990620
549.140158	3765.265534
549.498811	3803.737100
549.857408	3810.101556
550.215949	3878.850292
550.574434	3901.366606
550.932864	3959.740647
551.291237	4000.969723
551.649555	4049.999986
552.007817	4100.535032
552.366022	4142.177484
552.724173	4180.563350
553.082267	4237.326742
553.440305	4314.403464
553.798288	4318.418743
554.156215	4403.841095
554.514086	4467.906598
554.871902	4464.909632
555.229661	4539.009553
555.587365	4600.004994
555.945014	4635.580416
556.302606	4733.938369
556.660143	4767.489768
557.017625	4870.092373
557.375050	4893.458121
557.732421	4974.030883
558.089735	5036.836098
558.446994	5089.748049
558.804197	5176.400442
559.161345	5245.565073
559.518437	5252.161423
559.875474	5365.138722
560.232455	5427.790182
560.589381	5504.075442
560.946251	5552.588986
561.303065	5672.175238
561.659825	5762.386686
562.016528	5784.587927
562.373177	5825.733825
562.729770	5921.641777
563.086307	6016.259193
563.442789	6113.785356
563.799216	6166.321741
564.155587	6222.596141
564.511904	6331.021278
564.868164	6371.859665
565.224370	6479.563917
565.580520	6513.826119
565.936615	6639.464276
566.292654	6644.994422
566.648638	6818.576472
567.004567	6845.518919
567.360441	6931.740294
567.716260	6950.155629
568.072023	7130.487784
568.427732	7168.876171
568.783385	7201.394133
569.138982	7330.856005
569.494525	7452.441074
569.850013	7496.422621
570.205445	7596.166891
570.560823	7616.225642
570.916145	7687.270623
571.271412	7781.842670
571.626625	7862.538940
571.981782	7946.574974
572.336884	7980.834656
572.691931	8118.178372
573.046923	8105.434335
573.401860	8210.882671
573.756743	8318.508785
574.111570	8363.551494
574.466342	8429.189838
574.821059	8554.780104
575.175722	8549.549907
575.530330	8674.903238
575.884882	8753.517512
576.239380	8843.842386
576.593823	8881.134321
576.948211	8948.685783
577.302544	8989.632555
577.656823	9045.423005
578.011047	9187.916259
578.365216	9226.473524
578.719330	9285.966702
579.073389	9327.369698
579.427394	9514.832566
579.781344	9474.730187
580.135239	9563.303260
580.489080	9618.907187
580.842866	9605.613664
581.196597	9815.660901
581.550273	9825.536521
581.903895	9946.161250
582.257463	10136.903388
582.610975	10062.659795
582.964434	10250.646943
583.317837	10238.243184
583.671186	10368.277227
584.024481	10455.332912
584.377721	10420.309496
584.730906	10543.633763
585.084037	10653.838427
585.437113	10696.695797
585.790135	10858.552123
586.143103	10733.380273
586.496016	10795.207505
586.848874	11044.437110
587.201679	11078.777450
587.554428	11003.329021
587.907124	11245.949673
588.259765	11228.439225
588.612352	11376.230732
588.964884	11254.988462
589.317362	11410.563511
589.669786	11513.398008
590.022155	11621.402208
590.374470	11807.403141
590.726731	11802.838377
591.078937	11751.174111
591.431090	11869.762214
591.783188	11817.457723
592.135232	11879.872248
592.487222	12045.282588
592.839157	12125.179836
593.191038	12164.314313
593.542866	12160.067141
593.894639	12123.609516
594.246358	12308.977784
594.598022	12323.128303
594.949633	12279.476952
595.301190	12312.456181
595.652692	12494.139365
596.004141	12726.453378
596.355535	12405.989749
596.706876	12495.850837
597.058162	12510.553362
597.409395	12695.422556
597.760573	12861.513452
598.111698	12804.445070
598.462768	12845.472500
598.813785	12868.969318
599.164748	12846.473169
599.515657	12925.977207
599.866511	12883.901216
600.217312	13171.110874
600.568060	12946.993777
600.918753	13226.520717
601.269392	13250.519129
601.619978	13147.866114
601.970510	13389.307136
602.320988	13387.424265
602.671412	13602.994086
603.021783	13604.435856
603.372100	13499.156399
603.722363	13661.887366
604.072572	13695.342983
604.422728	13819.453670
604.772830	13752.038320
605.122878	13740.506680
605.472872	13827.973220
605.822813	13886.072518
606.172701	13912.052105
606.522534	14124.098159
606.872314	14201.137072
607.222041	14121.907777
607.571714	14345.969422
607.921333	14292.026555
608.270899	14395.670158
608.620411	14625.887051
608.969870	14453.124188
609.319276	14528.955745
609.668627	14627.464932
610.017926	14777.393889
610.367171	14917.573254
610.716362	15025.090983
611.065500	14909.252829
611.414585	15072.603858
611.763616	15111.478716
612.112594	15129.221057
612.461518	15144.422656
612.810389	15356.231776
613.159207	15266.005205
613.507971	15252.686476
613.856682	15563.624845
614.205340	15537.796494
614.553945	15723.144597
614.902496	15528.006573
615.250994	15820.159082
615.599439	15794.809640
615.947830	15820.912735
616.296169	15884.189298
616.644454	15921.559371
616.992686	15907.807104
617.340864	16139.833771
617.688990	15992.533776
618.037063	16174.562280
618.385082	16087.002479
618.733048	16346.689958
619.080961	16271.110458
619.428821	16353.424939
619.776628	16317.794064
620.124382	16266.727175
620.472083	16343.859350
620.819731	16423.839776
621.167326	16191.172882
621.514868	16278.359638
621.862357	16115.371572
622.209793	16180.835996
622.557176	16086.873929
622.904506	15956.096316
623.251783	15925.549445
623.599007	15783.358659
623.946179	15776.848009
624.293297	15763.083138
624.640363	15580.250571
624.987376	15617.608041
625.334336	15472.148068
625.681243	15368.005391
626.028097	15384.295880
626.374899	15384.850407
626.721647	15273.415701
627.068343	15143.926103
627.414987	15122.594460
627.761577	15128.908505
628.108115	15207.268201
628.454600	14954.915601
628.801032	15050.105188
629.147412	15014.628068
629.493739	15062.201437
629.840014	14907.117901
630.186236	15011.888201
630.532405	14820.392410
630.878521	15020.967319
631.224585	14927.927784
631.570597	14799.264935
631.916556	14825.362988
632.262462	14823.769983
632.608316	14776.226862
632.954117	14733.472836
633.299866	14755.106948
633.645562	14708.622468
633.991206	14473.550943
634.336797	14372.947157
634.682336	14369.816600
635.027823	14286.695535
635.373257	14210.571591
635.718639	14115.225728
636.063968	14082.226335
636.409245	13878.195715
636.754470	13913.395572
637.099642	13787.938897
637.444762	13586.222167
637.789829	13647.746929
638.134845	13512.041588
638.479808	13528.364844
638.824719	13508.089323
639.169577	13365.580945
639.514383	13426.152929
639.859137	13255.398966
640.203839	13343.147811
640.548489	13201.577087
640.893086	13191.426724
641.237632	13070.267633
641.582125	13233.417015
641.926566	13077.292480
