Dividing Wavelength (nm)	Counts (n)	Blue Motor Position (mm): 22.300000	Red Motor Position (mm): 0.000000	
326.493990	2190.159535
326.888308	2190.159535
327.282561	2190.159535
327.676750	2152.149235
328.070874	2144.027937
328.464933	2145.106743
328.858929	2149.585809
329.252859	2154.790800
329.646726	2164.653818
330.040528	2176.460200
330.434265	2189.557118
330.827938	2209.356249
331.221547	2225.926522
331.615091	2243.245406
332.008571	2258.575555
332.401986	2278.004162
332.795338	2297.684826
333.188625	2318.225008
333.581847	2335.133038
333.975006	2353.732375
334.368100	2368.802904
334.761129	2389.310318
335.154095	2409.893349
335.546996	2431.293047
335.939833	2466.233285
336.332606	2479.768783
336.725315	2495.197234
337.117960	2505.443379
337.510540	2516.526356
337.903056	2533.159643
338.295508	2536.958152
338.687896	2544.850079
339.080220	2552.878116
339.472480	2560.066802
339.864676	2565.939746
340.256807	2569.909655
340.648875	2575.109605
341.040879	2579.238310
341.432818	2582.749473
341.824694	2582.958681
342.216506	2585.549834
342.608253	2582.164700
342.999937	2584.292067
343.391557	2587.210895
343.783113	2586.981522
344.174605	2586.666450
344.566033	2582.008424
344.957397	2583.540935
345.348697	2582.515060
345.739934	2580.168403
346.131106	2577.373083
346.522215	2575.054152
346.913260	2571.636250
347.304241	2573.516600
347.695159	2569.755899
348.086012	2567.005950
348.476802	2565.370096
348.867528	2562.446226
349.258191	2557.831050
349.648789	2557.442881
350.039324	2556.112017
350.429796	2557.387428
350.820203	2555.365926
351.210548	2554.881975
351.600828	2554.208981
351.991045	2555.171841
352.381198	2554.057746
352.771288	2552.633620
353.161314	2551.343085
353.551276	2551.547252
353.941175	2550.443239
354.331010	2550.717982
354.720782	2548.870399
355.110490	2550.082797
355.500135	2550.337375
355.889717	2549.820657
356.279235	2551.212015
356.668689	2552.005997
357.058080	2548.504915
357.447408	2552.240410
357.836672	2549.997097
358.225873	2551.592622
358.615010	2549.334185
359.004084	2550.249155
359.393095	2553.152859
359.782043	2554.398024
360.170927	2553.372149
360.559748	2553.271326
360.948505	2556.946327
361.337199	2557.238714
361.725830	2556.527912
362.114398	2556.333827
362.502903	2556.815257
362.891344	2555.597819
363.279722	2556.878272
363.668037	2557.657130
364.056289	2560.490259
364.444478	2555.161759
364.832603	2558.743499
365.220665	2558.990515
365.608665	2561.057388
365.996601	2560.941442
366.384474	2559.315670
366.772284	2561.790876
367.160031	2563.020918
367.547715	2560.260886
367.935336	2562.370609
368.322893	2560.994374
368.710388	2561.095197
369.097820	2561.659806
369.485189	2560.339024
369.872495	2566.305230
370.259738	2563.512430
370.646918	2566.055693
371.034035	2563.724159
371.421090	2565.274314
371.808081	2565.382698
372.195010	2564.480332
372.581875	2566.428738
372.968678	2566.973182
373.355418	2566.161557
373.742096	2568.525858
374.128710	2566.343038
374.515262	2568.493090
374.901751	2565.430589
375.288177	2569.045097
375.674540	2569.166084
376.060841	2567.457133
376.447079	2565.891855
376.833254	2569.087947
377.219367	2567.865467
377.605417	2569.642473
377.991404	2568.750189
378.377329	2570.290262
378.763191	2566.993347
379.148991	2569.203893
379.534727	2569.365210
379.920402	2570.411249
380.306013	2570.653225
380.691563	2570.620457
381.077049	2572.767989
381.462474	2569.876887
381.847835	2571.212793
382.233134	2571.916034
382.618371	2571.129614
383.003545	2571.374110
383.388657	2569.818914
383.773706	2574.784450
384.158693	2574.665983
384.543618	2572.284038
384.928480	2572.483164
385.313280	2573.128431
385.698017	2574.461817
386.082692	2577.884760
386.467305	2576.513566
386.851856	2576.841241
387.236344	2576.828638
387.620770	2573.468709
388.005133	2570.940571
388.389435	2573.141034
388.773674	2571.197669
389.157851	2578.197312
389.541965	2573.662794
389.926018	2575.767475
390.310008	2577.862075
390.693936	2577.168916
391.077802	2576.163206
391.461606	2578.444328
391.845348	2577.531879
392.229027	2577.723443
392.612645	2576.301838
392.996200	2579.467682
393.379694	2579.268557
393.763125	2581.443815
394.146494	2582.497416
394.529801	2579.318968
394.913047	2582.263002
395.296230	2580.450707
395.679351	2580.649833
396.062410	2582.653692
396.445408	2581.748804
396.828343	2579.898701
397.211217	2580.191088
397.594028	2581.451376
397.976778	2580.145717
398.359466	2582.419278
398.742092	2583.982036
399.124656	2583.235945
399.507158	2581.431212
399.889598	2582.429360
400.271977	2581.287539
400.654294	2586.028744
401.036549	2583.409865
401.418742	2586.792479
401.800874	2582.802406
402.182944	2585.864907
402.564952	2582.996490
402.946898	2585.355750
403.328783	2582.988928
403.710606	2586.908425
404.092367	2584.009762
404.474067	2585.393559
404.855705	2588.322469
405.237282	2589.040833
405.618797	2585.746439
406.000250	2588.234249
406.381642	2587.881368
406.762972	2588.884558
407.144240	2585.310380
407.525447	2583.329206
407.906593	2584.392890
408.287677	2587.916656
408.668700	2586.638724
409.049661	2588.037644
409.430560	2590.384301
409.811399	2590.326328
410.192176	2588.052767
410.572891	2589.202150
410.953545	2589.534867
411.334138	2589.955803
411.714669	2590.233066
412.095139	2589.998653
412.475547	2589.958323
412.855894	2591.924373
413.236180	2591.145515
413.616405	2589.812130
413.996568	2590.830443
414.376670	2589.965885
414.756711	2591.062336
415.136691	2593.408993
415.516609	2593.386308
415.896466	2592.473859
416.276262	2591.475711
416.655997	2592.635176
417.035670	2593.973602
417.415283	2592.236925
417.794834	2593.358582
418.174324	2593.540063
418.553753	2593.013263
418.933121	2594.830599
419.312428	2594.031576
419.691674	2593.918150
420.070859	2593.434199
420.449983	2595.251535
420.829045	2594.981833
421.208047	2594.699529
421.586988	2595.077615
421.965867	2596.905033
422.344686	2598.009046
422.723444	2598.019128
423.102141	2596.194231
423.480777	2594.402101
423.859352	2593.212388
424.237866	2596.461412
424.616319	2596.534509
424.994712	2597.399067
425.373044	2597.184817
425.751314	2595.634663
426.129524	2594.205496
426.507673	2596.254725
426.885762	2593.708942
427.263789	2595.881679
427.641756	2597.809921
428.019662	2599.100456
428.397508	2601.179932
428.775292	2599.455857
429.153016	2600.630446
429.530679	2600.403594
429.908282	2599.841506
430.285824	2602.220930
430.663305	2598.959304
431.040726	2598.515682
431.418086	2602.470467
431.795385	2600.068357
432.172624	2596.287492
432.549802	2601.860488
432.926920	2603.519027
433.303977	2602.170519
433.680974	2604.343256
434.057910	2601.913420
434.434786	2603.818976
434.811601	2604.015581
435.188355	2602.319233
435.565050	2601.328646
435.941683	2604.005499
436.318257	2602.583893
436.694770	2604.688575
437.071222	2603.516507
437.447614	2603.178749
437.823946	2607.289810
438.200218	2603.864346
438.576429	2603.294696
438.952580	2603.521548
439.328670	2606.246292
439.704700	2605.633791
440.080670	2605.817793
440.456580	2607.143617
440.832429	2607.073041
441.208218	2606.899121
441.583947	2608.000613
441.959616	2609.364245
442.335224	2607.418360
442.710773	2607.486415
443.086261	2606.468102
443.461689	2607.246961
443.837057	2610.259050
444.212365	2609.482712
444.587612	2605.875767
444.962800	2608.608072
445.337927	2607.209152
445.712995	2607.188987
446.088002	2609.689400
446.462949	2611.332816
446.837837	2610.571602
447.212664	2611.874740
447.587431	2611.390789
447.962139	2611.171499
448.336786	2617.505709
448.711374	2616.812550
449.085901	2615.348095
449.460369	2614.980091
449.834776	2611.443721
450.209124	2616.321037
450.583412	2617.714917
450.957640	2616.187447
451.331808	2617.520832
451.705917	2615.723661
452.079965	2615.995883
452.453954	2616.404217
452.827883	2616.782303
453.201752	2614.274329
453.575562	2615.617797
453.949311	2615.247272
454.323001	2618.892026
454.696632	2617.488065
455.070202	2621.253807
455.443713	2619.622993
455.817164	2621.614249
456.190556	2621.520988
456.563888	2624.051647
456.937160	2625.092645
457.310373	2623.630711
457.683526	2622.302367
458.056619	2625.095166
458.429653	2623.870165
458.802628	2624.104579
459.175542	2625.856380
459.548398	2628.003912
459.921194	2628.830661
460.293930	2632.056999
460.666607	2633.622277
461.039224	2636.669655
461.411782	2636.722587
461.784280	2639.553195
462.156719	2638.774337
462.529099	2642.567805
462.901419	2641.045377
463.273680	2638.794501
463.645882	2638.645787
464.018024	2641.521766
464.390106	2638.408853
464.762130	2650.016110
465.134094	2653.784372
465.505999	2664.806855
465.877845	2679.317817
466.249631	2692.830629
466.621358	2694.700897
466.993026	2692.674354
467.364634	2697.168542
467.736184	2694.431196
468.107674	2697.105528
468.479105	2703.112063
468.850477	2708.826211
469.221790	2715.961964
469.593043	2718.288456
469.964238	2721.343396
470.335373	2727.554097
470.706449	2741.230747
471.077467	2747.353229
471.448425	2779.067128
471.819324	2834.842454
472.190164	2876.358876
472.560945	2848.622448
472.931667	2839.810511
473.302330	2849.610514
473.672934	2866.185828
474.043479	2892.107441
474.413965	2911.651994
474.784393	2929.374171
475.154761	2971.213227
475.525070	2998.480828
475.895321	3021.266844
476.265513	3068.389029
476.635645	3122.273923
477.005719	3152.236021
477.375734	3201.115048
477.745691	3261.543359
478.115588	3329.455263
478.485427	3405.256573
478.855207	3508.668283
479.224928	3665.526305
479.594591	3879.830796
479.964194	3947.856126
480.333739	4030.667161
480.703226	4063.187644
481.072653	4141.940549
481.442022	4290.440339
481.811333	4465.882575
482.180584	4565.006783
482.549777	4578.179318
482.918912	4668.589892
483.287988	4792.927431
483.657005	4881.324063
484.025964	4956.606134
484.394864	5062.364501
484.763706	5142.362571
485.132489	5220.356783
485.501213	5336.411706
485.869879	5468.641172
486.238487	5533.157859
486.607036	5721.563422
486.975527	5799.613086
487.343959	5969.101720
487.712333	6125.657273
488.080648	6178.274316
488.448905	6425.384116
488.817104	6515.222519
489.185244	6780.014166
489.553326	6958.891948
489.921350	7280.099148
490.289315	7953.093186
490.657222	8555.619456
491.025070	8853.160959
491.392861	8996.901899
491.760593	8994.436775
492.128267	9011.687603
492.495883	8900.446982
492.863440	8892.734016
493.230939	8836.540274
493.598380	8989.224222
493.965763	9047.303355
494.333088	9107.204866
494.700354	9263.047096
495.067563	9432.694525
495.434713	9549.366990
495.801805	9724.103465
496.168839	9906.159695
496.535815	10037.086022
496.902733	10291.823087
497.269593	10318.407612
497.636395	10610.466860
498.003139	10794.050560
498.369825	10932.939389
498.736453	11153.908286
499.103023	11298.425564
499.469535	11508.613953
499.835989	11783.671910
500.202385	12018.335101
500.568723	11991.954743
500.935003	12252.627767
501.301226	12294.605455
501.667390	12833.474554
502.033497	13212.811299
502.399546	13231.057755
502.765537	13302.175833
503.131470	13639.910455
503.497345	13916.989915
503.863163	13704.414539
504.228923	14230.516917
504.594625	14532.020766
504.960269	14449.691162
505.325856	14920.008131
505.691385	14820.301670
506.056856	15293.174503
506.422270	15532.031934
506.787625	15443.232009
507.152924	15933.219560
507.518164	16089.613797
507.883347	16155.040412
508.248472	16138.455016
508.613540	16823.131928
508.978550	16904.518836
509.343503	17070.476142
509.708398	17447.398173
510.073236	17715.360706
510.438016	18044.525367
510.802738	18040.731899
511.167403	18374.468886
511.532010	18335.722578
511.896561	19071.627696
512.261053	19260.272714
512.625488	19291.558115
512.989866	19392.227436
513.354186	19426.330842
513.718449	19696.340083
514.082655	20130.242277
514.446803	20116.610997
514.810894	20605.640729
515.174927	20360.766681
515.538904	20547.077645
515.902822	21070.281358
516.266684	21050.628420
516.630488	21090.609811
516.994235	21254.175089
517.357925	21608.837906
517.721558	21916.507087
518.085133	22117.802881
518.448651	22188.212676
518.812112	22093.749015
519.175516	22340.077436
519.538863	22652.671824
519.902152	22572.572931
520.265385	22968.744609
520.628560	22878.074416
520.991678	23018.435262
521.354739	23188.780892
521.717743	23355.708619
522.080690	23257.559874
522.443580	23663.569364
522.806413	23772.823771
523.169189	23953.730617
523.531908	24087.427059
523.894569	23818.673065
524.257174	23952.462767
524.619722	24240.468928
524.982213	24021.796277
525.344647	24189.248284
525.707025	24353.340362
526.069345	24430.719553
526.431608	24460.243071
526.793815	24717.372164
527.155964	24240.005142
527.518057	24470.953002
527.880093	24479.959023
528.242072	24736.261367
528.603995	24516.162070
528.965860	24361.136507
529.327669	24488.962524
529.689421	24504.242262
530.051117	24381.462439
530.412755	24613.174034
530.774337	24470.642971
531.135862	24378.387335
531.497331	24616.682678
531.858743	24199.045767
532.220098	24717.374684
532.581396	24417.168932
532.942638	24428.549337
533.303824	24522.181208
533.664953	24581.044240
534.026025	24280.379743
534.387040	24531.628330
534.747999	24634.198167
535.108902	24814.764736
535.469748	24321.654190
535.830537	24546.436719
536.191270	24649.321628
536.551947	24590.224182
536.912567	24287.016422
537.273131	24582.324693
537.633638	24331.408823
537.994089	24544.621904
538.354483	24124.076247
538.714821	24626.288596
539.075103	24680.279354
539.435328	24485.181659
539.795497	24044.731006
540.155609	24474.620442
540.515665	24758.392033
540.875665	24026.159395
541.235609	24298.926148
541.595496	24294.154696
541.955328	24638.815863
542.315102	24555.359562
542.674821	24154.169415
543.034483	24034.812536
543.394090	24198.839079
543.753640	23983.859073
544.113134	24636.207066
544.472571	24223.124838
544.831953	24518.899416
545.191278	24134.776096
545.550548	24096.294448
545.909761	24288.669920
546.268918	24518.707852
546.628019	24479.235618
546.987064	24187.632594
547.346053	23970.371466
547.704986	24083.673920
548.063863	24248.277675
548.422684	24238.875923
548.781449	23806.808709
549.140158	24207.772004
549.498811	23779.296612
549.857408	23511.916333
550.215949	23963.891063
550.574434	23649.370954
550.932864	23870.551579
551.291237	24007.764225
551.649555	23884.119845
552.007817	23924.892697
552.366022	23811.721314
552.724173	23860.101267
553.082267	23770.958544
553.440305	24260.714202
553.798288	23534.747718
554.156215	24058.576535
554.514086	24142.393280
554.871902	23507.689325
555.229661	23809.278875
555.587365	23666.500795
555.945014	23498.683304
556.302606	23780.869452
556.660143	23708.632238
557.017625	23975.420182
557.375050	23513.093442
557.732421	23890.149065
558.089735	23714.732034
558.446994	23776.284523
558.804197	23783.359782
559.161345	23750.756120
559.518437	23490.337674
559.875474	23700.483213
560.232455	23872.351271
560.589381	23723.380134
560.946251	23673.613863
561.303065	24008.195244
561.659825	24080.918929
562.016528	23685.261449
562.373177	23433.082769
562.729770	23779.402476
563.086307	23667.065404
563.442789	23816.470081
563.799216	23647.818279
564.155587	23672.509850
564.511904	23654.679289
564.868164	23580.929729
565.224370	23570.489499
565.580520	23468.965702
565.936615	23608.530046
566.292654	23275.337503
566.648638	23594.921451
567.004567	23421.089864
567.360441	23357.634340
567.716260	23087.234409
568.072023	23420.996602
568.427732	23180.329397
568.783385	22967.945586
569.138982	23193.138969
569.494525	23237.128078
569.850013	22987.815294
570.205445	23079.443306
570.560823	22879.296895
570.916145	22655.245333
571.271412	22823.478719
571.626625	22583.315630
571.981782	22689.487371
572.336884	22498.271364
572.691931	22641.674547
573.046923	22373.021376
573.401860	22250.778437
573.756743	22242.594123
574.111570	22163.238800
574.466342	22099.755550
574.821059	22195.338347
575.175722	21883.311089
575.530330	21874.627701
575.884882	21898.018655
576.239380	21810.519348
576.593823	21697.766380
576.948211	21676.202845
577.302544	21524.844721
577.656823	21391.775904
578.011047	21491.701655
578.365216	21371.069364
578.719330	21252.072928
579.073389	21156.749750
579.427394	21295.905760
579.781344	21084.835169
580.135239	20967.880400
580.489080	20936.640370
580.842866	20696.363854
581.196597	20881.999303
581.550273	20861.078515
581.903895	20763.025552
582.257463	21076.953325
582.610975	20603.901531
582.964434	20910.481822
583.317837	20613.782192
583.671186	20709.496060
584.024481	20682.041936
584.377721	20459.777463
584.730906	20494.952114
585.084037	20541.509690
585.437113	20425.981568
585.790135	20641.397633
586.143103	20116.442118
586.496016	20114.130749
586.848874	20371.471571
587.201679	20308.711726
587.554428	19960.728438
587.907124	20297.331321
588.259765	20082.381563
588.612352	20163.244191
588.964884	19730.425845
589.317362	19895.548839
589.669786	19949.980698
590.022155	20010.716519
590.374470	20174.347332
590.726731	19982.788527
591.078937	19726.861749
591.431090	19833.535085
591.783188	19577.729295
592.135232	19550.746519
592.487222	19655.758795
592.839157	19686.023362
593.191038	19560.942253
593.542866	19458.506007
593.894639	19173.360701
594.246358	19392.532426
594.598022	19305.247368
594.949633	19068.905473
595.301190	19011.829529
595.652692	19170.162089
596.004141	19422.257590
596.355535	18747.146267
596.706876	18763.651004
597.058162	18650.492224
597.409395	18871.451038
597.760573	18958.688206
598.111698	18746.979909
598.462768	18676.945679
598.813785	18632.696951
599.164748	18460.917113
599.515657	18490.526330
599.866511	18284.559907
600.217312	18644.369743
600.568060	18178.753650
600.918753	18486.911823
601.269392	18387.076812
601.619978	18161.722112
601.970510	18370.403196
602.320988	18321.380495
602.671412	18536.839411
603.021783	18425.941588
603.372100	18177.042178
603.722363	18297.631619
604.072572	18246.867200
604.422728	18373.309421
604.772830	18136.609604
605.122878	18084.700843
605.472872	18081.802179
605.822813	18071.926559
606.172701	18021.794804
606.522534	18228.081340
606.872314	18250.506913
607.222041	18086.407273
607.571714	18299.020457
607.921333	18127.722050
608.270899	18193.637657
608.620411	18392.982524
608.969870	18148.927663
609.319276	18162.589190
609.668627	18189.347635
610.017926	18321.519127
610.367171	18438.851983
610.716362	18471.145614
611.065500	18300.850396
611.414585	18433.674718
611.763616	18415.755936
612.112594	18366.677783
612.461518	18327.046752
612.810389	18528.234161
613.159207	18376.787817
613.507971	18274.147404
613.856682	18561.828410
614.205340	18496.961363
614.553945	18644.669691
614.902496	18384.866266
615.250994	18619.637842
615.599439	18564.671621
615.947830	18546.762922
616.296169	18588.463347
616.644454	18563.880160
616.992686	18523.003964
617.340864	18735.309637
617.688990	18507.676336
618.037063	18680.532460
618.385082	18522.386423
618.733048	18806.115164
619.080961	18668.365635
619.428821	18711.197799
619.776628	18604.892467
620.124382	18523.762658
620.472083	18553.180311
620.819731	18584.266586
621.167326	18279.770811
621.514868	18324.513572
621.862357	18082.969206
622.209793	18096.681145
622.557176	17924.077078
622.904506	17750.593330
623.251783	17655.229823
623.599007	17427.702385
623.946179	17371.201133
624.293297	17318.001837
624.640363	17072.734578
624.987376	17092.206035
625.334336	16885.485960
625.681243	16732.499544
626.028097	16738.536325
626.374899	16671.572158
626.721647	16534.402362
627.068343	16372.115017
627.414987	16297.566434
627.761577	16273.562980
628.108115	16324.493757
628.454600	16033.155394
628.801032	16139.793442
629.147412	16061.640434
629.493739	16092.406596
629.840014	15897.303860
630.186236	16002.278327
630.532405	15754.132570
630.878521	15953.374093
631.224585	15849.808629
631.570597	15672.065106
631.916556	15711.567587
632.262462	15693.641244
632.608316	15608.856598
632.954117	15555.246448
633.299866	15551.226128
633.645562	15471.207893
633.991206	15218.777155
634.336797	15095.906592
634.682336	15055.990735
635.027823	14950.532318
635.373257	14837.255070
635.718639	14722.979674
636.063968	14680.271019
636.409245	14441.511890
636.754470	14461.600888
637.099642	14304.352176
637.444762	14083.310183
637.789829	14125.930618
638.134845	13967.366165
638.479808	13991.024300
