Dividing Wavelength (nm)	Counts (n)	Blue Motor Position (mm): 26.400000	Red Motor Position (mm): 0.000000	
326.493990	2203.377441
326.888308	2203.377441
327.282561	2203.377441
327.676750	2163.385967
328.070874	2157.192910
328.464933	2159.012766
328.858929	2162.690288
329.252859	2169.677327
329.646726	2176.550941
330.040528	2190.552745
330.434265	2201.219827
330.827938	2220.817313
331.221547	2239.421691
331.615091	2253.410893
332.008571	2272.335384
332.401986	2290.362550
332.795338	2309.690334
333.188625	2327.679692
333.581847	2348.643330
333.975006	2367.035980
334.368100	2385.857128
334.761129	2404.650549
335.154095	2419.088414
335.546996	2446.981118
335.939833	2479.688124
336.332606	2499.827534
336.725315	2510.895387
337.117960	2522.316121
337.510540	2533.522606
337.903056	2546.112888
338.295508	2553.057077
338.687896	2563.497307
339.080220	2569.491239
339.472480	2577.783937
339.864676	2579.437435
340.256807	2589.368508
340.648875	2592.557038
341.040879	2594.646597
341.432818	2597.847729
341.824694	2600.874942
342.216506	2599.143306
342.608253	2602.357041
342.999937	2603.456013
343.391557	2604.723863
343.783113	2602.750251
344.174605	2600.126331
344.566033	2600.706063
344.957397	2600.761516
345.348697	2597.653645
345.739934	2596.169025
346.131106	2595.972420
346.522215	2593.860177
346.913260	2591.818509
347.304241	2589.514702
347.695159	2585.489341
348.086012	2585.703590
348.476802	2583.041860
348.867528	2579.805440
349.258191	2576.112794
349.648789	2573.115828
350.039324	2570.423852
350.429796	2577.844431
350.820203	2574.103895
351.210548	2573.965263
351.600828	2572.717577
351.991045	2570.519634
352.381198	2574.179512
352.771288	2568.535940
353.161314	2569.057700
353.551276	2567.134499
353.941175	2566.161557
354.331010	2567.525189
354.720782	2569.213975
355.110490	2566.569890
355.500135	2566.698440
355.889717	2568.694737
356.279235	2568.036866
356.668689	2567.424366
357.058080	2567.631053
357.447408	2568.777916
357.836672	2567.658779
358.225873	2567.449572
358.615010	2568.296485
359.004084	2570.023081
359.393095	2571.961404
359.782043	2569.650035
360.170927	2570.297823
360.559748	2572.460478
360.948505	2572.417629
361.337199	2573.476271
361.725830	2573.635067
362.114398	2572.397464
362.502903	2573.887125
362.891344	2572.243709
363.279722	2573.088102
363.668037	2574.517269
364.056289	2576.881570
364.444478	2572.914182
364.832603	2578.393917
365.220665	2577.899883
365.608665	2577.380645
365.996601	2579.548341
366.384474	2577.756211
366.772284	2581.786613
367.160031	2580.886767
367.547715	2580.319637
367.935336	2580.294432
368.322893	2578.104050
368.710388	2577.544482
369.097820	2577.688155
369.485189	2575.706982
369.872495	2582.651171
370.259738	2581.146387
370.646918	2582.759556
371.034035	2584.818867
371.421090	2585.421285
371.808081	2583.011613
372.195010	2583.651840
372.581875	2583.969433
372.968678	2584.294587
373.355418	2582.709144
373.742096	2585.527149
374.128710	2583.525811
374.515262	2586.802561
374.901751	2585.736357
375.288177	2587.634352
375.674540	2586.966399
376.060841	2585.408682
376.447079	2583.359453
376.833254	2586.227870
377.219367	2589.875144
377.605417	2588.370360
377.991404	2588.977819
378.377329	2586.792479
378.763191	2591.016966
379.148991	2589.423961
379.534727	2592.378077
379.920402	2589.252562
380.306013	2588.919846
380.691563	2593.353541
381.077049	2588.456060
381.462474	2590.061667
381.847835	2588.309866
382.233134	2590.548138
382.618371	2590.994281
383.003545	2590.946390
383.388657	2592.400762
383.773706	2590.296081
384.158693	2591.730289
384.543618	2593.759353
384.928480	2592.584765
385.313280	2590.343972
385.698017	2591.541246
386.082692	2590.921184
386.467305	2591.533684
386.851856	2593.494693
387.236344	2597.177256
387.620770	2591.437902
388.005133	2590.285998
388.389435	2593.240115
388.773674	2592.741040
389.157851	2597.048706
389.541965	2597.182297
389.926018	2596.922677
390.310008	2597.618357
390.693936	2598.220775
391.077802	2594.132399
391.461606	2598.649273
391.845348	2597.285641
392.229027	2596.630291
392.612645	2596.952924
392.996200	2597.089036
393.379694	2598.981989
393.763125	2600.181783
394.146494	2599.329828
394.529801	2598.578697
394.913047	2598.533326
395.296230	2599.423090
395.679351	2600.383430
396.062410	2601.452154
396.445408	2600.950559
396.828343	2600.106166
397.211217	2601.994078
397.594028	2604.726384
397.976778	2601.729418
398.359466	2602.084819
398.742092	2603.876949
399.124656	2603.211517
399.507158	2603.103132
399.889598	2603.894593
400.271977	2606.480705
400.654294	2604.338215
401.036549	2603.813935
401.418742	2602.530961
401.800874	2607.660335
402.182944	2605.921137
402.564952	2606.521034
402.946898	2608.474482
403.328783	2604.265118
403.710606	2605.013729
404.092367	2605.863164
404.474067	2607.052876
404.855705	2608.761827
405.237282	2609.180243
405.618797	2606.672269
406.000250	2609.144955
406.381642	2608.635798
406.762972	2602.344438
407.144240	2606.032043
407.525447	2606.221086
407.906593	2603.448451
408.287677	2609.984307
408.668700	2606.531117
409.049661	2611.589915
409.430560	2611.962960
409.811399	2612.020933
410.192176	2613.404730
410.572891	2610.894235
410.953545	2609.349122
411.334138	2608.179574
411.714669	2610.664863
412.095139	2612.068824
412.475547	2612.315841
412.855894	2611.942795
413.236180	2613.447580
413.616405	2611.831890
413.996568	2613.150152
414.376670	2614.922117
414.756711	2613.147631
415.136691	2614.798609
415.516609	2615.403547
415.896466	2615.491768
416.276262	2616.071500
416.655997	2616.520163
417.035670	2616.739453
417.415283	2618.420678
417.794834	2617.823301
418.174324	2619.186933
418.553753	2615.970677
418.933121	2619.363374
419.312428	2619.413785
419.691674	2616.411778
420.070859	2620.101903
420.449983	2620.812706
420.829045	2620.384207
421.208047	2618.014865
421.586988	2618.181223
421.965867	2620.865638
422.344686	2623.101389
422.723444	2620.963940
423.102141	2621.152983
423.480777	2622.413272
423.859352	2621.266409
424.237866	2623.608025
424.616319	2626.176493
424.994712	2625.944600
425.373044	2624.225567
425.751314	2621.626852
426.129524	2621.584002
426.507673	2623.020731
426.885762	2623.441667
427.263789	2624.714559
427.641756	2629.334776
428.019662	2627.729169
428.397508	2627.537605
428.775292	2630.103552
429.153016	2631.507513
429.530679	2629.869138
429.908282	2631.305867
430.285824	2629.034827
430.663305	2629.707822
431.040726	2630.494242
431.418086	2633.574387
431.795385	2633.491207
432.172624	2632.742596
432.549802	2634.622947
432.926920	2634.267545
433.303977	2634.456588
433.680974	2636.183184
434.057910	2638.048411
434.434786	2636.861219
434.811601	2638.308030
435.188355	2638.842392
435.565050	2639.134779
435.941683	2639.898514
436.318257	2641.279790
436.694770	2644.690131
437.071222	2642.671149
437.447614	2645.746252
437.823946	2647.556027
438.200218	2647.939154
438.576429	2651.457880
438.952580	2650.714310
439.328670	2654.843015
439.704700	2655.586585
440.080670	2660.012718
440.456580	2663.579334
440.832429	2667.471105
441.208218	2668.948163
441.583947	2672.708864
441.959616	2676.416632
442.335224	2682.261850
442.710773	2687.207222
443.086261	2696.152750
443.461689	2698.259952
443.837057	2711.157744
444.212365	2724.579816
444.587612	2728.486711
444.962800	2740.406519
445.337927	2755.610639
445.712995	2758.882348
446.088002	2796.930456
446.462949	2810.851603
446.837837	2828.016732
447.212664	2849.923066
447.587431	2891.936042
447.962139	2938.896910
448.336786	3054.835887
448.711374	3126.735344
449.085901	3074.602251
449.460369	3092.760487
449.834776	3110.628857
450.209124	3202.496324
450.583412	3289.786424
450.957640	3411.202614
451.331808	3414.827204
451.705917	3397.558731
452.079965	3403.071233
452.453954	3548.579098
452.827883	3584.129315
453.201752	3687.054553
453.575562	3711.315106
453.949311	3832.837160
454.323001	3905.581010
454.696632	4020.940254
455.070202	4152.519411
455.443713	4278.563380
455.817164	4458.615752
456.190556	4556.709044
456.563888	4731.712700
456.937160	4878.634608
457.310373	4850.247871
457.683526	4957.097647
458.056619	4980.044979
458.429653	5113.902737
458.802628	5116.234271
459.175542	5311.405063
459.548398	5659.710985
459.921194	5890.555502
460.293930	6041.596033
460.666607	6446.995543
461.039224	6907.799854
461.411782	7308.387583
461.784280	7432.997344
462.156719	7622.181766
462.529099	7644.413254
462.901419	7439.006399
463.273680	7511.805702
463.645882	7609.125177
464.018024	7643.309241
464.390106	7897.441368
464.762130	8373.069193
465.134094	8820.274992
465.505999	9827.782355
465.877845	11476.020373
466.249631	13070.418867
466.621358	13212.166031
466.993026	12787.131227
467.364634	12736.676838
467.736184	12272.867999
468.107674	12047.233515
468.479105	12307.709934
468.850477	12245.096283
469.221790	12199.945188
469.593043	12007.237000
469.964238	11917.128896
470.335373	11883.653114
470.706449	12303.709779
471.077467	12174.159687
471.448425	13474.938696
471.819324	16186.363621
472.190164	17845.377105
472.560945	15824.895246
472.931667	14395.032452
473.302330	14128.199137
473.672934	13913.904729
474.043479	14372.208628
474.413965	14400.063523
474.784393	14295.759530
475.154761	14936.623774
475.525070	15109.404281
475.895321	14978.200690
476.265513	15572.903089
476.635645	16146.901469
477.005719	16159.242213
477.375734	16456.745908
477.745691	16996.063670
478.115588	17532.003858
478.485427	18132.369993
478.855207	19137.266039
479.224928	20662.068884
479.594591	22685.852699
479.964194	22940.892234
480.333739	23390.535430
480.703226	23146.067195
481.072653	23032.787427
481.442022	23625.758189
481.811333	24535.366345
482.180584	24653.720035
482.549777	23938.236631
482.918912	23746.700511
483.287988	23955.691626
483.657005	23797.230517
484.025964	23620.659062
484.394864	23700.566392
484.763706	23540.083780
485.132489	23086.987393
485.501213	23318.953566
485.869879	23356.870605
486.238487	23193.133928
486.607036	23450.222692
486.975527	23188.135624
487.343959	23569.619900
487.712333	23614.650007
488.080648	23340.234797
488.448905	23843.178114
488.817104	23648.065295
489.185244	24330.821528
489.553326	24360.264387
489.921350	25316.909029
490.289315	27532.387760
490.657222	29362.122439
491.025070	29876.824247
491.392861	29730.719005
491.760593	28954.255284
492.128267	28130.387073
492.495883	27159.158373
492.863440	26317.946072
493.230939	25466.971576
493.598380	25337.819735
493.965763	24960.968279
494.333088	24557.421393
494.700354	24481.020186
495.067563	24397.684872
495.434713	24170.480068
495.801805	24306.901253
496.168839	24149.755885
496.535815	23987.513910
496.902733	24199.023081
497.269593	23880.701942
497.636395	24076.943979
498.003139	24086.653242
498.369825	23827.764786
498.736453	24023.956411
499.103023	23915.954731
499.469535	23938.856693
499.835989	24154.509693
500.202385	24175.029710
500.568723	23672.731661
500.935003	23959.316216
501.301226	23530.591287
501.667390	24358.749520
502.033497	24627.992506
502.399546	24349.287275
502.765537	23956.556184
503.131470	24327.423790
503.497345	24458.738286
503.863163	23674.672505
504.228923	24317.154960
504.594625	24482.124199
504.960269	23992.149251
505.325856	24507.113199
505.691385	23922.886318
506.056856	24516.172152
506.422270	24483.155115
506.787625	24094.814870
507.152924	24484.712832
507.518164	24501.822508
507.883347	24319.758716
508.248472	24017.216388
508.613540	24793.662466
508.978550	24569.328599
509.343503	24553.315374
509.708398	24829.479864
510.073236	24976.555527
510.438016	25202.389137
510.802738	24880.322421
511.167403	25120.422496
511.532010	24815.273892
511.896561	25608.237310
512.261053	25577.549286
512.625488	25423.163949
512.989866	25323.863301
513.354186	25173.180692
513.718449	25246.942855
514.082655	25632.139941
514.446803	25388.579113
514.810894	25827.842574
515.174927	25316.646889
515.538904	25358.516192
515.902822	25850.706728
516.266684	25590.938590
516.630488	25491.509393
516.994235	25491.373281
517.357925	25782.394052
517.721558	25975.482847
518.085133	26053.537552
518.448651	25981.975853
518.812112	25700.228285
519.175516	25884.210236
519.538863	26064.338225
519.902152	25829.785939
520.265385	26132.000592
520.628560	25922.386894
520.991678	25942.425481
521.354739	25999.758523
521.717743	26064.915437
522.080690	25859.596802
522.443580	26185.497316
522.806413	26195.083070
523.169189	26282.652954
523.531908	26335.711098
523.894569	25943.363135
524.257174	26009.608938
524.619722	26209.919186
524.982213	25893.710290
525.344647	25964.283924
525.707025	26074.312147
526.069345	26084.356647
526.431608	26029.541660
526.793815	26220.515691
527.155964	25673.331209
527.518057	25849.882499
527.880093	25766.617761
528.242072	26000.464285
528.603995	25704.936723
528.965860	25496.507697
529.327669	25554.917026
529.689421	25540.713575
530.051117	25372.079417
530.412755	25553.041716
530.774337	25357.366809
531.135862	25231.279990
531.497331	25442.085920
531.858743	24966.082530
532.220098	25456.869104
532.581396	25142.412009
532.942638	25081.058646
533.303824	25171.096175
533.664953	25193.897313
534.026025	24869.735998
534.387040	25100.540185
534.747999	25160.459340
535.108902	25323.918753
535.469748	24811.997142
535.830537	25007.074672
536.191270	25115.177176
536.551947	25007.387224
536.912567	24669.571943
537.273131	24978.997966
537.633638	24703.188878
537.994089	24907.547172
538.354483	24461.286590
538.714821	24958.873680
539.075103	25005.922769
539.435328	24787.061075
539.795497	24338.705893
540.155609	24745.826957
540.515665	25032.320771
540.875665	24278.138950
541.235609	24565.572939
541.595496	24529.569018
541.955328	24883.757967
542.315102	24791.557784
542.674821	24365.534913
543.034483	24230.805036
543.394090	24405.075204
543.753640	24182.977089
544.113134	24829.762168
544.472571	24433.560243
544.831953	24720.676640
545.191278	24321.815507
545.550548	24261.782926
545.909761	24455.678306
546.268918	24694.792836
546.628019	24662.431149
546.987064	24363.465520
547.346053	24114.838333
547.704986	24249.981585
548.063863	24401.259050
548.422684	24393.959459
548.781449	23954.774136
549.140158	24366.898546
549.498811	23920.307767
549.857408	23676.777187
550.215949	24107.871458
550.574434	23775.225880
550.932864	24013.271686
551.291237	24143.096521
551.649555	24008.704400
552.007817	24068.941148
552.366022	23936.671353
552.724173	23985.936029
553.082267	23903.089707
553.440305	24393.407453
553.798288	23664.718747
554.156215	24185.064126
554.514086	24270.587301
554.871902	23637.748574
555.229661	23930.221197
555.587365	23798.226145
555.945014	23626.950422
556.302606	23900.173399
556.660143	23829.667821
557.017625	24106.858186
557.375050	23633.730774
557.732421	24025.597307
558.089735	23823.820083
558.446994	23897.304982
558.804197	23912.151181
559.161345	23873.838411
559.518437	23606.853862
559.875474	23815.756757
560.232455	23990.911648
560.589381	23818.108456
560.946251	23781.635707
561.303065	24128.083964
561.659825	24205.881571
562.016528	23806.120592
562.373177	23555.262694
562.729770	23905.514502
563.086307	23776.140850
563.442789	23937.500623
563.799216	23764.589046
564.155587	23776.488689
564.511904	23752.742334
564.868164	23688.089536
565.224370	23682.289689
565.580520	23588.758641
565.936615	23714.442168
566.292654	23384.831365
566.648638	23703.278533
567.004567	23527.226317
567.360441	23471.692966
567.716260	23195.626779
568.072023	23516.334904
568.427732	23288.593217
568.783385	23071.009456
569.138982	23300.079486
569.494525	23348.585469
569.850013	23083.503955
570.205445	23173.705321
570.560823	22983.860508
570.916145	22757.411878
571.271412	22927.971756
571.626625	22682.520496
571.981782	22795.326396
572.336884	22609.015432
572.691931	22734.419175
573.046923	22477.380823
573.401860	22340.069874
573.756743	22351.510773
574.111570	22262.788986
574.466342	22199.920756
574.821059	22296.859624
575.175722	21994.415599
575.530330	21979.750883
575.884882	22001.014469
576.239380	21902.038975
576.593823	21796.260444
576.948211	21789.737191
577.302544	21624.581429
577.656823	21495.573261
578.011047	21596.008169
578.365216	21478.100622
578.719330	21339.829334
579.073389	21242.114128
579.427394	21384.635109
579.781344	21168.757778
580.135239	21051.049356
580.489080	21016.918224
580.842866	20793.484203
581.196597	20973.821400
581.550273	20962.914864
581.903895	20839.262922
582.257463	21163.338538
582.610975	20682.679642
582.964434	20994.875779
583.317837	20711.154599
583.671186	20793.010335
584.024481	20755.557082
584.377721	20541.751666
584.730906	20589.435940
585.084037	20621.159921
585.437113	20518.264930
585.790135	20721.065508
586.143103	20185.379897
586.496016	20198.801969
586.848874	20443.028229
587.201679	20385.364991
587.554428	20050.065246
587.907124	20379.877695
588.259765	20161.157153
588.612352	20234.561394
588.964884	19814.121602
589.317362	19978.972374
589.669786	20028.463902
590.022155	20086.694270
590.374470	20256.422358
590.726731	20071.734646
591.078937	19821.627880
591.431090	19925.710063
591.783188	19671.419139
592.135232	19638.147524
592.487222	19737.833821
592.839157	19768.335322
593.191038	19642.361928
593.542866	19525.886069
593.894639	19258.934287
594.246358	19471.497060
594.598022	19380.804182
594.949633	19132.174474
595.301190	19094.753989
595.652692	19259.415718
596.004141	19503.420167
596.355535	18832.485440
596.706876	18841.778807
597.058162	18736.509432
597.409395	18962.269945
597.760573	19037.088230
598.111698	18816.036155
598.462768	18750.130630
598.813785	18724.597186
599.164748	18538.235810
599.515657	18573.725533
599.866511	18362.123101
600.217312	18726.462413
600.568060	18254.900279
600.918753	18564.235561
601.269392	18463.384758
601.619978	18249.791069
601.970510	18449.367830
602.320988	18398.812618
602.671412	18605.643599
603.021783	18506.773969
603.372100	18240.893433
603.722363	18384.730155
604.072572	18317.150967
604.422728	18460.274366
604.772830	18226.931957
605.122878	18168.565478
605.472872	18160.751690
605.822813	18148.927663
606.172701	18117.485987
606.522534	18316.457808
606.872314	18331.261157
607.222041	18169.709820
607.571714	18378.645482
607.921333	18219.345021
608.270899	18294.606927
608.620411	18474.616449
608.969870	18228.953460
609.319276	18242.526767
609.668627	18277.449360
610.017926	18409.693949
610.367171	18516.291668
610.716362	18559.403615
611.065500	18389.025218
611.414585	18519.848202
611.763616	18497.878853
612.112594	18442.320297
612.461518	18420.033355
612.810389	18609.946224
613.159207	18461.035580
613.507971	18370.501498
613.856682	18645.309918
614.205340	18578.113858
614.553945	18724.761023
614.902496	18465.522207
615.250994	18701.148258
615.599439	18638.781624
615.947830	18626.718142
616.296169	18679.882151
616.644454	18647.137336
616.992686	18613.159959
617.340864	18823.751641
617.688990	18586.835054
618.037063	18759.086240
618.385082	18604.521942
618.733048	18887.807062
619.080961	18758.382999
619.428821	18792.194018
619.776628	18686.322225
620.124382	18611.118292
620.472083	18644.825967
620.819731	18672.869906
621.167326	18366.266929
621.514868	18405.887878
621.862357	18160.003078
622.209793	18170.478596
622.557176	18010.520264
622.904506	17843.849635
623.251783	17745.166528
623.599007	17519.426180
623.946179	17460.643805
624.293297	17408.387204
624.640363	17154.887742
624.987376	17173.229980
625.334336	16968.649875
625.681243	16814.672872
626.028097	16819.300651
626.374899	16749.203407
626.721647	16614.108046
627.068343	16445.660410
627.414987	16380.599279
627.761577	16346.498394
628.108115	16395.425312
628.454600	16116.641943
628.801032	16216.366048
629.147412	16145.371479
629.493739	16161.757749
629.840014	15980.049359
630.186236	16072.685602
630.532405	15834.987636
630.878521	16036.827875
631.224585	15920.825883
631.570597	15751.531334
631.916556	15785.889318
632.262462	15766.564055
632.608316	15683.838721
632.954117	15621.978722
633.299866	15624.660616
633.645562	15542.547781
633.991206	15290.676612
634.336797	15169.842674
634.682336	15128.931190
635.027823	15015.979097
635.373257	14901.605399
635.718639	14799.602692
636.063968	14750.428757
636.409245	14514.107026
636.754470	14526.208316
637.099642	14382.989135
637.444762	14152.835256
