Dividing Wavelength (nm)	Counts (n)	Blue Motor Position (mm): 45.100000	Red Motor Position (mm): 0.000000	
326.493990	2264.786256
326.888308	2264.786256
327.282561	2264.786256
327.676750	2228.734445
328.070874	2223.753785
328.464933	2224.351161
328.858929	2228.704198
329.252859	2235.746690
329.646726	2242.554768
330.040528	2255.820564
330.434265	2267.483274
330.827938	2287.027827
331.221547	2302.932668
331.615091	2321.463949
332.008571	2339.244099
332.401986	2359.779239
332.795338	2377.148534
333.188625	2397.968500
333.581847	2417.702097
333.975006	2438.154058
334.368100	2455.924125
334.761129	2473.701754
335.154095	2490.118272
335.546996	2516.874196
335.939833	2556.558159
336.332606	2573.027608
336.725315	2584.299628
337.117960	2598.558532
337.510540	2610.576643
337.903056	2617.755246
338.295508	2627.550208
338.687896	2638.101343
339.080220	2646.189874
339.472480	2649.776655
339.864676	2654.880823
340.256807	2659.712769
340.648875	2665.308450
341.040879	2668.290292
341.432818	2670.021929
341.824694	2675.597445
342.216506	2674.075017
342.608253	2675.761282
342.999937	2677.424863
343.391557	2675.912517
343.783113	2676.071313
344.174605	2674.001920
344.566033	2672.870181
344.957397	2673.210459
345.348697	2670.964625
345.739934	2669.076712
346.131106	2669.268276
346.522215	2666.853564
346.913260	2664.905158
347.304241	2664.501865
347.695159	2660.239570
348.086012	2659.601864
348.476802	2658.954076
348.867528	2653.166831
349.258191	2650.149700
349.648789	2648.027375
350.039324	2648.566778
350.429796	2652.115750
350.820203	2649.138949
351.210548	2649.764052
351.600828	2644.864051
351.991045	2647.006541
352.381198	2649.098620
352.771288	2645.940337
353.161314	2643.623927
353.551276	2645.645429
353.941175	2643.507980
354.331010	2643.886067
354.720782	2645.713485
355.110490	2644.581746
355.500135	2646.709113
355.889717	2644.410347
356.279235	2644.090233
356.668689	2644.952271
357.058080	2645.358084
357.447408	2644.080151
357.836672	2645.980666
358.225873	2644.556540
358.615010	2647.329175
359.004084	2647.160296
359.393095	2646.971253
359.782043	2650.883188
360.170927	2649.154072
360.559748	2649.327992
360.948505	2652.544248
361.337199	2654.653971
361.725830	2651.500730
362.114398	2652.811430
362.502903	2651.120122
362.891344	2653.340751
363.279722	2654.774959
363.668037	2653.406286
364.056289	2653.587767
364.444478	2654.921152
364.832603	2657.315701
365.220665	2655.132881
365.608665	2658.291164
365.996601	2658.124806
366.384474	2657.751760
366.772284	2658.956596
367.160031	2657.477017
367.547715	2661.336021
367.935336	2659.672440
368.322893	2659.017090
368.710388	2658.928870
369.097820	2658.475166
369.485189	2659.826195
369.872495	2663.851557
370.259738	2662.893737
370.646918	2665.273162
371.034035	2664.708553
371.421090	2665.242915
371.808081	2666.304078
372.195010	2667.448420
372.581875	2664.940446
372.968678	2669.477484
373.355418	2666.556136
373.742096	2673.260870
374.128710	2670.331960
374.515262	2675.494101
374.901751	2678.675069
375.288177	2684.379135
375.674540	2688.414579
376.060841	2692.626463
376.447079	2703.893442
376.833254	2715.132694
377.219367	2724.216853
377.605417	2743.438773
377.991404	2756.717172
378.377329	2782.089299
378.763191	2798.236115
379.148991	2833.569562
379.534727	2861.298429
379.920402	2892.362019
380.306013	2919.662388
380.691563	2967.689461
381.077049	2998.957217
381.462474	3040.372817
381.847835	3087.394179
382.233134	3135.247332
382.618371	3169.486849
383.003545	3236.410687
383.388657	3273.745472
383.773706	3333.465501
384.158693	3377.114332
384.543618	3416.831063
384.928480	3484.838748
385.313280	3545.786298
385.698017	3584.313317
386.082692	3676.465609
386.467305	3694.817930
386.851856	3741.554467
387.236344	3830.792972
387.620770	3867.406873
388.005133	3926.219494
388.389435	3979.796877
388.773674	4007.066999
389.157851	4086.215635
389.541965	4165.011390
389.926018	4136.569200
390.310008	4239.103749
390.693936	4305.747803
391.077802	4341.618133
391.461606	4347.445707
391.845348	4419.042694
392.229027	4486.001820
392.612645	4485.094412
392.996200	4593.113736
393.379694	4660.019930
393.763125	4756.873098
394.146494	4789.620434
394.529801	4852.944888
394.913047	4934.825829
395.296230	4883.277511
395.679351	4994.177854
396.062410	5047.440165
396.445408	5019.242471
396.828343	5080.270679
397.211217	5134.904184
397.594028	5017.868757
397.976778	5142.614629
398.359466	5184.388150
398.742092	5210.808838
399.124656	5124.022854
399.507158	5244.327470
399.889598	5307.097397
400.271977	5431.066932
400.654294	5425.370428
401.036549	5470.897088
401.418742	5387.390375
401.800874	5597.578764
402.182944	5650.609182
402.564952	5758.799905
402.946898	5817.794008
403.328783	5662.113095
403.710606	5675.217574
404.092367	5998.957953
404.474067	6022.943763
404.855705	5922.282003
405.237282	5855.204410
405.618797	6113.366940
406.000250	6084.292085
406.381642	6293.820083
406.762972	6313.132743
407.144240	6373.752618
407.525447	6355.322160
407.906593	6372.845211
408.287677	6538.323606
408.668700	6447.164421
409.049661	6563.975518
409.430560	6593.297389
409.811399	6450.967972
410.192176	6718.000412
410.572891	6730.333595
410.953545	6932.456138
411.334138	6657.355331
411.714669	6827.552247
412.095139	6623.909796
412.475547	6872.564709
412.855894	6940.373270
413.236180	7122.623584
413.616405	6791.780219
413.996568	7006.956830
414.376670	7052.788480
414.756711	6945.535411
415.136691	7045.798920
415.516609	7247.074549
415.896466	7234.443938
416.276262	7434.623116
416.655997	7424.598782
417.035670	7600.358611
417.415283	7945.367618
417.794834	8003.829879
418.174324	7863.214454
418.553753	7789.089328
418.933121	8092.047551
419.312428	8192.915998
419.691674	7964.584497
420.070859	8442.959750
420.449983	8123.307746
420.829045	8491.407759
421.208047	8262.955269
421.586988	8568.507166
421.965867	8589.092717
422.344686	8688.766411
422.723444	8750.404599
423.102141	8090.744413
423.480777	8857.372843
423.859352	8380.303248
424.237866	8999.452723
424.616319	8866.542702
424.994712	9293.951889
425.373044	8839.897683
425.751314	9315.517945
426.129524	9200.733393
426.507673	9288.522567
426.885762	9438.433879
427.263789	9356.782310
427.641756	9298.589751
428.019662	9384.246516
428.397508	9646.764603
428.775292	9311.006113
429.153016	9686.136014
429.530679	9524.186427
429.908282	9546.927072
430.285824	9275.201318
430.663305	9965.332758
431.040726	9414.019571
431.418086	9392.375377
431.795385	9726.891223
432.172624	9814.652670
432.549802	9727.168486
432.926920	9797.023755
433.303977	9673.878449
433.680974	9875.355724
434.057910	9971.619077
434.434786	10045.711436
434.811601	9868.560249
435.188355	10434.742319
435.565050	10176.022742
435.941683	10101.201937
436.318257	10580.403939
436.694770	10744.851419
437.071222	10801.519029
437.447614	10621.111257
437.823946	10553.688344
438.200218	10643.105811
438.576429	10492.249282
438.952580	10730.428678
439.328670	10759.377504
439.704700	10561.441639
440.080670	10558.374097
440.456580	11079.919271
440.832429	10867.916067
441.208218	10459.184354
441.583947	10760.065621
441.959616	10937.799062
442.335224	10752.085475
442.710773	10865.821467
443.086261	11092.469223
443.461689	10354.794661
443.837057	11039.842098
444.212365	11281.701536
444.587612	10916.273335
444.962800	11137.214505
445.337927	10880.609692
445.712995	10546.476974
446.088002	11582.930643
446.462949	11284.310333
446.837837	11239.817109
447.212664	11178.882162
447.587431	11757.047056
447.962139	12512.947910
448.336786	14791.672957
448.711374	15294.119720
449.085901	13106.342129
449.460369	12755.843305
449.834776	12203.254706
450.209124	13127.101601
450.583412	13552.133885
450.957640	14481.029495
451.331808	13532.173436
451.705917	12594.095364
452.079965	11849.731190
452.453954	12769.199843
452.827883	12406.067887
453.201752	12699.662166
453.575562	12248.337745
453.949311	12665.427691
454.323001	12638.926345
454.696632	12876.659598
455.070202	13153.751661
455.443713	13363.030122
455.817164	13857.227036
456.190556	13817.013752
456.563888	14190.391853
456.937160	14331.246732
457.310373	13687.146067
457.683526	13793.670689
458.056619	13302.236327
458.429653	13526.897868
458.802628	12886.852812
459.175542	13299.395637
459.548398	14247.369494
459.921194	14613.390031
460.293930	14684.752604
460.666607	15528.029258
461.039224	16592.244561
461.411782	17309.298284
461.784280	17103.767922
462.156719	17203.812140
462.529099	16874.360133
462.901419	15830.879096
463.273680	15590.708444
463.645882	15489.789586
464.018024	15212.027050
464.390106	15432.471666
464.762130	16155.741132
465.134094	16949.039787
465.505999	19001.754783
465.877845	22283.036780
466.249631	25080.627628
466.621358	24700.958167
466.993026	23275.198872
467.364634	22701.558414
467.736184	21222.864482
468.107674	20431.315108
468.479105	20560.020807
468.850477	20015.724906
469.221790	19623.644124
469.593043	18925.948432
469.964238	18358.032204
470.335373	17993.687851
470.706449	18496.374069
471.077467	18079.591633
471.448425	19951.712334
471.819324	24092.437966
472.190164	25936.227382
472.560945	22256.689190
472.931667	19966.750096
473.302330	19349.236476
473.672934	18976.208736
474.043479	19203.821873
474.413965	19018.720786
474.784393	18622.171022
475.154761	19377.734119
475.525070	19305.413726
475.895321	19018.181383
476.265513	19626.978847
476.635645	20212.229083
477.005719	19970.193204
477.375734	20157.933335
477.745691	20643.663632
478.115588	21191.427847
478.485427	21749.171026
478.855207	22843.119055
479.224928	24625.686178
479.594591	26848.222524
479.964194	26768.229495
480.333739	27005.352769
480.703226	26577.971308
481.072653	26296.047299
481.442022	26897.512406
481.811333	27825.782913
482.180584	27713.884422
482.549777	26767.087674
482.918912	26442.336543
483.287988	26584.698727
483.657005	26207.625461
484.025964	26003.735994
484.394864	25872.340839
484.763706	25520.773291
485.132489	24996.339535
485.501213	25174.307390
485.869879	25087.460912
486.238487	24927.895790
486.607036	25051.915736
486.975527	24810.905732
487.343959	25100.371307
487.712333	24993.203938
488.080648	24649.556042
488.448905	25168.389075
488.817104	24922.879842
489.185244	25635.283100
489.553326	25583.074390
489.921350	26640.854661
490.289315	28980.285282
490.657222	30710.895753
491.025070	31216.727651
491.392861	30948.508019
491.760593	30103.774472
492.128267	29192.868219
492.495883	28121.655794
492.863440	27264.218540
493.230939	26401.593938
493.598380	26235.182928
493.965763	25848.455852
494.333088	25354.720203
494.700354	25320.266437
495.067563	25156.368444
495.434713	24907.920218
495.801805	25095.768733
496.168839	24853.571538
496.535815	24721.452978
496.902733	24929.478712
497.269593	24631.672548
497.636395	24798.106243
498.003139	24740.899229
498.369825	24483.381967
498.736453	24704.416398
499.103023	24562.933895
499.469535	24569.036212
499.835989	24786.007473
500.202385	24819.997453
500.568723	24350.068653
500.935003	24528.817887
501.301226	24223.659200
501.667390	25067.124897
502.033497	25263.258549
502.399546	24997.128476
502.765537	24534.814339
503.131470	24922.156436
503.497345	25062.547529
503.863163	24310.062057
504.228923	24847.040723
504.594625	25090.271355
504.960269	24658.443596
505.325856	25133.279959
505.691385	24512.189641
506.056856	25127.449865
506.422270	25115.865293
506.787625	24634.112467
507.152924	25077.212246
507.518164	25121.481138
507.883347	24928.883856
508.248472	24611.971719
508.613540	25389.509206
508.978550	25185.060171
509.343503	25204.433325
509.708398	25408.617700
510.073236	25570.405971
510.438016	25781.897498
510.802738	25436.250785
511.167403	25708.662136
511.532010	25435.449241
511.896561	26192.512082
512.261053	26163.948904
512.625488	25976.196170
512.989866	25871.682969
513.354186	25709.206580
513.718449	25845.847055
514.082655	26220.339251
514.446803	25930.563646
514.810894	26444.327799
515.174927	25926.324035
515.538904	25955.872758
515.902822	26449.638654
516.266684	26198.364861
516.630488	26100.029594
516.994235	26046.074124
517.357925	26388.449129
517.721558	26537.967231
518.085133	26661.674626
518.448651	26546.771607
518.812112	26324.232391
519.175516	26542.675669
519.538863	26682.025764
519.902152	26470.178836
520.265385	26718.407772
520.628560	26525.742433
520.991678	26520.038368
521.354739	26577.129435
521.717743	26667.577817
522.080690	26454.901619
522.443580	26783.443697
522.806413	26751.613852
523.169189	26863.401438
523.531908	26899.811172
523.894569	26522.127926
524.257174	26637.139330
524.619722	26759.437723
524.982213	26483.076628
525.344647	26498.772260
525.707025	26676.533427
526.069345	26631.825954
526.431608	26596.805058
526.793815	26761.771777
527.155964	26263.204182
527.518057	26438.850585
527.880093	26343.204773
528.242072	26571.390081
528.603995	26281.498529
528.965860	26092.747647
529.327669	26126.319211
529.689421	26110.139628
530.051117	25957.349817
530.412755	26130.946990
530.774337	25912.397848
531.135862	25798.815610
531.497331	25990.689487
531.858743	25590.109321
532.220098	26022.552100
532.581396	25734.896300
532.942638	25624.545443
533.303824	25747.781489
533.664953	25744.711427
534.026025	25407.480920
534.387040	25647.588557
534.747999	25694.919950
535.108902	25855.208478
535.469748	25350.319276
535.830537	25522.202458
536.191270	25663.006926
536.551947	25483.967826
536.912567	25112.278512
537.273131	25551.549535
537.633638	25215.322217
537.994089	25435.658449
538.354483	24934.242602
538.714821	25449.027589
539.075103	25480.255017
539.435328	25265.302737
539.795497	24854.176476
540.155609	25199.109867
540.515665	25518.824885
540.875665	24724.596137
541.235609	25069.428704
541.595496	24999.061758
541.955328	25362.042479
542.315102	25281.124398
542.674821	24785.745333
543.034483	24670.517159
543.394090	24852.422155
543.753640	24658.478884
544.113134	25292.277951
544.472571	24877.789241
544.831953	25179.164541
545.191278	24832.635626
545.550548	24714.138264
545.909761	24899.297324
546.268918	25141.602904
546.628019	25123.379133
546.987064	24806.477079
547.346053	24541.166193
547.704986	24653.999819
548.063863	24808.168386
548.422684	24837.399516
548.781449	24329.336908
549.140158	24746.996504
549.498811	24320.996319
549.857408	24083.741975
550.215949	24470.821932
550.574434	24172.110882
550.932864	24375.652509
551.291237	24564.042949
551.649555	24405.675101
552.007817	24478.013138
552.366022	24304.274812
552.724173	24326.496218
553.082267	24321.016484
553.440305	24782.912205
553.798288	24032.952350
554.156215	24519.960579
554.514086	24654.347658
554.871902	24026.570249
555.229661	24301.829852
555.587365	24147.633559
555.945014	24055.062851
556.302606	24259.716053
556.660143	24254.339663
557.017625	24478.907943
557.375050	24001.671991
557.732421	24386.939653
558.089735	24212.283837
558.446994	24263.698565
558.804197	24310.971985
559.161345	24213.922212
559.518437	24004.222814
559.875474	24175.196068
560.232455	24364.589697
560.589381	24168.967722
560.946251	24183.423231
561.303065	24481.794003
561.659825	24576.439146
562.016528	24168.440922
562.373177	23908.211519
562.729770	24272.248362
563.086307	24108.466314
563.442789	24286.265290
563.799216	24130.239058
564.155587	24119.955104
564.511904	24109.429175
564.868164	24060.545106
565.224370	24004.242979
565.580520	23969.882474
565.936615	24072.737136
566.292654	23783.884062
566.648638	24022.038252
567.004567	23859.806360
567.360441	23810.062774
567.716260	23527.712788
568.072023	23837.637886
568.427732	23626.980669
568.783385	23384.677610
569.138982	23638.945848
569.494525	23666.805785
569.850013	23422.002313
570.205445	23516.135778
570.560823	23340.433923
570.916145	23085.585952
571.271412	23282.279172
571.626625	23026.256612
571.981782	23141.668788
572.336884	22952.965797
572.691931	23082.470519
573.046923	22830.097754
573.401860	22703.332900
573.756743	22720.916444
574.111570	22613.532306
574.466342	22524.934027
574.821059	22614.185135
575.175722	22326.262154
575.530330	22296.413482
575.884882	22306.377322
576.239380	22225.693655
576.593823	22121.508129
576.948211	22089.534610
577.302544	21945.055141
577.656823	21806.892238
578.011047	21909.648597
578.365216	21771.334459
578.719330	21645.086323
579.073389	21536.709077
579.427394	21707.387423
579.781344	21441.942946
580.135239	21337.238181
580.489080	21286.740943
580.842866	21065.351110
581.196597	21286.579626
581.550273	21232.722459
581.903895	21116.372628
582.257463	21431.686719
582.610975	20963.723969
582.964434	21289.332096
583.317837	20958.748350
583.671186	21058.109492
584.024481	21042.867564
584.377721	20806.205555
584.730906	20885.119777
585.084037	20869.834999
585.437113	20797.988474
585.790135	21006.767861
586.143103	20457.070363
586.496016	20476.274639
586.848874	20716.893953
587.201679	20624.298039
587.554428	20337.557208
587.907124	20656.720220
588.259765	20418.853376
588.612352	20487.594550
588.964884	20059.613191
589.317362	20229.169880
589.669786	20281.126532
590.022155	20292.753954
590.374470	20539.115142
590.726731	20281.340781
591.078937	20097.464695
591.431090	20165.563122
591.783188	19931.424211
592.135232	19899.538913
592.487222	20004.692341
592.839157	20008.405150
593.191038	19881.660460
593.542866	19772.312792
593.894639	19472.349015
594.246358	19688.914464
594.598022	19583.685418
594.949633	19341.221042
595.301190	19318.114913
595.652692	19500.783643
596.004141	19702.596155
596.355535	19039.008910
596.706876	19058.850891
597.058162	18952.560683
597.409395	19198.274083
597.760573	19242.172451
598.111698	19016.225415
598.462768	18958.456312
598.813785	18943.975598
599.164748	18730.076920
599.515657	18794.177712
599.866511	18581.335155
600.217312	18939.017623
600.568060	18448.246173
600.918753	18760.051621
601.269392	18650.179672
601.619978	18454.499724
601.970510	18643.777407
602.320988	18609.527808
602.671412	18793.529923
603.021783	18728.735973
603.372100	18428.568029
603.722363	18585.559642
604.072572	18527.815745
604.422728	18682.001956
604.772830	18430.047607
605.122878	18392.967400
605.472872	18374.844452
605.822813	18358.818624
606.172701	18343.009566
606.522534	18515.832923
606.872314	18551.226864
607.222041	18395.515704
607.571714	18602.775182
607.921333	18423.410928
608.270899	18502.604935
608.620411	18640.465369
608.969870	18453.057954
609.319276	18444.389690
609.668627	18460.649932
610.017926	18606.561089
610.367171	18711.863231
610.716362	18773.080483
611.065500	18581.700639
611.414585	18742.962109
611.763616	18715.192913
612.112594	18646.078694
612.461518	18615.143653
612.810389	18808.053488
613.159207	18661.691147
613.507971	18584.095187
613.856682	18831.845213
614.205340	18754.299664
614.553945	18918.338810
614.902496	18666.018978
615.250994	18871.556902
615.599439	18830.491663
615.947830	18814.659920
616.296169	18880.701556
616.644454	18837.682869
616.992686	18812.048602
617.340864	19029.360141
617.688990	18779.911246
618.037063	18946.380228
618.385082	18813.061874
618.733048	19081.783100
619.080961	18970.451738
619.428821	18988.630139
619.776628	18872.973467
620.124382	18814.140681
620.472083	18864.766468
620.819731	18866.689668
621.167326	18553.024035
621.514868	18594.908462
621.862357	18385.730824
622.209793	18379.719248
622.557176	18226.001864
622.904506	18049.780770
623.251783	17976.784862
623.599007	17717.606540
623.946179	17660.644022
624.293297	17597.712778
624.640363	17336.407089
624.987376	17367.818519
625.334336	17160.828742
625.681243	17005.616656
626.028097	17028.662291
626.374899	16927.279646
626.721647	16800.260213
627.068343	16642.245246
627.414987	16572.299236
627.761577	16544.910647
628.108115	16576.808548
628.454600	16305.503731
628.801032	16401.716672
629.147412	16341.530337
629.493739	16352.502408
629.840014	16149.396840
630.186236	16247.739669
630.532405	16021.137283
630.878521	16213.348918
631.224585	16118.595390
631.570597	15930.545228
631.916556	15957.578416
632.262462	15928.732933
632.608316	15857.796337
632.954117	15798.459436
633.299866	15795.351564
633.645562	15696.613004
633.991206	15478.265508
634.336797	15345.741135
634.682336	15312.895497
635.027823	15177.142265
635.373257	15043.322316
635.718639	14967.359689
636.063968	14910.223251
