Dividing Wavelength (nm)	Counts (n)	Blue Motor Position (mm): 41.800000	Red Motor Position (mm): 0.000000	
326.493990	2255.744947
326.888308	2255.744947
327.282561	2255.744947
327.676750	2215.052753
328.070874	2211.987732
328.464933	2211.173585
328.858929	2216.270192
329.252859	2218.833618
329.646726	2228.462222
330.040528	2241.559140
330.434265	2254.320821
330.827938	2273.963677
331.221547	2291.315328
331.615091	2308.467854
332.008571	2325.353199
332.401986	2345.336333
332.795338	2363.759230
333.188625	2384.097765
333.581847	2404.559808
333.975006	2422.450863
334.368100	2443.505243
334.761129	2458.031327
335.154095	2478.115284
335.546996	2504.357011
335.939833	2542.223638
336.332606	2559.343396
336.725315	2571.963925
337.117960	2586.474886
337.510540	2594.870928
337.903056	2608.701333
338.295508	2616.421861
338.687896	2623.953344
339.080220	2631.807462
339.472480	2637.435910
339.864676	2643.026550
340.256807	2648.047539
340.648875	2652.529125
341.040879	2654.631286
341.432818	2657.378715
341.824694	2659.087666
342.216506	2662.238387
342.608253	2661.303253
342.999937	2660.289981
343.391557	2663.337359
343.783113	2659.465753
344.174605	2662.445075
344.566033	2659.127995
344.957397	2660.705877
345.348697	2657.973571
345.739934	2656.224291
346.131106	2656.443581
346.522215	2653.141625
346.913260	2651.276398
347.304241	2650.215235
347.695159	2647.515697
348.086012	2649.098620
348.476802	2642.847589
348.867528	2640.891621
349.258191	2638.247536
349.648789	2638.610499
350.039324	2630.837040
350.429796	2638.761734
350.820203	2633.821403
351.210548	2636.374747
351.600828	2633.929788
351.991045	2632.223357
352.381198	2629.342338
352.771288	2630.678244
353.161314	2629.768315
353.551276	2630.645476
353.941175	2626.975516
354.331010	2631.139509
354.720782	2629.574231
355.110490	2629.488531
355.500135	2629.291926
355.889717	2629.438120
356.279235	2628.815537
356.668689	2629.430558
357.058080	2630.713532
357.447408	2631.386526
357.836672	2631.883079
358.225873	2629.801083
358.615010	2629.231432
359.004084	2631.583131
359.393095	2634.577576
359.782043	2632.951804
360.170927	2634.403656
360.559748	2630.090949
360.948505	2637.587145
361.337199	2636.014305
361.725830	2638.126548
362.114398	2637.060344
362.502903	2637.241826
362.891344	2636.362145
363.279722	2638.219810
363.668037	2638.975983
364.056289	2638.880201
364.444478	2643.702065
364.832603	2641.728453
365.220665	2642.928247
365.608665	2642.456900
365.996601	2643.903711
366.384474	2642.852630
366.772284	2643.202990
367.160031	2646.164668
367.547715	2643.744914
367.935336	2647.601397
368.322893	2643.283649
368.710388	2642.252733
369.097820	2647.719864
369.485189	2643.976807
369.872495	2647.011582
370.259738	2649.534680
370.646918	2651.755308
371.034035	2650.121974
371.421090	2649.469145
371.808081	2649.605256
372.195010	2652.307314
372.581875	2653.277736
372.968678	2652.133394
373.355418	2651.137767
373.742096	2655.785710
374.128710	2653.547438
374.515262	2652.703045
374.901751	2652.947541
375.288177	2654.439722
375.674540	2654.900988
376.060841	2657.192192
376.447079	2656.746050
376.833254	2658.702018
377.219367	2657.202275
377.605417	2657.532470
377.991404	2658.792759
378.377329	2662.036741
378.763191	2658.457522
379.148991	2658.709580
379.534727	2661.583037
379.920402	2661.310815
380.306013	2661.832574
380.691563	2663.067657
381.077049	2663.425579
381.462474	2664.176711
381.847835	2669.422032
382.233134	2669.737104
382.618371	2671.728359
383.003545	2680.409226
383.388657	2686.355267
383.773706	2696.982020
384.158693	2704.967207
384.543618	2716.697972
384.928480	2731.647514
385.313280	2753.614342
385.698017	2776.838938
386.082692	2805.754996
386.467305	2837.448730
386.851856	2872.197404
387.236344	2919.138108
387.620770	2959.341310
388.005133	3002.339832
388.389435	3052.206925
388.773674	3094.287957
389.157851	3161.582320
389.541965	3231.225860
389.926018	3259.484048
390.310008	3343.744414
390.693936	3416.606731
391.077802	3479.933706
391.461606	3528.800131
391.845348	3606.096142
392.229027	3687.062114
392.612645	3735.946183
392.996200	3844.207483
393.379694	3931.346347
393.763125	4046.413205
394.146494	4111.338225
394.529801	4207.863718
394.913047	4317.350018
395.296230	4329.181606
395.679351	4454.870174
396.062410	4548.882653
396.445408	4572.825613
396.828343	4661.577647
397.211217	4750.556533
397.594028	4686.400288
397.976778	4826.004962
398.359466	4898.002721
398.742092	4953.493222
399.124656	4895.996342
399.507158	5031.832753
399.889598	5116.529178
400.271977	5258.243575
400.654294	5264.998721
401.036549	5324.476775
401.418742	5259.957567
401.800874	5473.478159
402.182944	5541.702614
402.564952	5663.292725
402.946898	5731.807047
403.328783	5586.631898
403.710606	5600.560606
404.092367	5929.717705
404.474067	5954.487415
404.855705	5865.261512
405.237282	5806.048119
405.618797	6054.448454
406.000250	6039.531680
406.381642	6240.429223
406.762972	6263.187512
407.144240	6327.593293
407.525447	6311.277599
407.906593	6338.769531
408.287677	6492.466750
408.668700	6402.567854
409.049661	6524.798191
409.430560	6553.560494
409.811399	6411.042033
410.192176	6689.593510
410.572891	6689.906061
410.953545	6891.148923
411.334138	6628.340970
411.714669	6795.997144
412.095139	6590.849909
412.475547	6837.029616
412.855894	6902.930099
413.236180	7082.795948
413.616405	6760.797287
413.996568	6979.684187
414.376670	7014.339599
414.756711	6914.653303
415.136691	7010.415061
415.516609	7210.281688
415.896466	7204.650719
416.276262	7404.487098
416.655997	7384.909777
417.035670	7572.846513
417.415283	7910.387052
417.794834	7961.040565
418.174324	7821.012435
418.553753	7744.709530
418.933121	8055.786531
419.312428	8154.376377
419.691674	7938.665404
420.070859	8415.475379
420.449983	8090.822551
420.829045	8453.223539
421.208047	8232.627688
421.586988	8536.871405
421.965867	8547.901449
422.344686	8660.563676
422.723444	8699.546919
423.102141	8060.220226
423.480777	8814.230648
423.859352	8351.112447
424.237866	8956.290363
424.616319	8825.674067
424.994712	9246.098736
425.373044	8798.850088
425.751314	9270.021532
426.129524	9141.262901
426.507673	9253.723482
426.885762	9405.462212
427.263789	9316.997524
427.641756	9242.605217
428.019662	9336.118621
428.397508	9588.856869
428.775292	9268.766285
429.153016	9652.773658
429.530679	9486.100509
429.908282	9512.886680
430.285824	9236.351665
430.663305	9924.174258
431.040726	9379.175116
431.418086	9355.262402
431.795385	9678.397843
432.172624	9777.988358
432.549802	9692.061891
432.926920	9763.978992
433.303977	9635.641297
433.680974	9841.365744
434.057910	9939.592627
434.434786	10006.907154
434.811601	9833.587244
435.188355	10397.687318
435.565050	10140.205344
435.941683	10064.409076
436.318257	10548.969824
436.694770	10695.427947
437.071222	10754.351473
437.447614	10591.474313
437.823946	10499.198512
438.200218	10620.629826
438.576429	10448.171953
438.952580	10689.194560
439.328670	10731.174768
439.704700	10522.818839
440.080670	10513.245688
440.456580	11060.944368
440.832429	10827.375107
441.208218	10418.655997
441.583947	10740.621891
441.959616	10895.576878
442.335224	10703.897085
442.710773	10836.444143
443.086261	11050.042873
443.461689	10326.707872
443.837057	10998.456745
444.212365	11257.211611
444.587612	10890.316434
444.962800	11107.370874
445.337927	10870.426561
445.712995	10502.520633
446.088002	11564.716954
446.462949	11238.607232
446.837837	11212.683099
447.212664	11168.711634
447.587431	11716.642208
447.962139	12454.904065
448.336786	14739.141613
448.711374	15250.712864
449.085901	13086.205240
449.460369	12719.610012
449.834776	12167.089468
450.209124	13071.817787
450.583412	13487.534019
450.957640	14429.072843
451.331808	13515.696425
451.705917	12547.079042
452.079965	11822.720687
452.453954	12737.284298
452.827883	12376.423382
453.201752	12678.123837
453.575562	12198.702544
453.949311	12616.818365
454.323001	12591.448758
454.696632	12823.919047
455.070202	13105.351543
455.443713	13312.782421
455.817164	13804.103357
456.190556	13773.783337
456.563888	14144.290501
456.937160	14297.660045
457.310373	13645.528821
457.683526	13740.718409
458.056619	13278.646247
458.429653	13467.185401
458.802628	12855.169160
459.175542	13247.257503
459.548398	14200.033059
459.921194	14548.621286
460.293930	14623.449653
460.666607	15482.358925
461.039224	16538.415121
461.411782	17247.062720
461.784280	17064.704020
462.156719	17166.653795
462.529099	16836.417889
462.901419	15776.293482
463.273680	15549.338215
463.645882	15438.140444
464.018024	15161.423947
464.390106	15385.384769
464.762130	16113.166067
465.134094	16900.778300
465.505999	18931.859185
465.877845	22197.024613
466.249631	25025.608475
466.621358	24661.291848
466.993026	23217.397002
467.364634	22648.893479
467.736184	21183.044408
468.107674	20376.346367
468.479105	20518.698469
468.850477	19973.149841
469.221790	19569.532379
469.593043	18884.404283
469.964238	18310.380697
470.335373	17963.022512
470.706449	18436.364173
471.077467	18014.142333
471.448425	19876.324399
471.819324	23975.599143
472.190164	25882.307200
472.560945	22249.384558
472.931667	19923.411297
473.302330	19307.639395
473.672934	18898.758969
474.043479	19158.761519
474.413965	18971.215473
474.784393	18575.578157
475.154761	19309.290373
475.525070	19259.725749
475.895321	18951.791907
476.265513	19558.787159
476.635645	20144.833897
477.005719	19918.241593
477.375734	20098.225909
477.745691	20586.784293
478.115588	21129.739247
478.485427	21672.671517
478.855207	22756.133945
479.224928	24551.709766
479.594591	26770.137572
479.964194	26726.886992
480.333739	26948.347401
480.703226	26527.083380
481.072653	26229.504069
481.442022	26836.915216
481.811333	27751.498991
482.180584	27649.955029
482.549777	26693.970778
482.918912	26359.686826
483.287988	26482.864899
483.657005	26127.297195
484.025964	25893.914457
484.394864	25783.979495
484.763706	25454.426665
485.132489	24902.644650
485.501213	25089.066519
485.869879	24999.281049
486.238487	24835.398178
486.607036	24965.086902
486.975527	24693.749317
487.343959	25003.780278
487.712333	24915.885241
488.080648	24576.660957
488.448905	25082.031589
488.817104	24836.040925
489.185244	25534.475147
489.553326	25478.014224
489.921350	26526.233946
490.289315	28851.970273
490.657222	30584.587123
491.025070	31092.485894
491.392861	30852.534533
491.760593	29988.369858
492.128267	29088.748228
492.495883	28027.131639
492.863440	27152.544379
493.230939	26288.374663
493.598380	26126.535981
493.965763	25736.174233
494.333088	25251.565593
494.700354	25209.260230
495.067563	25068.707819
495.434713	24808.256606
495.801805	24980.510312
496.168839	24778.917091
496.535815	24636.161696
496.902733	24861.768454
497.269593	24538.743918
497.636395	24709.114754
498.003139	24647.693335
498.369825	24390.274376
498.736453	24606.053405
499.103023	24478.648323
499.469535	24476.321831
499.835989	24684.246742
500.202385	24721.536157
500.568723	24247.513940
500.935003	24450.634632
501.301226	24112.128713
501.667390	24965.432221
502.033497	25171.794374
502.399546	24900.103908
502.765537	24450.899292
503.131470	24841.099723
503.497345	24977.858665
503.863163	24209.261665
504.228923	24776.590598
504.594625	25005.610217
504.960269	24554.091711
505.325856	25027.163671
505.691385	24443.377891
506.056856	25041.157914
506.422270	25019.082701
506.787625	24565.608227
507.152924	24988.510623
507.518164	25020.259810
507.883347	24831.498846
508.248472	24517.757595
508.613540	25295.199300
508.978550	25092.186993
509.343503	25086.664409
509.708398	25310.708410
510.073236	25492.194989
510.438016	25695.650917
510.802738	25361.235895
511.167403	25616.446829
511.532010	25337.277811
511.896561	26097.493893
512.261053	26064.819655
512.625488	25883.562448
512.989866	25786.061491
513.354186	25620.694001
513.718449	25747.761325
514.082655	26133.371785
514.446803	25838.413874
514.810894	26329.011404
515.174927	25833.355076
515.538904	25850.767221
515.902822	26347.081420
516.266684	26101.521775
516.630488	26000.572670
516.994235	25961.866690
517.357925	26283.167151
517.721558	26437.058455
518.085133	26562.134523
518.448651	26453.389273
518.812112	26211.988580
519.175516	26428.105366
519.538863	26585.495230
519.902152	26379.377572
520.265385	26640.660576
520.628560	26434.414370
520.991678	26422.169407
521.354739	26503.019432
521.717743	26579.188746
522.080690	26343.698806
522.443580	26676.649374
522.806413	26653.714644
523.169189	26776.101257
523.531908	26815.104664
523.894569	26424.435406
524.257174	26515.206422
524.619722	26675.409250
524.982213	26370.190070
525.344647	26411.162047
525.707025	26573.835041
526.069345	26525.061877
526.431608	26496.014749
526.793815	26677.909662
527.155964	26167.500397
527.518057	26343.172006
527.880093	26246.709527
528.242072	26476.563457
528.603995	26195.314963
528.965860	25988.330228
529.327669	26031.492587
529.689421	26027.061412
530.051117	25868.408739
530.412755	26041.307713
530.774337	25825.667316
531.135862	25712.120367
531.497331	25895.847740
531.858743	25482.909184
532.220098	25946.944875
532.581396	25638.950540
532.942638	25531.551277
533.303824	25651.871017
533.664953	25650.928321
534.026025	25318.088659
534.387040	25559.063375
534.747999	25617.560924
535.108902	25765.385199
535.469748	25280.090962
535.830537	25447.008607
536.191270	25577.539203
536.551947	25422.044813
536.912567	25045.944489
537.273131	25457.416069
537.633638	25135.132583
537.994089	25346.772824
538.354483	24861.730645
538.714821	25363.693457
539.075103	25406.545786
539.435328	25188.394894
539.795497	24764.522076
540.155609	25125.067919
540.515665	25443.978873
540.875665	24641.840556
541.235609	24979.260106
541.595496	24930.250008
541.955328	25296.444465
542.315102	25204.665218
542.674821	24718.219078
543.034483	24604.430153
543.394090	24781.414982
543.753640	24595.376241
544.113134	25222.039555
544.472571	24811.445136
544.831953	25106.287101
545.191278	24756.776343
545.550548	24645.313911
545.909761	24842.259189
546.268918	25082.076959
546.628019	25059.439658
546.987064	24740.304373
547.346053	24477.461132
547.704986	24589.493214
548.063863	24748.914663
548.422684	24774.642192
548.781449	24274.627786
549.140158	24685.091135
549.498811	24272.797847
549.857408	24025.932543
550.215949	24421.189252
550.574434	24107.856335
550.932864	24321.218130
551.291237	24503.516335
551.649555	24337.591798
552.007817	24402.978084
552.366022	24258.365024
552.724173	24284.836123
553.082267	24246.639300
553.440305	24730.711057
553.798288	23971.677125
554.156215	24468.707168
554.514086	24601.274391
554.871902	23981.472087
555.229661	24252.628191
555.587365	24105.129070
555.945014	23998.715354
556.302606	24218.827254
556.660143	24206.173958
557.017625	24447.516678
557.375050	23952.283806
557.732421	24348.455484
558.089735	24165.857330
558.446994	24220.410177
558.804197	24249.280865
559.161345	24161.378265
559.518437	23953.506286
559.875474	24123.814107
560.232455	24304.632734
560.589381	24113.099135
560.946251	24123.259580
561.303065	24426.502628
561.659825	24525.336970
562.016528	24121.825372
562.373177	23861.963973
562.729770	24223.197935
563.086307	24074.776283
563.442789	24243.085287
563.799216	24076.316356
564.155587	24081.183590
564.511904	24068.429470
564.868164	24003.486806
565.224370	23969.700993
565.580520	23910.303598
565.936615	24029.899932
566.292654	23725.467171
566.648638	23984.862263
567.004567	23813.783146
567.360441	23748.255707
567.716260	23478.601867
568.072023	23797.517863
568.427732	23576.846394
568.783385	23338.283871
569.138982	23598.029323
569.494525	23624.568477
569.850013	23384.705336
570.205445	23477.162618
570.560823	23304.697183
570.916145	23061.675759
571.271412	23244.019335
571.626625	23001.507068
571.981782	23099.010545
572.336884	22907.396287
572.691931	23049.163615
573.046923	22778.718314
573.401860	22667.880985
573.756743	22697.132281
574.111570	22581.994847
574.466342	22512.159743
574.821059	22584.996854
575.175722	22291.505919
575.530330	22259.398810
575.884882	22266.053133
576.239380	22199.220036
576.593823	22086.063776
576.948211	22049.356614
577.302544	21910.107342
577.656823	21774.732197
578.011047	21889.355432
578.365216	21745.586766
578.719330	21626.824743
579.073389	21509.776712
579.427394	21674.204027
579.781344	21425.634813
580.135239	21302.277779
580.489080	21260.579875
580.842866	21050.111702
581.196597	21253.610480
581.550273	21211.942823
581.903895	21087.592681
582.257463	21404.512379
582.610975	20935.125503
582.964434	21261.099114
583.317837	20929.073598
583.671186	21026.325017
584.024481	21015.383193
584.377721	20782.035743
584.730906	20857.519460
585.084037	20843.585711
585.437113	20775.840165
585.790135	20975.787450
586.143103	20424.323028
586.496016	20457.077925
586.848874	20683.269457
587.201679	20594.182186
587.554428	20309.052004
587.907124	20642.476440
588.259765	20390.789272
588.612352	20473.660801
588.964884	20045.124915
589.317362	20211.125070
589.669786	20276.624782
590.022155	20284.746081
590.374470	20508.253198
590.726731	20261.148440
591.078937	20073.720860
591.431090	20136.757968
591.783188	19908.141642
592.135232	19869.765858
592.487222	19971.093050
592.839157	19984.530246
593.191038	19865.427945
593.542866	19755.699670
593.894639	19458.258990
594.246358	19676.334264
594.598022	19572.037832
594.949633	19322.231015
595.301190	19305.731319
595.652692	19474.052925
596.004141	19690.376398
596.355535	19031.500111
596.706876	19045.519560
597.058162	18946.518860
597.409395	19179.082411
597.760573	19229.819103
598.111698	19008.111678
598.462768	18957.324573
598.813785	18921.499614
599.164748	18731.695130
599.515657	18770.398589
599.866511	18576.571265
600.217312	18914.023582
600.568060	18441.256613
600.918753	18754.400487
601.269392	18646.814702
601.619978	18450.335731
601.970510	18634.413464
602.320988	18586.963603
602.671412	18783.548439
603.021783	18706.191933
603.372100	18419.695598
603.722363	18568.747394
604.072572	18519.754940
604.422728	18668.693310
604.772830	18416.202078
605.122878	18375.194812
605.472872	18362.075210
605.822813	18347.082818
606.172701	18330.237802
606.522534	18504.339092
606.872314	18530.888328
607.222041	18371.713896
607.571714	18589.746320
607.921333	18405.116581
608.270899	18490.382657
608.620411	18646.938211
608.969870	18434.110777
609.319276	18430.503832
609.668627	18460.803687
610.017926	18594.827803
610.367171	18708.314259
610.716362	18762.143699
611.065500	18573.191171
611.414585	18719.445126
611.763616	18705.609680
612.112594	18634.917579
612.461518	18611.773642
612.810389	18791.193348
613.159207	18661.333225
613.507971	18574.091017
613.856682	18827.358586
614.205340	18750.049971
614.553945	18906.706348
614.902496	18651.656731
615.250994	18859.354790
615.599439	18818.718048
615.947830	18799.682652
616.296169	18873.863230
616.644454	18828.354214
616.992686	18804.204567
617.340864	19028.278814
617.688990	18765.191077
618.037063	18942.732954
618.385082	18804.401172
618.733048	19074.864117
619.080961	18962.799267
619.428821	18992.080809
619.776628	18870.140338
620.124382	18801.106777
620.472083	18847.225773
620.819731	18861.956025
621.167326	18565.944512
621.514868	18586.870342
621.862357	18368.515284
622.209793	18372.641468
622.557176	18208.720789
622.904506	18032.229993
623.251783	17961.520248
623.599007	17713.714769
623.946179	17652.442065
624.293297	17585.760203
624.640363	17311.700394
624.987376	17337.006987
625.334336	17141.211092
625.681243	16997.079462
626.028097	17007.507089
626.374899	16925.391734
626.721647	16786.691947
627.068343	16621.644571
627.414987	16565.213894
627.761577	16527.415323
628.108115	16556.628809
628.454600	16283.000020
628.801032	16390.028757
629.147412	16323.316648
629.493739	16329.297977
629.840014	16146.891387
630.186236	16240.069554
630.532405	16006.137330
630.878521	16203.659820
631.224585	16107.877897
631.570597	15924.357212
631.916556	15951.821418
632.262462	15926.973571
632.608316	15844.432238
632.954117	15789.266892
633.299866	15778.824141
633.645562	15694.412541
633.991206	15455.998731
634.336797	15329.453167
634.682336	15295.286747
635.027823	15172.882490
635.373257	15040.670669
635.718639	14960.022290
636.063968	14897.476694
