Dividing Wavelength (nm)	Counts (n)	Blue Motor Position (mm): 49.800000	Red Motor Position (mm): 0.000000	
326.493990	2288.265430
326.888308	2288.265430
327.282561	2288.265430
327.676750	2244.394789
328.070874	2241.395303
328.464933	2243.499984
328.858929	2248.430233
329.252859	2252.783269
329.646726	2262.313570
330.040528	2275.297062
330.434265	2287.758794
330.827938	2309.229069
331.221547	2322.668785
331.615091	2340.093533
332.008571	2359.822089
332.401986	2377.728267
332.795338	2399.579148
333.188625	2418.367529
333.581847	2436.934098
333.975006	2455.944290
334.368100	2477.217959
334.761129	2493.256390
335.154095	2511.820439
335.546996	2535.705426
335.939833	2576.687486
336.332606	2589.945721
336.725315	2606.034563
337.117960	2616.920935
337.510540	2631.232771
337.903056	2638.534882
338.295508	2648.208856
338.687896	2655.642037
339.080220	2664.990857
339.472480	2672.378668
339.864676	2676.000737
340.256807	2680.116839
340.648875	2686.123374
341.040879	2687.015658
341.432818	2690.352902
341.824694	2692.790300
342.216506	2694.156453
342.608253	2695.056299
342.999937	2693.780887
343.391557	2695.215095
343.783113	2694.567307
344.174605	2690.988088
344.566033	2691.860207
344.957397	2691.267872
345.348697	2688.901050
345.739934	2687.726461
346.131106	2686.486337
346.522215	2685.770493
346.913260	2681.498116
347.304241	2680.668846
347.695159	2679.826973
348.086012	2680.071469
348.476802	2678.100378
348.867528	2671.209121
349.258191	2673.412105
349.648789	2669.487567
350.039324	2665.265600
350.429796	2669.943791
350.820203	2669.152330
351.210548	2667.466064
351.600828	2667.150992
351.991045	2665.575631
352.381198	2663.634787
352.771288	2667.440858
353.161314	2665.557987
353.551276	2662.941628
353.941175	2663.695281
354.331010	2661.527585
354.720782	2664.519509
355.110490	2663.806186
355.500135	2661.585558
355.889717	2664.688388
356.279235	2662.540857
356.668689	2662.107317
357.058080	2664.680826
357.447408	2664.332987
357.836672	2662.162770
358.225873	2666.515806
358.615010	2664.990857
359.004084	2666.412463
359.393095	2666.243584
359.782043	2667.826506
360.170927	2667.854233
360.559748	2666.833399
360.948505	2671.146106
361.337199	2670.261384
361.725830	2670.548729
362.114398	2670.649552
362.502903	2670.021929
362.891344	2671.879594
363.279722	2672.366065
363.668037	2672.542506
364.056289	2673.719615
364.444478	2675.146262
364.832603	2675.284893
365.220665	2677.717250
365.608665	2676.683814
365.996601	2675.942764
366.384474	2676.459482
366.772284	2680.089113
367.160031	2676.804801
367.547715	2679.126253
367.935336	2679.963084
368.322893	2678.024761
368.710388	2678.546520
369.097820	2682.650019
369.485189	2680.157169
369.872495	2690.148736
370.259738	2692.666792
370.646918	2694.403469
371.034035	2698.925384
371.421090	2701.806404
371.808081	2710.983824
372.195010	2716.415668
372.581875	2729.431927
372.968678	2736.184552
373.355418	2746.657550
373.742096	2759.769591
374.128710	2773.693258
374.515262	2789.499796
374.901751	2806.982517
375.288177	2821.712769
375.674540	2841.118690
376.060841	2863.435878
376.447079	2885.606873
376.833254	2913.212232
377.219367	2932.761826
377.605417	2969.199286
377.991404	2991.234170
378.377329	3027.044006
378.763191	3045.421532
379.148991	3086.446442
379.534727	3129.860859
379.920402	3167.926612
380.306013	3188.479396
380.691563	3253.432143
381.077049	3273.165740
381.462474	3315.178716
381.847835	3366.795090
382.233134	3408.162798
382.618371	3438.109773
383.003545	3504.799197
383.388657	3525.326776
383.773706	3589.732557
384.158693	3618.809932
384.543618	3647.796567
384.928480	3705.447202
385.313280	3761.582971
385.698017	3784.399233
386.082692	3876.097822
386.467305	3875.482801
386.851856	3909.815579
387.236344	3990.315245
387.620770	4018.318854
388.005133	4068.354827
388.389435	4112.563225
388.773674	4124.117550
389.157851	4202.152091
389.541965	4269.524592
389.926018	4235.027976
390.310008	4331.392152
390.693936	4387.422057
391.077802	4420.030760
391.461606	4418.251233
391.845348	4485.212879
392.229027	4546.510790
392.612645	4540.617681
392.996200	4645.110718
393.379694	4702.947876
393.763125	4808.633146
394.146494	4836.576261
394.529801	4893.017020
394.913047	4980.281913
395.296230	4926.187812
395.679351	5029.629768
396.062410	5087.693778
396.445408	5056.357966
396.828343	5115.778047
397.211217	5175.979506
397.594028	5056.514242
397.976778	5173.095966
398.359466	5223.310899
398.742092	5240.702880
399.124656	5165.337630
399.507158	5288.056959
399.889598	5345.352193
400.271977	5467.743846
400.654294	5465.344257
401.036549	5514.374519
401.418742	5432.964926
401.800874	5634.779958
402.182944	5698.119536
402.564952	5798.120905
402.946898	5862.970308
403.328783	5693.330440
403.710606	5722.979986
404.092367	6045.308843
404.474067	6068.258695
404.855705	5957.617971
405.237282	5896.395678
405.618797	6165.805022
406.000250	6131.394106
406.381642	6347.205902
406.762972	6367.068048
407.144240	6419.213744
407.525447	6405.622793
407.906593	6409.733854
408.287677	6584.089722
408.668700	6503.277505
409.049661	6611.125430
409.430560	6634.841538
409.811399	6495.259550
410.192176	6761.137565
410.572891	6788.553880
410.953545	6973.317210
411.334138	6699.504418
411.714669	6870.916252
412.095139	6666.227762
412.475547	6912.697335
412.855894	6985.070660
413.236180	7173.347674
413.616405	6821.283572
413.996568	7040.046963
414.376670	7104.571212
414.756711	6999.087588
415.136691	7102.214473
415.516609	7302.691079
415.896466	7272.872654
416.276262	7490.925243
416.655997	7481.213460
417.035670	7644.327554
417.415283	7992.963672
417.794834	8069.392606
418.174324	7926.193589
418.553753	7851.700459
418.933121	8137.690158
419.312428	8236.811845
419.691674	8013.408072
420.070859	8490.860793
420.449983	8173.542844
420.829045	8540.690079
421.208047	8306.951939
421.586988	8628.353223
421.965867	8654.549579
422.344686	8734.744255
422.723444	8831.567176
423.102141	8142.791806
423.480777	8913.264115
423.859352	8446.395296
424.237866	9065.391015
424.616319	8925.062936
424.994712	9367.658600
425.373044	8886.578767
425.751314	9388.019820
426.129524	9274.460268
426.507673	9334.684412
426.885762	9489.956992
427.263789	9418.680118
427.641756	9369.899393
428.019662	9437.385319
428.397508	9724.630265
428.775292	9365.090132
429.153016	9765.025031
429.530679	9597.089073
429.908282	9592.118495
430.285824	9327.616715
430.663305	10012.966621
431.040726	9466.470256
431.418086	9438.431358
431.795385	9778.419377
432.172624	9884.162620
432.549802	9789.676273
432.926920	9858.069607
433.303977	9726.006500
433.680974	9922.253578
434.057910	10034.338593
434.434786	10115.551581
434.811601	9916.153782
435.188355	10485.237037
435.565050	10244.453885
435.941683	10151.873095
436.318257	10621.179312
436.694770	10823.868985
437.071222	10853.669766
437.447614	10674.229895
437.823946	10620.284507
438.200218	10688.022492
438.576429	10545.657786
438.952580	10793.687597
439.328670	10793.370004
439.704700	10619.598910
440.080670	10598.569737
440.456580	11108.416914
440.832429	10910.430637
441.208218	10516.144351
441.583947	10776.983733
441.959616	10987.623306
442.335224	10801.554317
442.710773	10890.384489
443.086261	11139.064608
443.461689	10396.500126
443.837057	11103.141346
444.212365	11311.618263
444.587612	10947.936822
444.962800	11152.781588
445.337927	10883.193283
445.712995	10599.703997
446.088002	11612.330652
446.462949	11335.699855
446.837837	11287.614809
447.212664	11186.791732
447.587431	11814.465798
447.962139	12581.679002
448.336786	14887.328851
448.711374	15349.567371
449.085901	13148.975167
449.460369	12809.670226
449.834776	12253.363775
450.209124	13216.183831
450.583412	13644.170230
450.957640	14553.372573
451.331808	13554.982137
451.705917	12668.956498
452.079965	11878.279244
452.453954	12800.467599
452.827883	12472.938793
453.201752	12751.603695
453.575562	12327.161226
453.949311	12732.280952
454.323001	12726.778533
454.696632	12965.421715
455.070202	13240.086462
455.443713	13402.603179
455.817164	13920.438064
456.190556	13879.677815
456.563888	14245.330347
456.937160	14374.600655
457.310373	13740.078182
457.683526	13866.573335
458.056619	13377.989746
458.429653	13612.501702
458.802628	12936.283846
459.175542	13370.100340
459.548398	14309.675635
459.921194	14696.921950
460.293930	14760.059881
460.666607	15590.393372
461.039224	16667.438412
461.411782	17403.358653
461.784280	17131.446377
462.156719	17268.941327
462.529099	16926.059687
462.901419	15912.104687
463.273680	15649.430325
463.645882	15572.882924
464.018024	15275.578356
464.390106	15524.767632
464.762130	16219.758745
465.134094	17037.254938
465.505999	19139.758890
465.877845	22417.033170
466.249631	25200.450813
466.621358	24770.939465
466.993026	23368.419888
467.364634	22759.655191
467.736184	21273.616299
468.107674	20499.756333
468.479105	20624.688729
468.850477	20069.587114
469.221790	19688.715338
469.593043	18996.509462
469.964238	18414.213343
470.335373	18048.366726
470.706449	18579.865659
471.077467	18188.294034
471.448425	20073.209183
471.819324	24255.209262
472.190164	25993.449519
472.560945	22265.178493
472.931667	20013.794144
473.302330	19421.322456
473.672934	19096.208362
474.043479	19275.504560
474.413965	19089.382640
474.784393	18662.931271
475.154761	19473.120312
475.525070	19342.882102
475.895321	19104.710268
476.265513	19726.982737
476.635645	20299.307454
477.005719	20039.796415
477.375734	20229.207689
477.745691	20717.773634
478.115588	21280.071496
478.485427	21851.579546
478.855207	22962.710347
479.224928	24768.882674
479.594591	27003.452254
479.964194	26849.485333
480.333739	27098.367099
480.703226	26687.540787
481.072653	26408.860761
481.442022	27068.198313
481.811333	28008.383588
482.180584	27857.711061
482.549777	26909.376762
482.918912	26595.080984
483.287988	26742.597748
483.657005	26343.673600
484.025964	26144.505174
484.394864	25999.332546
484.763706	25626.229188
485.132489	25133.950432
485.501213	25300.926051
485.869879	25212.171496
486.238487	25075.893984
486.607036	25190.663413
486.975527	24967.725946
487.343959	25229.583642
487.712333	25141.030733
488.080648	24797.919720
488.448905	25308.535672
488.817104	25105.291473
489.185244	25809.631406
489.553326	25746.642189
489.921350	26825.512126
490.289315	29216.685151
490.657222	30883.857742
491.025070	31412.029513
491.392861	31128.802366
491.760593	30262.958987
492.128267	29329.526338
492.495883	28260.191743
492.863440	27399.384477
493.230939	26533.044545
493.598380	26368.491201
493.965763	25983.964588
494.333088	25476.360725
494.700354	25465.733973
495.067563	25295.940350
495.434713	25047.860128
495.801805	25247.583081
496.168839	25003.845813
496.535815	24889.262907
496.902733	25100.199908
497.269593	24826.203114
497.636395	24979.305477
498.003139	24888.108483
498.369825	24622.749706
498.736453	24854.620098
499.103023	24722.937598
499.469535	24705.437232
499.835989	24941.814415
500.202385	24962.984741
500.568723	24510.964640
500.935003	24666.766541
501.301226	24390.561722
501.667390	25232.116821
502.033497	25399.425156
502.399546	25165.094681
502.765537	24682.494941
503.131470	25055.298350
503.497345	25219.070315
503.863163	24465.193484
504.228923	24982.622556
504.594625	25249.987712
504.960269	24823.765716
505.325856	25305.914272
505.691385	24681.159035
506.056856	25291.468846
506.422270	25292.771984
506.787625	24791.933350
507.152924	25243.161989
507.518164	25274.018892
507.883347	25093.404432
508.248472	24764.433856
508.613540	25531.826020
508.978550	25335.137841
509.343503	25368.981628
509.708398	25545.578288
510.073236	25725.555042
510.438016	25933.530365
510.802738	25585.448774
511.167403	25848.468455
511.532010	25625.707428
511.896561	26338.256881
512.261053	26311.120349
512.625488	26148.585988
512.989866	26028.772884
513.354186	25863.324736
513.718449	25995.773491
514.082655	26367.543464
514.446803	26065.613637
514.810894	26572.163898
515.174927	26065.233029
515.538904	26103.916323
515.902822	26610.390968
516.266684	26361.519285
516.630488	26255.108089
516.994235	26193.895878
517.357925	26549.214046
517.721558	26689.950458
518.085133	26830.084453
518.448651	26705.497377
518.812112	26499.823341
519.175516	26718.090179
519.538863	26860.291047
519.902152	26669.097725
520.265385	26900.206903
520.628560	26724.774749
520.991678	26685.209253
521.354739	26735.658600
521.717743	26859.484462
522.080690	26613.345084
522.443580	26941.819107
522.806413	26895.201037
523.169189	27024.120985
523.531908	27073.073109
523.894569	26702.845730
524.257174	26809.977811
524.619722	26930.970544
524.982213	26653.780179
525.344647	26643.937326
525.707025	26832.773908
526.069345	26761.756653
526.431608	26749.710816
526.793815	26916.021002
527.155964	26430.739368
527.518057	26599.456705
527.880093	26513.134508
528.242072	26737.952325
528.603995	26454.967154
528.965860	26237.365748
529.327669	26277.851255
529.689421	26268.671313
530.051117	26132.068647
530.412755	26286.887523
530.774337	26062.841002
531.135862	25981.212118
531.497331	26154.274930
531.858743	25760.281030
532.220098	26190.956886
532.581396	25891.575362
532.942638	25767.610868
533.303824	25901.771095
533.664953	25872.204728
534.026025	25543.587032
534.387040	25795.064992
534.747999	25832.956825
535.108902	25994.775343
535.469748	25505.150755
535.830537	25651.122406
536.191270	25800.358203
536.551947	25600.617606
536.912567	25232.651184
537.273131	25703.719284
537.633638	25356.282961
537.994089	25567.030918
538.354483	25053.307094
538.714821	25570.305148
539.075103	25613.764935
539.435328	25367.973397
539.795497	25006.683983
540.155609	25314.010366
540.515665	25635.063810
540.875665	24845.372101
541.235609	25216.602670
541.595496	25122.718742
541.955328	25494.637428
542.315102	25400.004888
542.674821	24908.746967
543.034483	24809.710979
543.394090	24975.874971
543.753640	24788.951507
544.113134	25417.129688
544.472571	24985.896785
544.831953	25291.554546
545.191278	24967.181502
545.550548	24825.726725
545.909761	25037.808067
546.268918	25281.787310
546.628019	25268.798777
546.987064	24939.613952
547.346053	24660.046683
547.704986	24765.857982
548.063863	24917.049747
548.422684	24947.228615
548.781449	24438.263640
549.140158	24854.035324
549.498811	24430.054121
549.857408	24199.741446
550.215949	24580.348561
550.574434	24298.195180
550.932864	24488.065199
551.291237	24685.605333
551.649555	24498.336550
552.007817	24581.966772
552.366022	24415.069291
552.724173	24422.746968
553.082267	24408.132663
553.440305	24878.232862
553.798288	24106.056643
554.156215	24588.094294
554.514086	24752.014973
554.871902	24158.850126
555.229661	24407.139556
555.587365	24258.843933
555.945014	24169.207177
556.302606	24352.022101
556.660143	24379.645103
557.017625	24592.512865
557.375050	24114.911429
557.732421	24503.365101
558.089735	24322.042359
558.446994	24374.077149
558.804197	24422.767133
559.161345	24278.683394
559.518437	24106.734678
559.875474	24251.040227
560.232455	24427.770478
560.589381	24245.613425
560.946251	24271.628300
561.303065	24549.983171
561.659825	24633.018537
562.016528	24241.595626
562.373177	23969.801816
562.729770	24343.391645
563.086307	24173.121633
563.442789	24360.902093
563.799216	24212.321645
564.155587	24204.149935
564.511904	24186.059754
564.868164	24154.149250
565.224370	24111.889258
565.580520	24055.493870
565.936615	24165.978318
566.292654	23869.666857
566.648638	24085.140895
567.004567	23935.620272
567.360441	23869.077042
567.716260	23584.952570
568.072023	23890.995978
568.427732	23676.878010
568.783385	23434.403551
569.138982	23709.786662
569.494525	23716.695564
569.850013	23493.291790
570.205445	23593.451955
570.560823	23414.846395
570.916145	23192.120656
571.271412	23390.522828
571.626625	23142.309015
571.981782	23241.690322
572.336884	23036.485113
572.691931	23176.727493
573.046923	22924.216097
573.401860	22797.559627
573.756743	22836.505061
574.111570	22732.004462
574.466342	22642.337459
574.821059	22729.829204
575.175722	22428.320313
575.530330	22375.136140
575.884882	22367.841591
576.239380	22290.197739
576.593823	22198.453780
576.948211	22167.410355
577.302544	22014.630626
577.656823	21885.330071
578.011047	21990.445690
578.365216	21853.492664
578.719330	21724.865103
579.073389	21606.876897
579.427394	21772.483842
579.781344	21513.194615
580.135239	21404.822410
580.489080	21334.326914
580.842866	21135.221502
581.196597	21356.011438
581.550273	21299.379115
581.903895	21187.009276
582.257463	21493.715596
582.610975	21033.720390
582.964434	21372.324612
583.317837	21016.706496
583.671186	21103.890731
584.024481	21099.643559
584.377721	20856.579285
584.730906	20970.458950
585.084037	20926.946231
585.437113	20866.976665
585.790135	21066.966800
586.143103	20515.915752
586.496016	20554.629293
586.848874	20772.318919
587.201679	20686.311793
587.554428	20401.859646
587.907124	20729.723690
588.259765	20488.595219
588.612352	20540.773682
588.964884	20129.849067
589.317362	20291.710435
589.669786	20350.991883
590.022155	20330.933132
590.374470	20607.662232
590.726731	20332.105201
591.078937	20152.425875
591.431090	20219.511029
591.783188	19999.507514
592.135232	19959.415217
592.487222	20049.447704
592.839157	20059.081349
593.191038	19931.842626
593.542866	19821.751388
593.894639	19514.130098
594.246358	19739.189891
594.598022	19623.505493
594.949633	19381.870386
595.301190	19385.855418
595.652692	19551.104441
596.004141	19756.052551
596.355535	19084.160004
596.706876	19104.080124
597.058162	19001.356532
597.409395	19261.787581
597.760573	19285.521333
598.111698	19044.418068
598.462768	19012.598305
598.813785	18984.869438
599.164748	18768.944216
599.515657	18841.375514
599.866511	18643.028796
600.217312	18990.248349
600.568060	18486.286720
600.918753	18810.029620
601.269392	18707.492551
601.619978	18508.946706
601.970510	18676.522222
602.320988	18624.842833
602.671412	18815.214447
603.021783	18774.809598
603.372100	18473.424216
603.722363	18640.752715
604.072572	18569.223783
604.422728	18729.408967
604.772830	18465.439028
605.122878	18435.406354
605.472872	18418.324404
605.822813	18399.132732
606.172701	18386.459271
606.522534	18544.754022
606.872314	18596.967773
607.222041	18441.790975
607.571714	18643.669022
607.921333	18471.939596
608.270899	18543.279485
608.620411	18685.674437
608.969870	18494.342484
609.319276	18483.854363
609.668627	18515.076749
610.017926	18657.950611
610.367171	18764.810470
610.716362	18818.561773
611.065500	18634.194174
611.414585	18776.077449
611.763616	18764.649153
612.112594	18681.195372
612.461518	18678.974743
612.810389	18869.164875
613.159207	18714.371205
613.507971	18637.241551
613.856682	18877.470176
614.205340	18788.418193
614.553945	18947.842163
614.902496	18691.247432
615.250994	18887.275220
615.599439	18854.714408
615.947830	18825.407660
616.296169	18910.913191
616.644454	18870.883908
616.992686	18847.654272
617.340864	19080.585826
617.688990	18806.203384
618.037063	18989.267845
618.385082	18857.875211
618.733048	19113.824674
619.080961	19013.770373
619.428821	19054.061795
619.776628	18914.371422
620.124382	18842.255196
620.472083	18908.770700
620.819731	18908.269105
621.167326	18606.659391
621.514868	18649.100866
621.862357	18427.769006
622.209793	18405.787055
622.557176	18244.018948
622.904506	18091.874405
623.251783	18024.396040
623.599007	17768.943130
623.946179	17699.102985
624.293297	17631.352398
624.640363	17359.329216
624.987376	17386.160757
625.334336	17183.869336
625.681243	17035.397273
626.028097	17059.438535
626.374899	16969.053167
626.721647	16841.600195
627.068343	16686.814087
627.414987	16606.821058
627.761577	16566.890078
628.108115	16590.507884
628.454600	16328.319993
628.801032	16423.491936
629.147412	16369.423041
629.493739	16373.413114
629.840014	16187.933941
630.186236	16281.782581
630.532405	16048.742642
630.878521	16236.918833
631.224585	16159.249775
631.570597	15977.090202
631.916556	16003.354613
632.262462	15968.984026
632.608316	15893.091976
632.954117	15838.478635
633.299866	15814.429811
633.645562	15744.113277
633.991206	15523.383835
634.336797	15392.074380
634.682336	15357.212281
635.027823	15204.654362
635.373257	15077.881946
635.718639	14998.037631
636.063968	14934.183856
