Dividing Wavelength (nm)	Counts (n)	Blue Motor Position (mm): 22.200000	Red Motor Position (mm): 0.000000	
326.493990	2189.279854
326.888308	2189.279854
327.282561	2189.279854
327.676750	2150.397434
328.070874	2145.946096
328.464933	2147.297125
328.858929	2151.410706
329.252859	2154.127888
329.646726	2164.719353
330.040528	2174.910045
330.434265	2190.043589
330.827938	2207.327185
331.221547	2226.339897
331.615091	2240.187946
332.008571	2257.917684
332.401986	2277.792433
332.795338	2298.153654
333.188625	2316.881540
333.581847	2334.964159
333.975006	2353.238342
334.368100	2372.868595
334.761129	2391.611605
335.154095	2408.325550
335.546996	2430.494024
335.939833	2466.744962
336.332606	2480.328351
336.725315	2492.164980
337.117960	2505.806342
337.510540	2514.971160
337.903056	2530.266021
338.295508	2537.656352
338.687896	2549.918959
339.080220	2549.228321
339.472480	2558.672923
339.864676	2564.550908
340.256807	2570.978379
340.648875	2571.918554
341.040879	2575.981724
341.432818	2577.236972
341.824694	2582.046233
342.216506	2582.386510
342.608253	2585.869948
342.999937	2583.611511
343.391557	2584.115626
343.783113	2586.139649
344.174605	2584.589495
344.566033	2583.364494
344.957397	2581.695872
345.348697	2581.093454
345.739934	2579.142528
346.131106	2578.121694
346.522215	2576.397620
346.913260	2572.702454
347.304241	2572.457958
347.695159	2568.540981
348.086012	2567.620971
348.476802	2566.136351
348.867528	2563.429251
349.258191	2558.655279
349.648789	2557.757953
350.039324	2554.617314
350.429796	2560.578479
350.820203	2553.810730
351.210548	2555.887685
351.600828	2554.143446
351.991045	2552.542880
352.381198	2551.703527
352.771288	2553.137736
353.161314	2550.596994
353.551276	2550.513815
353.941175	2550.609597
354.331010	2550.660009
354.720782	2549.079607
355.110490	2550.811243
355.500135	2548.275543
355.889717	2548.819987
356.279235	2550.927190
356.668689	2547.834442
357.058080	2550.496171
357.447408	2550.531459
357.836672	2548.336037
358.225873	2548.343598
358.615010	2550.032385
359.004084	2553.679660
359.393095	2551.217056
359.782043	2554.887016
360.170927	2553.609084
360.559748	2553.165462
360.948505	2556.268292
361.337199	2557.591595
361.725830	2554.942469
362.114398	2555.703683
362.502903	2555.378529
362.891344	2556.936245
363.279722	2555.650751
363.668037	2560.472615
364.056289	2558.803993
364.444478	2559.340876
364.832603	2559.292985
365.220665	2560.550753
365.608665	2559.930691
365.996601	2561.049827
366.384474	2560.429765
366.772284	2560.699467
367.160031	2563.174673
367.547715	2560.775084
367.935336	2562.191648
368.322893	2560.613767
368.710388	2559.585372
369.097820	2560.646534
369.485189	2558.355330
369.872495	2565.085270
370.259738	2560.525547
370.646918	2564.843295
371.034035	2562.852039
371.421090	2562.713408
371.808081	2564.346741
372.195010	2565.894376
372.581875	2566.448903
372.968678	2564.878583
373.355418	2563.724159
373.742096	2567.492421
374.128710	2564.732390
374.515262	2564.921433
374.901751	2567.721794
375.288177	2567.643656
375.674540	2566.625343
376.060841	2566.418656
376.447079	2568.548543
376.833254	2571.825293
377.219367	2568.296485
377.605417	2568.561146
377.991404	2568.906465
378.377329	2570.247412
378.763191	2569.541650
379.148991	2568.402350
379.534727	2569.834037
379.920402	2571.245560
380.306013	2570.708677
380.691563	2571.913513
381.077049	2570.106260
381.462474	2571.051476
381.847835	2572.896538
382.233134	2572.959553
382.618371	2571.971487
383.003545	2570.683472
383.388657	2573.007444
383.773706	2573.415777
384.158693	2574.330747
384.543618	2571.868143
384.928480	2573.587176
385.313280	2574.444172
385.698017	2573.632547
386.082692	2575.306210
386.467305	2573.589697
386.851856	2575.959039
387.236344	2575.931313
387.620770	2572.394943
388.005133	2572.238668
388.389435	2571.986610
388.773674	2572.387382
389.157851	2578.603124
389.541965	2577.824266
389.926018	2575.177660
390.310008	2574.527352
390.693936	2575.712023
391.077802	2576.677404
391.461606	2576.271591
391.845348	2579.187898
392.229027	2576.395099
392.612645	2579.293762
392.996200	2577.360480
393.379694	2579.034143
393.763125	2576.324523
394.146494	2579.129925
394.529801	2579.513053
394.913047	2581.486664
395.296230	2580.755697
395.679351	2581.998342
396.062410	2580.249061
396.445408	2579.185378
396.828343	2583.372056
397.211217	2579.500450
397.594028	2582.837694
397.976778	2579.876016
398.359466	2581.325347
398.742092	2580.286870
399.124656	2581.423650
399.507158	2582.681418
399.889598	2583.651840
400.271977	2584.153435
400.654294	2584.075297
401.036549	2586.971440
401.418742	2583.523291
401.800874	2584.723085
402.182944	2584.155955
402.564952	2585.259968
402.946898	2583.833322
403.328783	2588.032603
403.710606	2585.963209
404.092367	2584.095462
404.474067	2586.840370
404.855705	2588.569486
405.237282	2588.070411
405.618797	2585.050760
406.000250	2585.736357
406.381642	2585.413723
406.762972	2584.241655
407.144240	2583.944227
407.525447	2586.298446
407.906593	2582.694021
408.287677	2588.070411
408.668700	2586.573189
409.049661	2588.887078
409.430560	2587.999835
409.811399	2591.299270
410.192176	2588.327510
410.572891	2590.797676
410.953545	2589.365988
411.334138	2592.420927
411.714669	2588.486307
412.095139	2591.049733
412.475547	2588.546800
412.855894	2591.206009
413.236180	2590.669126
413.616405	2590.475042
413.996568	2590.568303
414.376670	2588.813982
414.756711	2592.317583
415.136691	2591.271544
415.516609	2590.238107
415.896466	2591.352202
416.276262	2591.072418
416.655997	2593.872779
417.035670	2592.168869
417.415283	2591.649631
417.794834	2591.884044
418.174324	2593.192224
418.553753	2594.510485
418.933121	2593.713983
419.312428	2594.124837
419.691674	2595.498552
420.070859	2594.608788
420.449983	2596.910075
420.829045	2594.407142
421.208047	2596.045517
421.586988	2594.588623
421.965867	2594.810434
422.344686	2594.437389
422.723444	2598.608943
423.102141	2593.595516
423.480777	2594.684405
423.859352	2598.102307
424.237866	2595.415373
424.616319	2596.030393
424.994712	2598.871083
425.373044	2597.373861
425.751314	2595.007039
426.129524	2594.165166
426.507673	2597.706577
426.885762	2593.363623
427.263789	2598.482915
427.641756	2599.032400
428.019662	2599.970055
428.397508	2598.414859
428.775292	2599.070209
429.153016	2600.270004
429.530679	2597.918305
429.908282	2597.704056
430.285824	2601.482401
430.663305	2601.119438
431.040726	2601.081629
431.418086	2599.087853
431.795385	2598.674478
432.172624	2601.021136
432.549802	2602.092381
432.926920	2599.118100
433.303977	2600.143975
433.680974	2603.743359
434.057910	2600.650611
434.434786	2599.584407
434.811601	2602.777978
435.188355	2603.922320
435.565050	2602.462906
435.941683	2602.697319
436.318257	2605.512804
436.694770	2604.161774
437.071222	2604.882659
437.447614	2603.077926
437.823946	2605.351487
438.200218	2604.789398
438.576429	2603.561877
438.952580	2605.303596
439.328670	2602.520879
439.704700	2606.367279
440.080670	2603.675303
440.456580	2605.545571
440.832429	2605.737135
441.208218	2605.434666
441.583947	2605.903493
441.959616	2609.873402
442.335224	2606.710078
442.710773	2608.393823
443.086261	2608.804677
443.461689	2606.533637
443.837057	2610.541355
444.212365	2608.706375
444.587612	2604.625561
444.962800	2608.882815
445.337927	2606.934409
445.712995	2602.349480
446.088002	2610.168309
446.462949	2609.152517
446.837837	2611.862137
447.212664	2609.097064
447.587431	2611.312651
447.962139	2611.542024
448.336786	2614.216356
448.711374	2613.989504
449.085901	2617.402365
449.460369	2613.319030
449.834776	2615.098558
450.209124	2614.002107
450.583412	2615.436315
450.957640	2616.439505
451.331808	2615.753908
451.705917	2616.162241
452.079965	2614.503702
452.453954	2617.324227
452.827883	2615.322889
453.201752	2615.799278
453.575562	2615.736264
453.949311	2616.658795
454.323001	2620.613580
454.696632	2616.197529
455.070202	2620.941255
455.443713	2620.878241
455.817164	2619.784310
456.190556	2621.881430
456.563888	2621.841101
456.937160	2624.031482
457.310373	2621.503344
457.683526	2623.078704
458.056619	2621.722634
458.429653	2622.768673
458.802628	2622.962758
459.175542	2623.623149
459.548398	2627.527522
459.921194	2629.188583
460.293930	2630.539612
460.666607	2632.084726
461.039224	2636.505817
461.411782	2635.883235
461.784280	2634.421300
462.156719	2637.330046
462.529099	2637.884573
462.901419	2637.655201
463.273680	2635.638739
463.645882	2636.883904
464.018024	2637.836682
464.390106	2636.087402
464.762130	2647.830770
465.134094	2650.066521
465.505999	2659.173366
465.877845	2669.691733
466.249631	2679.993331
466.621358	2683.517098
466.993026	2682.796213
467.364634	2688.195288
467.736184	2683.597756
468.107674	2684.046419
468.479105	2693.816175
468.850477	2694.683253
469.221790	2698.794314
469.593043	2700.273893
469.964238	2707.308823
470.335373	2710.247816
470.706449	2719.964640
471.077467	2729.021073
471.448425	2752.527973
471.819324	2802.132927
472.190164	2833.481342
472.560945	2815.701193
472.931667	2804.703916
473.302330	2815.398723
473.672934	2826.280054
474.043479	2845.280163
474.413965	2864.915457
474.784393	2880.227962
475.154761	2913.829773
475.525070	2938.029832
475.895321	2958.471711
476.265513	2997.490242
476.635645	3046.051677
477.005719	3070.203845
477.375734	3112.451234
477.745691	3165.763957
478.115588	3226.386352
478.485427	3288.637041
478.855207	3380.073489
479.224928	3521.331661
479.594591	3699.365050
479.964194	3762.301336
480.333739	3830.800534
480.703226	3864.152808
481.072653	3936.440433
481.442022	4067.233170
481.811333	4221.026171
482.180584	4315.878001
482.549777	4328.765711
482.918912	4412.045573
483.287988	4527.298952
483.657005	4615.249443
484.025964	4688.197460
484.394864	4781.451244
484.763706	4856.950085
485.132489	4934.261220
485.501213	5043.182911
485.869879	5165.090613
486.238487	5229.332557
486.607036	5399.244648
486.975527	5475.222398
487.343959	5636.299866
487.712333	5779.072905
488.080648	5834.770093
488.448905	6062.579836
488.817104	6150.653834
489.185244	6398.991155
489.553326	6572.109419
489.921350	6871.637137
490.289315	7490.620253
490.657222	8060.147129
491.025070	8338.890170
491.392861	8480.294535
491.760593	8475.989390
492.128267	8500.537288
492.495883	8407.487671
492.863440	8405.950119
493.230939	8355.682253
493.598380	8507.254626
493.965763	8571.297444
494.333088	8631.370354
494.700354	8789.791134
495.067563	8959.355385
495.434713	9063.495541
495.801805	9242.332994
496.168839	9417.744984
496.535815	9551.625427
496.902733	9785.950861
497.269593	9827.205143
497.636395	10108.481363
498.003139	10277.135686
498.369825	10421.937789
498.736453	10639.440892
499.103023	10770.808320
499.469535	10977.898920
499.835989	11252.750189
500.202385	11481.719397
500.568723	11465.280194
500.935003	11712.740354
501.301226	11771.202616
501.667390	12260.456679
502.033497	12641.986325
502.399546	12661.359479
502.765537	12740.770255
503.131470	13085.086104
503.497345	13359.024925
503.863163	13155.795849
504.228923	13673.139221
504.594625	13965.942039
504.960269	13886.826171
505.325856	14361.191186
505.691385	14269.046455
506.056856	14741.871398
506.422270	14966.885821
506.787625	14890.605601
507.152924	15366.407345
507.518164	15531.782397
507.883347	15594.998466
508.248472	15588.122332
508.613540	16259.276350
508.978550	16349.843199
509.343503	16509.063002
509.708398	16879.169394
510.073236	17155.036456
510.438016	17464.810319
510.802738	17469.435578
511.167403	17814.507599
511.532010	17777.442516
511.896561	18518.802162
512.261053	18714.676195
512.625488	18753.735055
512.989866	18854.290951
513.354186	18904.710051
513.718449	19180.259520
514.082655	19591.557180
514.446803	19596.109342
514.810894	20092.824313
515.174927	19854.904536
515.538904	20043.335305
515.902822	20559.481404
516.266684	20569.157898
516.630488	20615.869230
516.994235	20781.438366
517.357925	21137.001029
517.721558	21454.689504
518.085133	21662.780773
518.448651	21733.971947
518.812112	21653.714258
519.175516	21911.881828
519.538863	22225.363460
519.902152	22146.257673
520.265385	22549.549981
520.628560	22490.021516
520.991678	22623.382720
521.354739	22796.644658
521.717743	22976.276092
522.080690	22886.740159
522.443580	23301.916987
522.806413	23397.053642
523.169189	23607.221867
523.531908	23754.037911
523.894569	23485.951870
524.257174	23647.934225
524.619722	23929.717081
524.982213	23714.570717
525.344647	23893.635023
525.707025	24060.381268
526.069345	24156.178315
526.431608	24191.980589
526.793815	24465.717764
527.155964	23989.532892
527.518057	24221.988058
527.880093	24234.064142
528.242072	24487.886238
528.603995	24268.732157
528.965860	24143.824967
529.327669	24259.940384
529.689421	24305.288084
530.051117	24189.928840
530.412755	24423.873666
530.774337	24287.278562
531.135862	24190.127965
531.497331	24436.554689
531.858743	24041.981057
532.220098	24550.842688
532.581396	24274.668115
532.942638	24279.636173
533.303824	24374.049422
533.664953	24434.520583
534.026025	24137.314317
534.387040	24405.501181
534.747999	24496.950233
535.108902	24685.587689
535.469748	24207.250244
535.830537	24430.548154
536.191270	24549.597523
536.551947	24474.204546
536.912567	24179.176059
537.273131	24479.293591
537.633638	24226.673810
537.994089	24462.025119
538.354483	24028.639643
538.714821	24532.611355
539.075103	24590.483801
539.435328	24395.093719
539.795497	23959.419560
540.155609	24388.744386
540.515665	24677.466390
540.875665	23955.447130
541.235609	24222.320774
541.595496	24222.439241
541.955328	24574.833539
542.315102	24498.828062
542.674821	24085.952521
543.034483	23970.305931
543.394090	24135.519666
543.753640	23924.585187
544.113134	24555.188162
544.472571	24173.053577
544.831953	24458.357679
545.191278	24073.495830
545.550548	24019.152192
545.909761	24243.044957
546.268918	24457.969510
546.628019	24426.573204
546.987064	24144.056860
547.346053	23910.522888
547.704986	24035.503174
548.063863	24197.535941
548.422684	24194.516290
548.781449	23764.538634
549.140158	24155.686802
549.498811	23737.031578
549.857408	23480.217557
550.215949	23924.791874
550.574434	23596.423715
550.932864	23826.018026
551.291237	23969.343071
551.649555	23841.234749
552.007817	23893.781216
552.366022	23764.394961
552.724173	23817.208610
553.082267	23749.193362
553.440305	24218.076122
553.798288	23496.379497
554.156215	24024.475650
554.514086	24096.634726
554.871902	23468.259940
555.229661	23758.612758
555.587365	23624.311378
555.945014	23462.656698
556.302606	23748.689247
556.660143	23676.421786
557.017625	23935.138842
557.375050	23464.045536
557.732421	23856.544733
558.089735	23669.396938
558.446994	23729.628644
558.804197	23746.448454
559.161345	23720.305030
559.518437	23463.236431
559.875474	23666.820908
560.232455	23835.497916
560.589381	23672.905581
560.946251	23630.421257
561.303065	23960.924344
561.659825	24046.697056
562.016528	23650.376664
562.373177	23402.336772
562.729770	23744.994081
563.086307	23630.023006
563.442789	23794.026864
563.799216	23620.011274
564.155587	23638.305621
564.511904	23608.131795
564.868164	23537.863152
565.224370	23535.337533
565.580520	23432.515639
565.936615	23572.327000
566.292654	23225.120049
566.648638	23558.489033
567.004567	23379.649059
567.360441	23339.365198
567.716260	23050.280231
568.072023	23385.159040
568.427732	23138.883551
568.783385	22935.881327
569.138982	23155.584894
569.494525	23201.850083
569.850013	22948.015384
570.205445	23058.335995
570.560823	22847.739272
570.916145	22621.812401
571.271412	22789.455972
571.626625	22558.888719
571.981782	22659.774810
572.336884	22468.223567
572.691931	22596.465479
573.046923	22332.858504
573.401860	22228.960323
573.756743	22212.979865
574.111570	22135.081435
574.466342	22068.356723
574.821059	22165.046054
575.175722	21854.558868
575.530330	21851.919824
575.884882	21884.137838
576.239380	21774.991816
576.593823	21675.892814
576.948211	21665.744971
577.302544	21495.976554
577.656823	21385.431612
578.011047	21476.590797
578.365216	21344.532730
578.719330	21228.021583
579.073389	21122.908484
579.427394	21274.674941
579.781344	21058.580840
580.135239	20939.970052
580.489080	20913.786299
580.842866	20675.352325
581.196597	20845.634940
581.550273	20847.520332
581.903895	20743.649877
582.257463	21046.285466
582.610975	20569.689740
582.964434	20880.189529
583.317837	20598.084039
583.671186	20682.866165
584.024481	20649.087913
584.377721	20424.527195
584.730906	20476.456120
585.084037	20522.398676
585.437113	20415.730381
585.790135	20609.068713
586.143103	20089.429096
586.496016	20096.680795
586.848874	20346.318734
587.201679	20286.381935
587.554428	19939.197670
587.907124	20277.895153
588.259765	20059.237625
588.612352	20143.624020
588.964884	19703.778306
589.317362	19881.877230
589.669786	19932.616443
590.022155	19989.936883
590.374470	20159.606998
590.726731	19967.833944
591.078937	19710.984635
591.431090	19815.190326
591.783188	19569.320650
592.135232	19532.273211
592.487222	19636.675507
592.839157	19660.736934
593.191038	19545.894408
593.542866	19439.752914
593.894639	19162.010543
594.246358	19372.524087
594.598022	19300.465833
594.949633	19041.713489
595.301190	19007.461369
595.652692	19160.241098
596.004141	19404.338808
596.355535	18738.924145
596.706876	18749.250948
597.058162	18631.461868
597.409395	18857.575262
597.760573	18963.527713
598.111698	18720.322287
598.462768	18662.774995
598.813785	18622.223954
599.164748	18455.941494
599.515657	18484.015680
599.866511	18263.956712
600.217312	18630.403226
600.568060	18159.446031
600.918753	18469.386252
601.269392	18378.988281
601.619978	18146.727200
601.970510	18367.771713
602.320988	18312.021593
602.671412	18515.482562
603.021783	18415.448426
603.372100	18154.596441
603.722363	18291.872101
604.072572	18222.374754
604.422728	18367.373462
604.772830	18129.589797
605.122878	18068.848934
605.472872	18066.560251
605.822813	18060.473057
606.172701	18020.627777
606.522534	18213.923260
606.872314	18243.605574
607.222041	18075.858659
607.571714	18289.565773
607.921333	18120.253580
608.270899	18190.126493
608.620411	18388.362306
608.969870	18144.738464
609.319276	18138.414337
609.668627	18179.701387
610.017926	18310.852045
610.367171	18428.315971
610.716362	18466.353997
611.065500	18291.620043
611.414585	18415.229136
611.763616	18407.967354
612.112594	18350.702367
612.461518	18320.392429
612.810389	18511.542901
613.159207	18369.952013
613.507971	18272.088093
613.856682	18562.433349
614.205340	18488.794694
614.553945	18632.177712
614.902496	18374.002580
615.250994	18614.863869
615.599439	18548.431544
615.947830	18538.419812
616.296169	18576.793075
616.644454	18554.828768
616.992686	18529.784316
617.340864	18733.973732
617.688990	18497.160489
618.037063	18675.171193
618.385082	18508.745060
618.733048	18795.952198
619.080961	18665.421601
619.428821	18707.237972
619.776628	18589.597606
620.124382	18523.893728
620.472083	18551.950269
620.819731	18576.130164
621.167326	18270.870654
621.514868	18313.564186
621.862357	18072.644923
622.209793	18082.785204
622.557176	17914.594668
622.904506	17740.248883
623.251783	17651.325449
623.599007	17422.499915
623.946179	17373.585599
624.293297	17306.200495
624.640363	17068.767190
624.987376	17091.979183
625.334336	16884.384468
625.681243	16722.676855
626.028097	16732.411323
626.374899	16670.453022
626.721647	16538.710028
627.068343	16359.171854
627.414987	16292.202646
627.761577	16269.792197
628.108115	16309.977755
628.454600	16033.185641
628.801032	16138.162629
629.147412	16064.624797
629.493739	16090.798468
629.840014	15904.028759
630.186236	15992.891698
630.532405	15757.222797
630.878521	15951.836541
631.224585	15845.916858
631.570597	15667.921277
631.916556	15709.074737
632.262462	15683.347208
632.608316	15601.557007
632.954117	15550.923658
633.299866	15545.315375
633.645562	15469.539271
633.991206	15218.996445
634.336797	15087.195478
634.682336	15052.262802
635.027823	14952.281598
635.373257	14834.777343
635.718639	14729.356734
636.063968	14686.269992
636.409245	14431.043934
636.754470	14463.897134
637.099642	14307.397033
637.444762	14081.881016
637.789829	14124.120844
638.134845	13959.552377
638.479808	13981.441067
