Dividing Wavelength (nm)	Counts (n)	Blue Motor Position (mm): 17.800000	Red Motor Position (mm): 0.000000	
326.493990	2178.890036
326.888308	2178.890036
327.282561	2178.890036
327.676750	2138.354118
328.070874	2134.162398
328.464933	2135.221041
328.858929	2140.841927
329.252859	2142.901239
329.646726	2154.155615
330.040528	2166.526606
330.434265	2176.243430
330.827938	2194.106759
331.221547	2211.937320
331.615091	2229.480535
332.008571	2247.321179
332.401986	2267.198448
332.795338	2285.278547
333.188625	2305.538944
333.581847	2321.443784
333.975006	2342.682166
334.368100	2358.486183
334.761129	2378.668442
335.154095	2394.676626
335.546996	2418.395255
335.939833	2446.524894
336.332606	2461.424024
336.725315	2474.941878
337.117960	2488.676502
337.510540	2501.549088
337.903056	2509.720798
338.295508	2518.439474
338.687896	2526.096987
339.080220	2533.603265
339.472480	2542.460572
339.864676	2547.637837
340.256807	2553.760318
340.648875	2556.868190
341.040879	2558.778787
341.432818	2565.617112
341.824694	2566.902606
342.216506	2566.630384
342.608253	2566.189283
342.999937	2568.840930
343.391557	2568.157854
343.783113	2566.027966
344.174605	2567.812535
344.566033	2565.944787
344.957397	2563.202399
345.348697	2561.188458
345.739934	2563.454457
346.131106	2557.147974
346.522215	2554.856769
346.913260	2555.310473
347.304241	2554.783672
347.695159	2549.606408
348.086012	2552.270657
348.476802	2549.195553
348.867528	2542.886549
349.258191	2541.936292
349.648789	2540.948226
350.039324	2537.560570
350.429796	2540.451672
350.820203	2538.379758
351.210548	2536.937988
351.600828	2537.043852
351.991045	2536.491846
352.381198	2533.487318
352.771288	2534.974458
353.161314	2533.169725
353.551276	2532.547143
353.941175	2531.959848
354.331010	2531.758202
354.720782	2530.729807
355.110490	2529.822399
355.500135	2533.605785
355.889717	2532.620240
356.279235	2530.949097
356.668689	2532.181659
357.058080	2534.457740
357.447408	2530.044210
357.836672	2532.716022
358.225873	2531.425486
358.615010	2532.108562
359.004084	2533.111752
359.393095	2534.467823
359.782043	2534.528316
360.170927	2534.692154
360.559748	2535.239119
360.948505	2537.527803
361.337199	2536.645601
361.725830	2535.866743
362.114398	2536.922864
362.502903	2536.713657
362.891344	2535.725590
363.279722	2537.507638
363.668037	2539.864378
364.056289	2539.786240
364.444478	2540.368493
364.832603	2540.582742
365.220665	2544.403937
365.608665	2540.209697
365.996601	2545.195398
366.384474	2540.156765
366.772284	2545.553320
367.160031	2545.205480
367.547715	2546.773279
367.935336	2542.815973
368.322893	2538.861188
368.710388	2541.202804
369.097820	2543.625078
369.485189	2540.580222
369.872495	2546.294369
370.259738	2546.047353
370.646918	2544.935778
371.034035	2545.896118
371.421090	2547.632796
371.808081	2547.784030
372.195010	2546.543907
372.581875	2547.337888
372.968678	2547.035419
373.355418	2543.395706
373.742096	2549.608928
374.128710	2549.258568
374.515262	2551.433826
374.901751	2547.100954
375.288177	2546.639688
375.674540	2546.937117
376.060841	2550.660009
376.447079	2550.314690
376.833254	2550.720503
377.219367	2552.240410
377.605417	2549.424926
377.991404	2549.916438
378.377329	2552.376522
378.763191	2551.053219
379.148991	2554.110678
379.534727	2551.080945
379.920402	2550.604556
380.306013	2550.007179
380.691563	2551.476676
381.077049	2551.532128
381.462474	2552.505071
381.847835	2548.734288
382.233134	2551.511964
382.618371	2552.452139
383.003545	2553.851059
383.388657	2555.101265
383.773706	2554.798796
384.158693	2554.856769
384.543618	2557.145453
384.928480	2552.230328
385.313280	2555.307953
385.698017	2554.692932
386.082692	2557.460525
386.467305	2555.509599
386.851856	2559.867676
387.236344	2556.792572
387.620770	2554.947510
388.005133	2553.510781
388.389435	2554.398024
388.773674	2550.712941
389.157851	2556.905998
389.541965	2559.338355
389.926018	2559.451781
390.310008	2558.965310
390.693936	2557.377346
391.077802	2560.722152
391.461606	2559.454302
391.845348	2558.743499
392.229027	2557.793241
392.612645	2558.987995
392.996200	2561.064950
393.379694	2557.727706
393.763125	2560.999415
394.146494	2559.507234
394.529801	2560.903633
394.913047	2560.170145
395.296230	2560.475135
395.679351	2561.785835
396.062410	2558.811554
396.445408	2562.252142
396.828343	2564.692060
397.211217	2562.201730
397.594028	2560.298695
397.976778	2562.166442
398.359466	2562.773901
398.742092	2562.143757
399.124656	2561.178376
399.507158	2562.902451
399.889598	2563.678788
400.271977	2562.625187
400.654294	2561.546380
401.036549	2564.291289
401.418742	2564.427400
401.800874	2563.290620
402.182944	2563.734241
402.564952	2564.293809
402.946898	2564.112328
403.328783	2566.040569
403.710606	2566.884962
404.092367	2563.749365
404.474067	2564.397153
404.855705	2567.341187
405.237282	2564.775239
405.618797	2565.672565
406.000250	2568.031825
406.381642	2567.938563
406.762972	2565.067626
407.144240	2563.174673
407.525447	2565.483522
407.906593	2561.604354
408.287677	2569.221537
408.668700	2566.890003
409.049661	2566.738769
409.430560	2568.561146
409.811399	2571.056517
410.192176	2568.195662
410.572891	2568.102401
410.953545	2569.871846
411.334138	2568.442679
411.714669	2566.660631
412.095139	2567.389078
412.475547	2569.229099
412.855894	2570.625498
413.236180	2570.355797
413.616405	2568.051989
413.996568	2568.966959
414.376670	2567.323543
414.756711	2570.723801
415.136691	2568.926630
415.516609	2568.873697
415.896466	2570.333112
416.276262	2571.658935
416.655997	2570.607854
417.035670	2571.008626
417.415283	2571.515262
417.794834	2573.791343
418.174324	2570.597772
418.553753	2572.218503
418.933121	2572.273956
419.312428	2572.601631
419.691674	2570.121383
420.070859	2574.028277
420.449983	2573.072979
420.829045	2572.904100
421.208047	2574.272773
421.586988	2571.676579
421.965867	2572.271435
422.344686	2571.810170
422.723444	2574.857547
423.102141	2574.360993
423.480777	2574.366035
423.859352	2573.950139
424.237866	2573.889646
424.616319	2572.364697
424.994712	2572.455437
425.373044	2574.295458
425.751314	2573.188925
426.129524	2569.433266
426.507673	2572.478122
426.885762	2571.636250
427.263789	2575.041549
427.641756	2574.605489
428.019662	2575.611200
428.397508	2575.223031
428.775292	2577.736046
429.153016	2575.414595
429.530679	2575.220510
429.908282	2577.042887
430.285824	2573.723287
430.663305	2578.008268
431.040726	2575.838052
431.418086	2574.247568
431.795385	2575.948957
432.172624	2576.165727
432.549802	2577.065572
432.926920	2575.681776
433.303977	2578.356108
433.680974	2578.073803
434.057910	2580.422981
434.434786	2578.043556
434.811601	2576.420305
435.188355	2579.361818
435.565050	2578.956005
435.941683	2578.666139
436.318257	2580.070100
436.694770	2581.237127
437.071222	2578.293093
437.447614	2577.607497
437.823946	2578.482137
438.200218	2580.629668
438.576429	2577.756211
438.952580	2578.343505
439.328670	2578.217476
439.704700	2577.108422
440.080670	2578.023392
440.456580	2577.713361
440.832429	2580.309555
441.208218	2581.549679
441.583947	2581.345512
441.959616	2579.704617
442.335224	2579.737384
442.710773	2580.561613
443.086261	2578.741756
443.461689	2579.465162
443.837057	2580.954823
444.212365	2582.237796
444.587612	2579.707137
444.962800	2577.070614
445.337927	2579.240830
445.712995	2576.193453
446.088002	2579.888619
446.462949	2581.587487
446.837837	2581.043043
447.212664	2580.770821
447.587431	2582.247879
447.962139	2584.758373
448.336786	2586.038826
448.711374	2585.577561
449.085901	2584.085379
449.460369	2586.709300
449.834776	2584.571851
450.209124	2583.122519
450.583412	2586.684094
450.957640	2584.390369
451.331808	2585.280133
451.705917	2583.702252
452.079965	2586.958837
452.453954	2583.755184
452.827883	2586.278281
453.201752	2585.035637
453.575562	2586.729464
453.949311	2588.400607
454.323001	2585.643096
454.696632	2587.122674
455.070202	2586.943713
455.443713	2587.967068
455.817164	2587.064701
456.190556	2587.523446
456.563888	2589.060998
456.937160	2586.588312
457.310373	2587.157963
457.683526	2588.047726
458.056619	2587.273909
458.429653	2587.473035
458.802628	2587.120154
459.175542	2586.631162
459.548398	2589.434043
459.921194	2590.590988
460.293930	2592.410845
460.666607	2590.696852
461.039224	2592.917481
461.411782	2593.736668
461.784280	2594.167687
462.156719	2592.393201
462.529099	2593.237594
462.901419	2592.443612
463.273680	2590.003694
463.645882	2586.842890
464.018024	2588.599732
464.390106	2590.659044
464.762130	2592.952769
465.134094	2595.178438
465.505999	2596.070723
465.877845	2599.864191
466.249631	2597.641042
466.621358	2598.808069
466.993026	2599.612133
467.364634	2601.550457
467.736184	2598.553491
468.107674	2597.532657
468.479105	2598.908892
468.850477	2598.298912
469.221790	2599.281937
469.593043	2595.125506
469.964238	2599.090374
470.335373	2596.965527
470.706449	2598.508120
471.077467	2595.972420
471.448425	2597.918305
471.819324	2604.060951
472.190164	2608.930706
472.560945	2603.569439
472.931667	2601.371496
473.302330	2598.820672
473.672934	2597.220106
474.043479	2596.809252
474.413965	2597.714139
474.784393	2598.619026
475.154761	2600.932915
475.525070	2599.987699
475.895321	2599.448296
476.265513	2600.885024
476.635645	2603.665221
477.005719	2599.050044
477.375734	2604.965838
477.745691	2603.955087
478.115588	2603.579521
478.485427	2606.561364
478.855207	2605.323760
479.224928	2607.554471
479.594591	2612.260388
479.964194	2609.399533
480.333739	2610.800974
480.703226	2609.225613
481.072653	2611.768876
481.442022	2613.256016
481.811333	2613.679473
482.180584	2610.001951
482.549777	2612.882971
482.918912	2608.597990
483.287988	2615.884978
483.657005	2613.954216
484.025964	2613.765172
484.394864	2612.867847
484.763706	2614.783486
485.132489	2613.949175
485.501213	2614.964967
485.869879	2612.368773
486.238487	2617.404886
486.607036	2615.564864
486.975527	2613.785337
487.343959	2613.664349
487.712333	2614.591922
488.080648	2616.981429
488.448905	2619.726337
488.817104	2618.566872
489.185244	2620.018724
489.553326	2620.790020
489.921350	2622.400669
490.289315	2623.494599
490.657222	2627.782101
491.025070	2627.409055
491.392861	2630.579941
491.760593	2629.402832
492.128267	2626.970475
492.495883	2626.463839
492.863440	2626.080711
493.230939	2625.904271
493.598380	2627.146915
493.965763	2627.474590
494.333088	2627.446864
494.700354	2627.570372
495.067563	2630.872328
495.434713	2626.693212
495.801805	2627.227574
496.168839	2626.637759
496.535815	2631.605816
496.902733	2632.407359
497.269593	2633.924747
497.636395	2633.287041
498.003139	2637.539254
498.369825	2638.527320
498.736453	2637.602268
499.103023	2641.481436
499.469535	2642.151910
499.835989	2643.129894
500.202385	2645.557209
500.568723	2643.689462
500.935003	2649.872437
501.301226	2645.247178
501.667390	2654.316214
502.033497	2660.310146
502.399546	2661.880465
502.765537	2660.141267
503.131470	2667.123265
503.497345	2670.861281
503.863163	2671.166271
504.228923	2676.419153
504.594625	2684.159845
504.960269	2683.963240
505.325856	2687.214784
505.691385	2690.380629
506.056856	2699.064016
506.422270	2700.833461
506.787625	2706.771940
507.152924	2716.148487
507.518164	2720.428426
507.883347	2725.819940
508.248472	2731.455950
508.613540	2741.666807
508.978550	2751.217273
509.343503	2758.652975
509.708398	2770.305602
510.073236	2781.933024
510.438016	2790.296298
510.802738	2799.062864
511.167403	2810.208856
511.532010	2818.597336
511.896561	2842.802436
512.261053	2853.545135
512.625488	2866.455530
512.989866	2876.585728
513.354186	2894.486866
513.718449	2912.592170
514.082655	2933.308791
514.446803	2949.647171
514.810894	2976.067858
515.174927	2984.973057
515.538904	3008.338805
515.902822	3037.055738
516.266684	3060.406362
516.630488	3079.827407
516.994235	3104.745831
517.357925	3131.993267
517.721558	3170.613547
518.085133	3199.605223
518.448651	3231.288875
518.812112	3251.511463
519.175516	3290.996301
519.538863	3329.309070
519.902152	3359.563555
520.265385	3411.774785
520.628560	3443.881894
520.991678	3486.343533
521.354739	3538.055689
521.717743	3580.045980
522.080690	3617.884881
522.443580	3683.490457
522.806413	3723.701221
523.169189	3782.551651
523.531908	3828.849607
523.894569	3873.345352
524.257174	3931.341306
524.619722	3997.599712
524.982213	4035.163870
525.344647	4103.506793
525.707025	4168.182276
526.069345	4240.306064
526.431608	4301.540960
526.793815	4389.158734
527.155964	4401.501999
527.518057	4486.032067
527.880093	4555.176533
528.242072	4621.939054
528.603995	4677.285882
528.965860	4735.125561
529.327669	4836.845963
529.689421	4895.860231
530.051117	4954.569508
530.412755	5072.673661
530.774337	5107.089618
531.135862	5185.736659
531.497331	5291.363956
531.858743	5324.625489
532.220098	5484.074664
532.581396	5495.349205
532.942638	5620.500890
533.303824	5701.439136
533.664953	5805.276823
534.026025	5871.827615
534.387040	5969.973839
534.747999	6107.773780
535.108902	6203.311207
535.469748	6235.297328
535.830537	6370.629624
536.191270	6466.174613
536.551947	6592.087512
536.912567	6596.107832
537.273131	6754.619353
537.633638	6800.950078
537.994089	6977.982798
538.354483	6986.572924
538.714821	7187.047010
539.075103	7336.285328
539.435328	7393.668782
539.795497	7408.192347
540.155609	7621.954914
540.515665	7792.842467
540.875665	7736.825166
541.235609	7916.113802
541.595496	8046.384779
541.955328	8239.796208
542.315102	8340.601641
542.674821	8367.576856
543.034483	8447.272457
543.394090	8580.742046
543.753640	8649.253847
544.113134	8926.116537
544.472571	8971.910379
544.831953	9200.627529
545.191278	9178.907717
545.550548	9307.726842
545.909761	9444.488305
546.268918	9670.823510
546.628019	9771.530640
546.987064	9870.243994
547.346053	9916.395758
547.704986	10052.645543
548.063863	10253.346481
548.422684	10317.628754
548.781449	10346.827117
549.140158	10601.170972
549.498811	10632.254727
549.857408	10620.884405
550.215949	10913.808211
550.574434	10917.006823
550.932864	11132.785851
551.291237	11295.849534
551.649555	11407.291802
552.007817	11558.125645
552.366022	11653.292548
552.724173	11761.135431
553.082267	11879.436189
553.440305	12209.956920
553.798288	12037.146166
554.156215	12393.344015
554.514086	12560.017164
554.871902	12409.274061
555.229661	12672.283660
555.587365	12762.008637
555.945014	12797.316878
556.302606	13099.834000
556.660143	13155.364830
557.017625	13437.039301
557.375050	13343.190661
557.732421	13637.621772
558.089735	13706.826732
558.446994	13834.577132
558.804197	13995.032018
559.161345	14129.726607
559.518437	14068.612699
559.875474	14362.905178
560.232455	14536.509914
560.589381	14615.046050
560.946251	14677.427808
561.303065	15021.610066
561.659825	15197.523650
562.016528	15100.637714
562.373177	15095.641931
562.729770	15375.211720
563.086307	15489.446787
563.442789	15697.364136
563.799216	15723.782303
564.155587	15818.162785
564.511904	15964.557893
564.868164	16008.209244
565.224370	16178.781726
565.580520	16177.874318
565.936615	16424.835404
566.292654	16301.352340
566.648638	16676.189855
567.004567	16635.850542
567.360441	16731.453504
567.716260	16637.990512
568.072023	17020.586363
568.427732	16938.491172
568.783385	16901.733599
569.138982	17146.572359
569.494525	17317.399419
569.850013	17261.087210
570.205445	17414.139161
570.560823	17347.353955
570.916145	17326.823856
571.271412	17504.600146
571.626625	17475.487483
571.981782	17624.768651
572.336884	17565.076348
572.691931	17773.218029
573.046923	17626.596069
573.401860	17687.755348
573.756743	17775.289943
574.111570	17782.902085
574.466342	17826.394640
574.821059	18007.140170
575.175722	17835.078028
575.530330	17950.870811
575.884882	18051.681285
576.239380	18062.920537
576.593823	18050.829330
576.948211	18101.293801
577.302544	18053.480977
577.656823	18035.262247
578.011047	18194.469447
578.365216	18173.490685
578.719330	18143.082445
579.073389	18122.133931
579.427394	18332.622268
579.781344	18185.329835
580.135239	18185.425617
580.489080	18208.546869
580.842866	18058.217141
581.196597	18310.153846
581.550273	18319.598447
581.903895	18336.103185
582.257463	18652.090270
582.610975	18295.373183
582.964434	18615.927553
583.317837	18425.845806
583.671186	18560.250529
584.024481	18583.071832
584.377721	18436.701931
584.730906	18526.283234
585.084037	18625.548595
585.437113	18576.641841
585.790135	18798.049318
586.143103	18387.044045
586.496016	18433.331919
586.848874	18722.074088
587.201679	18699.497281
587.554428	18428.595755
587.907124	18769.939844
588.259765	18613.041492
588.612352	18731.203618
588.964884	18369.707517
589.317362	18561.765396
589.669786	18646.907964
590.022155	18734.319051
590.374470	18919.730169
590.726731	18798.860943
591.078937	18592.397967
591.431090	18711.482624
591.783188	18507.978805
592.135232	18511.235390
592.487222	18656.332401
592.839157	18712.873982
593.191038	18640.485534
593.542866	18548.025731
593.894639	18318.955700
594.246358	18551.063026
594.598022	18491.471547
594.949633	18292.625754
595.301190	18262.373789
595.652692	18440.223177
596.004141	18701.168423
596.355535	18080.741016
596.706876	18112.346530
597.058162	18030.581536
597.409395	18259.883459
597.760573	18382.880052
598.111698	18194.696299
598.462768	18138.724368
598.813785	18121.251729
599.164748	17968.383779
599.515657	18008.430706
599.866511	17816.697981
600.217312	18192.047173
600.568060	17753.368486
600.918753	18064.188388
601.269392	17986.990678
601.619978	17776.225077
601.970510	18012.791304
602.320988	17964.154251
602.671412	18180.578548
603.021783	18089.013550
603.372100	17837.926280
603.722363	17985.185945
604.072572	17930.491947
604.422728	18076.393021
604.772830	17854.796501
605.122878	17804.755487
605.472872	17819.909196
605.822813	17817.045820
606.172701	17778.133154
606.522534	17988.523189
606.872314	18029.515332
607.222041	17851.945728
607.571714	18079.742868
607.921333	17918.143640
608.270899	17996.344539
608.620411	18202.764666
608.969870	17952.196634
609.319276	17974.763360
609.668627	18001.625148
610.017926	18154.057037
610.367171	18271.689842
610.716362	18308.528073
611.065500	18140.549266
611.414585	18264.284387
611.763616	18254.549919
612.112594	18211.596767
612.461518	18187.434517
612.810389	18387.497748
613.159207	18233.838338
613.507971	18143.745357
613.856682	18437.707641
614.205340	18380.019197
614.553945	18517.181431
614.902496	18267.714892
615.250994	18514.181945
615.599439	18453.604919
615.947830	18446.575030
616.296169	18483.725814
616.644454	18457.257235
616.992686	18424.439324
617.340864	18629.863823
617.688990	18398.777330
618.037063	18578.197037
618.385082	18419.476308
618.733048	18709.367860
619.080961	18567.305624
619.428821	18618.480897
619.776628	18511.164814
620.124382	18444.233414
620.472083	18465.018092
620.819731	18494.980190
621.167326	18190.330660
621.514868	18243.713958
621.862357	17995.323706
622.209793	18010.164862
622.557176	17847.272579
622.904506	17673.012493
623.251783	17580.406497
623.599007	17357.494236
623.946179	17307.110424
624.293297	17265.793127
624.640363	17016.117380
624.987376	17025.448555
625.334336	16819.288048
625.681243	16672.358578
626.028097	16670.586613
626.374899	16615.144003
626.721647	16478.420349
627.068343	16319.414795
627.414987	16241.080305
627.761577	16220.525000
628.108115	16279.594720
628.454600	15986.368445
628.801032	16078.724904
629.147412	16009.149419
629.493739	16035.726383
629.840014	15847.225037
630.186236	15946.152640
630.532405	15714.703185
630.878521	15900.746968
631.224585	15790.280163
631.570597	15627.834022
631.916556	15656.558517
632.262462	15629.416944
632.608316	15558.379525
632.954117	15489.625748
633.299866	15502.659651
633.645562	15423.566468
633.991206	15168.259752
634.336797	15036.552046
634.682336	15012.626730
635.027823	14900.829061
635.373257	14790.805878
635.718639	14675.625595
636.063968	14634.507424
636.409245	14387.692532
636.754470	14412.505091
637.099642	14259.947173
637.444762	14038.600190
637.789829	14084.305811
638.134845	13934.528089
638.479808	13949.336478
638.824719	13914.678546
639.169577	13755.095780
639.514383	13803.642091
639.859137	13614.437505
640.203839	13695.708467
640.548489	13545.182133
