Dividing Wavelength (nm)	Counts (n)	Blue Motor Position (mm): 48.500000	Red Motor Position (mm): 0.000000	
326.493990	2280.376025
326.888308	2280.376025
327.282561	2280.376025
327.676750	2238.577298
328.070874	2238.557133
328.464933	2239.663666
328.858929	2242.953019
329.252859	2247.656416
329.646726	2257.771491
330.040528	2269.260280
330.434265	2281.091868
330.827938	2300.530558
331.221547	2316.085038
331.615091	2332.443582
332.008571	2353.117354
332.401986	2374.852289
332.795338	2392.677809
333.188625	2413.003741
333.581847	2431.792122
333.975006	2449.345419
334.368100	2468.017853
334.761129	2487.383446
335.154095	2509.735922
335.546996	2533.373892
335.939833	2571.525344
336.332606	2584.803744
336.725315	2601.018615
337.117960	2613.329113
337.510540	2626.042903
337.903056	2635.505148
338.295508	2642.512352
338.687896	2652.214053
339.080220	2659.765701
339.472480	2665.893224
339.864676	2668.839778
340.256807	2674.732887
340.648875	2677.853361
341.040879	2682.415606
341.432818	2683.726306
341.824694	2685.863755
342.216506	2689.294260
342.608253	2689.914322
342.999937	2687.207222
343.391557	2689.246369
343.783113	2687.955834
344.174605	2687.043385
344.566033	2686.869465
344.957397	2687.171934
345.348697	2684.653878
345.739934	2684.038857
346.131106	2680.973836
346.522215	2680.462158
346.913260	2678.173475
347.304241	2675.252126
347.695159	2674.828669
348.086012	2672.018226
348.476802	2671.075530
348.867528	2667.909685
349.258191	2665.099242
349.648789	2664.632935
350.039324	2662.636638
350.429796	2664.058244
350.820203	2665.653769
351.210548	2662.986999
351.600828	2659.422903
351.991045	2660.637821
352.381198	2661.545229
352.771288	2658.404590
353.161314	2658.540701
353.551276	2659.649755
353.941175	2657.081287
354.331010	2657.305618
354.720782	2657.214877
355.110490	2658.233191
355.500135	2656.584733
355.889717	2657.509785
356.279235	2656.841832
356.668689	2656.390649
357.058080	2656.897285
357.447408	2658.081956
357.836672	2658.157573
358.225873	2658.886020
358.615010	2658.749909
359.004084	2659.170845
359.393095	2661.898109
359.782043	2662.094714
360.170927	2664.287616
360.559748	2661.940959
360.948505	2665.641166
361.337199	2663.912050
361.725830	2667.254335
362.114398	2664.572442
362.502903	2667.932371
362.891344	2664.784170
363.279722	2668.645694
363.668037	2668.184428
364.056289	2669.109480
364.444478	2670.659635
364.832603	2668.917916
365.220665	2669.293482
365.608665	2671.042762
365.996601	2673.994358
366.384474	2673.724656
366.772284	2676.986283
367.160031	2675.645336
367.547715	2673.495284
367.935336	2674.395130
368.322893	2672.161899
368.710388	2673.288597
369.097820	2673.265911
369.485189	2674.294307
369.872495	2681.170441
370.259738	2681.505677
370.646918	2682.387879
371.034035	2685.631862
371.421090	2690.499096
371.808081	2697.763398
372.195010	2700.778008
372.581875	2708.929554
372.968678	2719.145452
373.355418	2728.184241
373.742096	2746.483630
374.128710	2761.745723
374.515262	2771.207969
374.901751	2788.126081
375.288177	2803.562094
375.674540	2823.517502
376.060841	2844.735718
376.447079	2867.327649
376.833254	2897.377967
377.219367	2917.683735
377.605417	2951.454425
377.991404	2973.408650
378.377329	3011.920544
378.763191	3029.005015
379.148991	3075.514700
379.534727	3116.537090
379.920402	3149.491112
380.306013	3174.379289
380.691563	3240.819176
381.077049	3260.356168
381.462474	3302.522899
381.847835	3358.187320
382.233134	3400.270872
382.618371	3426.298349
383.003545	3493.154132
383.388657	3513.908562
383.773706	3575.569435
384.158693	3605.823920
384.543618	3639.171153
384.928480	3693.340872
385.313280	3748.745673
385.698017	3775.524282
386.082692	3865.985267
386.467305	3868.601626
386.851856	3903.171339
387.236344	3983.476919
387.620770	4007.029190
388.005133	4062.179413
388.389435	4104.106690
388.773674	4112.187659
389.157851	4189.478630
389.541965	4256.941872
389.926018	4220.769072
390.310008	4324.321934
390.693936	4379.656159
391.077802	4411.649842
391.461606	4410.208072
391.845348	4472.824244
392.229027	4535.574006
392.612645	4533.010580
392.996200	4634.025220
393.379694	4696.192730
393.763125	4804.900171
394.146494	4828.734747
394.529801	4883.829517
394.913047	4970.227332
395.296230	4916.450823
395.679351	5023.567781
396.062410	5075.622736
396.445408	5047.152819
396.828343	5110.560452
397.211217	5162.927958
397.594028	5047.470412
397.976778	5165.420809
398.359466	5210.622315
398.742092	5233.743567
399.124656	5158.232124
399.507158	5273.528353
399.889598	5335.975647
400.271977	5458.200942
400.654294	5456.320592
401.036549	5505.479403
401.418742	5423.646353
401.800874	5626.721674
402.182944	5689.380696
402.564952	5795.073527
402.946898	5856.313464
403.328783	5686.141754
403.710606	5710.266196
404.092367	6036.703593
404.474067	6060.520524
404.855705	5951.465243
405.237282	5886.865377
405.618797	6153.769267
406.000250	6117.596468
406.381642	6336.057391
406.762972	6357.187387
407.144240	6408.634882
407.525447	6392.208283
407.906593	6402.983749
408.287677	6570.561785
408.668700	6489.920968
409.049661	6600.513801
409.430560	6626.193438
409.811399	6485.527602
410.192176	6748.184320
410.572891	6774.378156
410.953545	6960.285827
411.334138	6692.759354
411.714669	6864.304779
412.095139	6654.862480
412.475547	6903.146869
412.855894	6976.173024
413.236180	7162.521796
413.616405	6813.205123
413.996568	7030.592279
414.376670	7089.500683
414.756711	6985.158880
415.136691	7083.237049
415.516609	7289.097607
415.896466	7259.380006
416.276262	7471.305072
416.655997	7468.862633
417.035670	7628.223588
417.415283	7981.893298
417.794834	8050.180768
418.174324	7907.939571
418.553753	7833.650608
418.933121	8124.807489
419.312428	8227.745330
419.691674	8000.051534
420.070859	8480.624731
420.449983	8165.570259
420.829045	8529.370168
421.208047	8299.538923
421.586988	8611.621634
421.965867	8639.506776
422.344686	8727.326197
422.723444	8811.266450
423.102141	8134.607492
423.480777	8903.882528
423.859352	8428.695805
424.237866	9050.683449
424.616319	8912.134897
424.994712	9348.081279
425.373044	8874.646356
425.751314	9376.657059
426.129524	9258.384028
426.507673	9318.111619
426.885762	9479.957863
427.263789	9402.828209
427.641756	9354.697793
428.019662	9428.941386
428.397508	9706.260301
428.775292	9355.108647
429.153016	9745.193132
429.530679	9576.697606
429.908282	9583.813194
430.285824	9316.442997
430.663305	10008.222895
431.040726	9451.094737
431.418086	9427.610522
431.795385	9774.146999
432.172624	9871.524447
432.549802	9774.996433
432.926920	9845.565025
433.303977	9711.026712
433.680974	9916.998175
434.057910	10024.692345
434.434786	10089.566954
434.811601	9904.012163
435.188355	10478.071037
435.565050	10224.619465
435.941683	10142.123503
436.318257	10612.526172
436.694770	10808.354834
437.071222	10842.969917
437.447614	10663.829994
437.823946	10596.545714
438.200218	10679.944042
438.576429	10530.919973
438.952580	10783.620413
439.328670	10788.623758
439.704700	10609.486356
440.080670	10585.480381
440.456580	11103.431213
440.832429	10906.349823
441.208218	10502.926446
441.583947	10776.900554
441.959616	10976.868004
442.335224	10790.720878
442.710773	10888.746114
443.086261	11119.580549
443.461689	10387.768848
443.837057	11081.630743
444.212365	11307.063581
444.587612	10941.080853
444.962800	11149.151957
445.337927	10882.328725
445.712995	10585.450134
446.088002	11607.639858
446.462949	11314.360651
446.837837	11277.141812
447.212664	11179.945846
447.587431	11804.549848
447.962139	12571.735326
448.336786	14874.017684
448.711374	15340.233674
449.085901	13138.068631
449.460369	12797.679841
449.834776	12249.872776
450.209124	13196.689689
450.583412	13624.222385
450.957640	14538.170974
451.331808	13552.978278
451.705917	12648.610401
452.079965	11870.999818
452.453954	12788.744396
452.827883	12456.585290
453.201752	12740.361922
453.575562	12308.085500
453.949311	12717.129764
454.323001	12714.546173
454.696632	12944.125360
455.070202	13215.460425
455.443713	13399.011357
455.817164	13915.159976
456.190556	13863.712480
456.563888	14229.216299
456.937160	14357.755640
457.310373	13731.750196
457.683526	13849.332589
458.056619	13358.445192
458.429653	13590.151746
458.802628	12927.913010
459.175542	13347.677288
459.548398	14298.335559
459.921194	14676.500236
460.293930	14747.867851
460.666607	15571.337811
461.039224	16639.268444
461.411782	17376.665744
461.784280	17122.072351
462.156719	17247.145899
462.529099	16912.637615
462.901419	15890.500823
463.273680	15641.982020
463.645882	15544.632298
464.018024	15257.745274
464.390106	15496.925339
464.762130	16203.732917
465.134094	17019.376486
465.505999	19098.466799
465.877845	22381.319116
466.249631	25158.500852
466.621358	24745.695887
466.993026	23341.467359
467.364634	22742.016194
467.736184	21265.278230
468.107674	20479.175823
468.479105	20609.577870
468.850477	20060.949097
469.221790	19678.164203
469.593043	18965.917220
469.964238	18396.304644
470.335373	18033.921300
470.706449	18558.382782
471.077467	18153.227767
471.448425	20046.657426
471.819324	24210.103538
472.190164	25969.322557
472.560945	22265.115478
472.931667	19996.109776
473.302330	19402.579446
473.672934	19069.223065
474.043479	19264.547612
474.413965	19061.540347
474.784393	18649.317635
475.154761	19453.248083
475.525070	19335.438838
475.895321	19077.878727
476.265513	19691.130051
476.635645	20272.985069
477.005719	20031.980106
477.375734	20203.822959
477.745691	20691.801610
478.115588	21249.113770
478.485427	21817.866830
478.855207	22925.254574
479.224928	24725.037238
479.594591	26963.533877
479.964194	26824.793762
480.333739	27067.555566
480.703226	26651.690621
481.072653	26386.294036
481.442022	27040.597996
481.811333	27962.214181
482.180584	27824.487337
482.549777	26879.336526
482.918912	26564.423207
483.287988	26705.134413
483.657005	26300.533926
484.025964	26113.290349
484.394864	25956.422244
484.763706	25609.603462
485.132489	25092.759164
485.501213	25274.633913
485.869879	25178.539438
486.238487	25023.070254
486.607036	25149.119264
486.975527	24935.840648
487.343959	25199.974424
487.712333	25099.259732
488.080648	24757.076292
488.448905	25278.437463
488.817104	25056.281375
489.185244	25779.427333
489.553326	25706.580139
489.921350	26776.244930
490.289315	29163.601801
490.657222	30829.786326
491.025070	31350.023320
491.392861	31085.493813
491.760593	30222.254191
492.128267	29286.840368
492.495883	28218.050218
492.863440	27361.104475
493.230939	26491.989388
493.598380	26321.711814
493.965763	25952.737161
494.333088	25442.617762
494.700354	25432.681648
495.067563	25258.678661
495.434713	25009.683470
495.801805	25203.780496
496.168839	24955.198679
496.535815	24828.748896
496.902733	25080.040333
497.269593	24775.476503
497.636395	24933.922489
498.003139	24851.837381
498.369825	24583.305198
498.736453	24825.678834
499.103023	24671.749722
499.469535	24672.755432
499.835989	24897.122066
500.202385	24923.071405
500.568723	24478.189578
500.935003	24629.966118
501.301226	24346.368447
501.667390	25180.046743
502.033497	25381.337496
502.399546	25109.195847
502.765537	24639.685463
503.131470	25026.810790
503.497345	25172.432080
503.863163	24426.227885
504.228923	24949.469407
504.594625	25206.482554
504.960269	24780.986484
505.325856	25251.305973
505.691385	24646.659899
506.056856	25248.230870
506.422270	25252.634318
506.787625	24759.864050
507.152924	25200.362593
507.518164	25243.829942
507.883347	25052.054368
508.248472	24720.391815
508.613540	25488.328424
508.978550	25295.330370
509.343503	25312.132536
509.708398	25501.994992
510.073236	25676.776837
510.438016	25886.012448
510.802738	25552.076335
511.167403	25808.834904
511.532010	25564.331380
511.896561	26297.279862
512.261053	26266.790963
512.625488	26094.446516
512.989866	25989.419117
513.354186	25818.448384
513.718449	25946.619721
514.082655	26324.890261
514.446803	26032.818410
514.810894	26534.209051
515.174927	26034.718925
515.538904	26059.148357
515.902822	26564.879431
516.266684	26311.589177
516.630488	26209.556223
516.994235	26148.349053
517.357925	26502.369123
517.721558	26659.214543
518.085133	26783.945292
518.448651	26664.185121
518.812112	26443.571626
519.175516	26675.981421
519.538863	26811.447307
519.902152	26624.239018
520.265385	26854.652516
520.628560	26670.660483
520.991678	26634.016336
521.354739	26690.809975
521.717743	26802.826934
522.080690	26569.308085
522.443580	26896.728507
522.806413	26861.342127
523.169189	26985.883833
523.531908	27020.156117
523.894569	26660.520202
524.257174	26767.392663
524.619722	26869.833951
524.982213	26597.198268
525.344647	26610.605217
525.707025	26797.143033
526.069345	26721.959264
526.431608	26710.407460
526.793815	26869.256739
527.155964	26375.203497
527.518057	26546.060804
527.880093	26469.241181
528.242072	26691.999687
528.603995	26405.717601
528.965860	26198.853853
529.327669	26245.955874
529.689421	26227.880817
530.051117	26078.488743
530.412755	26249.129281
530.774337	26022.423551
531.135862	25926.699601
531.497331	26097.040190
531.858743	25704.109974
532.220098	26155.071432
532.581396	25851.808220
532.942638	25729.580403
533.303824	25872.025767
533.664953	25854.074218
534.026025	25522.729258
534.387040	25758.105773
534.747999	25799.758306
535.108902	25959.336031
535.469748	25465.328160
535.830537	25616.502282
536.191270	25769.511383
536.551947	25574.723719
536.912567	25194.824886
537.273131	25660.367882
537.633638	25318.912888
537.994089	25541.825149
538.354483	25013.567679
538.714821	25535.138058
539.075103	25582.666057
539.435328	25353.306160
539.795497	24965.810308
540.155609	25273.847493
540.515665	25599.564005
540.875665	24810.071421
541.235609	25176.147411
541.595496	25077.222328
541.955328	25451.018845
542.315102	25375.046136
542.674821	24867.404464
543.034483	24764.544761
543.394090	24924.177939
543.753640	24754.535550
544.113134	25379.361363
544.472571	24950.638955
544.831953	25263.883652
545.191278	24931.492653
545.550548	24807.858355
545.909761	25006.263047
546.268918	25252.692291
546.628019	25231.479115
546.987064	24896.078547
547.346053	24631.289421
547.704986	24726.113525
548.063863	24889.152002
548.422684	24927.560553
548.781449	24419.497945
549.140158	24822.371837
549.498811	24406.864813
549.857408	24174.001314
550.215949	24545.206678
550.574434	24269.405151
550.932864	24439.917138
551.291237	24646.919518
551.649555	24471.724299
552.007817	24542.129053
552.366022	24380.456729
552.724173	24388.341093
553.082267	24375.080338
553.440305	24856.664286
553.798288	24081.070164
554.156215	24565.091509
554.514086	24709.888571
554.871902	24115.261790
555.229661	24381.011256
555.587365	24218.096287
555.945014	24135.401199
556.302606	24330.133411
556.660143	24334.050387
557.017625	24561.661004
557.375050	24079.837602
557.732421	24468.563495
558.089735	24292.990189
558.446994	24339.646068
558.804197	24382.064857
559.161345	24259.385857
559.518437	24071.890222
559.875474	24228.165992
560.232455	24405.130656
560.589381	24226.915786
560.946251	24227.613985
561.303065	24516.134343
561.659825	24611.949034
562.016528	24217.370361
562.373177	23955.318581
562.729770	24317.147398
563.086307	24157.115969
563.442789	24330.723226
563.799216	24184.900289
564.155587	24178.989536
564.511904	24155.371730
564.868164	24116.446461
565.224370	24088.732717
565.580520	24032.460838
565.936615	24135.736436
566.292654	23845.068546
566.648638	24062.629623
567.004567	23910.490120
567.360441	23846.961500
567.716260	23566.176792
568.072023	23858.052038
568.427732	23651.379854
568.783385	23412.562752
569.138982	23671.622607
569.494525	23692.036760
569.850013	23453.640594
570.205445	23562.884919
570.560823	23380.347258
570.916145	23159.118742
571.271412	23359.557540
571.626625	23103.524898
571.981782	23203.306977
572.336884	23015.554243
572.691931	23158.980111
573.046923	22891.133525
573.401860	22769.553497
573.756743	22817.933450
574.111570	22698.264020
574.466342	22619.362400
574.821059	22696.799564
575.175722	22395.051219
575.530330	22338.305470
575.884882	22350.610927
576.239380	22275.033948
576.593823	22175.037621
576.948211	22137.412969
577.302544	22003.451867
577.656823	21847.929751
578.011047	21963.813275
578.365216	21832.077842
578.719330	21710.840613
579.073389	21581.706416
579.427394	21752.712437
579.781344	21486.640337
580.135239	21384.730891
580.489080	21325.051191
580.842866	21110.139241
581.196597	21338.445537
581.550273	21278.959922
581.903895	21154.400572
582.257463	21475.970735
582.610975	21015.632730
582.964434	21346.430725
583.317837	20996.176397
583.671186	21082.415416
584.024481	21076.834858
584.377721	20840.992037
584.730906	20941.787388
585.084037	20905.483518
585.437113	20843.263077
585.790135	21048.720343
586.143103	20496.827423
586.496016	20541.013137
586.848874	20761.213257
587.201679	20665.809421
587.554428	20373.888804
587.907124	20713.171061
588.259765	20453.468459
588.612352	20525.388080
588.964884	20108.983731
589.317362	20263.709346
589.669786	20339.508135
590.022155	20322.466514
590.374470	20573.999927
590.726731	20318.791513
591.078937	20120.472521
591.431090	20197.592093
591.783188	19973.953905
592.135232	19927.013201
592.487222	20036.081085
592.839157	20034.414984
593.191038	19914.783362
593.542866	19800.991917
593.894639	19499.344394
594.246358	19729.364682
594.598022	19605.606876
594.949633	19367.530824
595.301190	19353.372743
595.652692	19530.216420
596.004141	19739.285673
596.355535	19069.064269
596.706876	19096.304144
597.058162	18994.114914
597.409395	19235.019054
597.760573	19260.963352
598.111698	19047.856135
598.462768	18993.643566
598.813785	18978.820053
599.164748	18761.934492
599.515657	18835.608434
599.866511	18631.610582
600.217312	18966.567529
600.568060	18474.334144
600.918753	18782.744375
601.269392	18683.378191
601.619978	18484.723962
601.970510	18664.115942
602.320988	18608.517057
602.671412	18818.281989
603.021783	18756.104397
603.372100	18453.052913
603.722363	18613.144836
604.072572	18570.620182
604.422728	18717.244663
604.772830	18456.070044
605.122878	18417.603519
605.472872	18402.666580
605.822813	18377.291932
606.172701	18376.865955
606.522534	18529.895221
606.872314	18574.128826
607.222041	18419.998067
607.571714	18630.582187
607.921333	18459.679510
608.270899	18530.318678
608.620411	18675.060287
608.969870	18482.057192
609.319276	18477.527715
609.668627	18502.199122
610.017926	18634.519328
610.367171	18744.063601
610.716362	18807.398138
611.065500	18612.711297
611.414585	18770.638044
611.763616	18752.341176
612.112594	18680.111523
612.461518	18663.740376
612.810389	18846.361216
613.159207	18710.429023
613.507971	18623.181773
613.856682	18853.653245
614.205340	18775.545607
614.553945	18939.418395
614.902496	18674.041974
615.250994	18884.817658
615.599439	18840.571450
615.947830	18825.684923
616.296169	18900.142765
616.644454	18860.756230
616.992686	18841.378035
617.340864	19052.672957
617.688990	18798.429925
618.037063	18978.386514
618.385082	18842.701338
618.733048	19103.875957
619.080961	19003.877109
619.428821	19020.185241
619.776628	18899.341222
620.124382	18834.002827
620.472083	18885.833450
620.819731	18894.436179
621.167326	18586.928315
621.514868	18622.286968
621.862357	18425.921423
622.209793	18410.359381
622.557176	18237.054594
622.904506	18074.855469
623.251783	18011.276437
623.599007	17760.887367
623.946179	17701.684056
624.293297	17626.696892
624.640363	17345.395467
624.987376	17377.013583
625.334336	17183.319850
625.681243	17031.422323
626.028097	17060.325778
626.374899	16955.696630
626.721647	16829.516549
627.068343	16670.097621
627.414987	16606.558918
627.761577	16557.752987
628.108115	16585.194508
628.454600	16321.053170
628.801032	16415.819300
629.147412	16366.685694
629.493739	16361.826022
629.840014	16183.512849
630.186236	16278.604134
630.532405	16045.176025
630.878521	16227.842235
631.224585	16145.747045
631.570597	15966.493696
631.916556	15989.667880
632.262462	15963.368181
632.608316	15882.014040
632.954117	15832.744323
633.299866	15818.349308
633.645562	15738.978861
633.991206	15507.108470
634.336797	15375.874632
634.682336	15344.402709
635.027823	15201.395256
635.373257	15070.736110
635.718639	14985.696886
636.063968	14929.034317
