Dividing Wavelength (nm)	Counts (n)	Blue Motor Position (mm): 47.300000	Red Motor Position (mm): 0.000000	
326.493990	2275.919645
326.888308	2275.919645
327.282561	2275.919645
327.676750	2232.956411
328.070874	2232.036400
328.464933	2233.536144
328.858929	2237.896742
329.252859	2242.456465
329.646726	2251.129771
330.040528	2263.659558
330.434265	2274.568615
330.827938	2295.212140
331.221547	2309.796198
331.615091	2329.610454
332.008571	2349.943948
332.401986	2368.792822
332.795338	2388.135729
333.188625	2407.778585
333.581847	2426.763571
333.975006	2446.091354
334.368100	2466.487863
334.761129	2482.100316
335.154095	2501.811228
335.546996	2526.810310
335.939833	2567.492421
336.332606	2583.735019
336.725315	2591.231215
337.117960	2607.551950
337.510540	2621.606687
337.903056	2628.598768
338.295508	2637.713174
338.687896	2645.978146
339.080220	2653.219763
339.472480	2660.143788
339.864676	2662.813079
340.256807	2671.546878
340.648875	2673.757424
341.040879	2674.024605
341.432818	2678.433094
341.824694	2680.651202
342.216506	2682.995338
342.608253	2683.171779
342.999937	2684.631193
343.391557	2685.468024
343.783113	2682.090451
344.174605	2681.984587
344.566033	2681.682118
344.957397	2681.752694
345.348697	2680.270595
345.739934	2676.613237
346.131106	2675.448731
346.522215	2676.240192
346.913260	2672.749193
347.304241	2673.255829
347.695159	2669.774912
348.086012	2671.143586
348.476802	2665.678975
348.867528	2662.014056
349.258191	2658.379384
349.648789	2659.687563
350.039324	2653.325627
350.429796	2658.888541
350.820203	2658.233191
351.210548	2655.750422
351.600828	2655.208498
351.991045	2655.173210
352.381198	2653.681029
352.771288	2654.883344
353.161314	2654.454846
353.551276	2652.145997
353.941175	2653.270175
354.331010	2654.220432
354.720782	2651.387304
355.110490	2655.314362
355.500135	2652.007366
355.889717	2655.725217
356.279235	2653.005514
356.668689	2654.961482
357.058080	2652.100627
357.447408	2653.635658
357.836672	2652.559372
358.225873	2654.018786
358.615010	2652.738333
359.004084	2657.998777
359.393095	2655.954589
359.782043	2659.410300
360.170927	2657.514826
360.559748	2655.820998
360.948505	2660.405928
361.337199	2659.412821
361.725830	2659.251504
362.114398	2661.535146
362.502903	2660.090856
362.891344	2662.603871
363.279722	2662.699653
363.668037	2662.119920
364.056289	2665.000940
364.444478	2663.097904
364.832603	2663.912050
365.220665	2665.767195
365.608665	2666.891372
365.996601	2667.143430
366.384474	2666.243584
366.772284	2669.928667
367.160031	2665.399191
367.547715	2670.752896
367.935336	2667.536640
368.322893	2666.057061
368.710388	2665.585713
369.097820	2670.553771
369.485189	2666.546053
369.872495	2672.479491
370.259738	2673.094512
370.646918	2673.848165
371.034035	2676.073834
371.421090	2679.156500
371.808081	2681.339319
372.195010	2687.658406
372.581875	2688.233097
372.968678	2695.167204
373.355418	2707.202959
373.742096	2716.269474
374.128710	2728.874879
374.515262	2739.005078
374.901751	2755.915629
375.288177	2769.627567
375.674540	2785.650875
376.060841	2807.466468
376.447079	2830.958245
376.833254	2858.316587
377.219367	2874.420553
377.605417	2909.953126
377.991404	2933.563370
378.377329	2970.220120
378.763191	2991.899602
379.148991	3036.430634
379.534727	3074.453537
379.920402	3111.594238
380.306013	3135.678351
380.691563	3201.465408
381.077049	3224.148080
381.462474	3271.199690
381.847835	3324.918225
382.233134	3375.130638
382.618371	3399.771798
383.003545	3467.141778
383.388657	3492.236642
383.773706	3558.127043
384.158693	3589.286415
384.543618	3618.973770
384.928480	3677.572142
385.313280	3731.913260
385.698017	3758.258330
386.082692	3853.210983
386.467305	3853.768031
386.851856	3891.531314
387.236344	3966.967141
387.620770	3998.020648
388.005133	4049.364800
388.389435	4092.491871
388.773674	4102.922019
389.157851	4178.456147
389.541965	4246.602465
389.926018	4214.334039
390.310008	4312.833144
390.693936	4368.164849
391.077802	4402.850508
391.461606	4397.516967
391.845348	4465.625476
392.229027	4525.859703
392.612645	4525.955485
392.996200	4627.847286
393.379694	4688.278118
393.763125	4792.536741
394.146494	4822.037574
394.529801	4876.701325
394.913047	4958.947750
395.296230	4909.105862
395.679351	5017.730125
396.062410	5068.527312
396.445408	5042.615781
396.828343	5104.193475
397.211217	5158.063245
397.594028	5039.593609
397.976778	5159.084079
398.359466	5202.836253
398.742092	5223.396599
399.124656	5150.340197
399.507158	5268.164566
399.889598	5328.688659
400.271977	5450.868584
400.654294	5448.831958
401.036549	5494.802240
401.418742	5414.801649
401.800874	5614.043172
402.182944	5684.163102
402.564952	5782.667248
402.946898	5844.779304
403.328783	5677.571793
403.710606	5697.328075
404.092367	6022.139699
404.474067	6047.504265
404.855705	5943.177586
405.237282	5876.309201
405.618797	6139.802751
406.000250	6111.554645
406.381642	6319.356048
406.762972	6343.004101
407.144240	6395.321195
407.525447	6380.843001
407.906593	6392.268777
408.287677	6562.884108
408.668700	6477.575182
409.049661	6585.528971
409.430560	6616.557273
409.811399	6476.226673
410.192176	6738.270891
410.572891	6762.813749
410.953545	6950.649662
411.334138	6681.547828
411.714669	6846.988415
412.095139	6649.420555
412.475547	6891.406022
412.855894	6967.653474
413.236180	7150.657441
413.616405	6807.841335
413.996568	7024.222782
414.376670	7084.295691
414.756711	6975.580688
415.136691	7072.191881
415.516609	7279.088397
415.896466	7255.480673
416.276262	7461.958773
416.655997	7452.302443
417.035670	7620.659337
417.415283	7967.717574
417.794834	8031.440279
418.174324	7897.821976
418.553753	7816.762742
418.933121	8108.562371
419.312428	8218.825008
419.691674	7991.549628
420.070859	8476.375038
420.449983	8151.969226
420.829045	8520.311214
421.208047	8281.708362
421.586988	8600.853729
421.965867	8625.295764
422.344686	8708.288279
422.723444	8789.786093
423.102141	8126.944938
423.480777	8889.976505
423.859352	8413.441273
424.237866	9037.977220
424.616319	8894.793328
424.994712	9334.407149
425.373044	8867.094708
425.751314	9355.433802
426.129524	9234.557015
426.507673	9310.386051
426.885762	9469.946132
427.263789	9390.815140
427.641756	9329.781890
428.019662	9413.790198
428.397508	9686.819091
428.775292	9336.695833
429.153016	9730.183096
429.530679	9563.051202
429.908282	9575.954035
430.285824	9305.246594
430.663305	9989.300924
431.040726	9436.989588
431.418086	9417.941589
431.795385	9753.306869
432.172624	9852.650367
432.549802	9759.482282
432.926920	9832.057254
433.303977	9699.258138
433.680974	9902.885465
434.057910	10007.108800
434.434786	10089.345143
434.811601	9895.464887
435.188355	10461.047060
435.565050	10212.845851
435.941683	10122.805802
436.318257	10601.649882
436.694770	10786.750969
437.071222	10829.752011
437.447614	10650.158385
437.823946	10580.693806
438.200218	10664.258492
438.576429	10517.926399
438.952580	10767.198854
439.328670	10782.045052
439.704700	10593.647050
440.080670	10580.673641
440.456580	11090.127607
440.832429	10889.288038
441.208218	10486.646039
441.583947	10774.080029
441.959616	10964.083638
442.335224	10779.194279
442.710773	10881.343180
443.086261	11112.588468
443.461689	10382.470595
443.837057	11066.388814
444.212365	11297.558485
444.587612	10933.057857
444.962800	11137.784155
445.337927	10878.885617
445.712995	10570.495551
446.088002	11601.963519
446.462949	11302.929835
446.837837	11260.155644
447.212664	11177.082470
447.587431	11783.354317
447.962139	12549.355123
448.336786	14848.635475
448.711374	15326.163814
449.085901	13127.741828
449.460369	12788.610805
449.834776	12232.508522
450.209124	13176.507429
450.583412	13602.192542
450.957640	14515.747922
451.331808	13553.290829
451.705917	12637.446766
452.079965	11864.743746
452.453954	12792.588276
452.827883	12453.401801
453.201752	12729.374727
453.575562	12287.152109
453.949311	12700.241899
454.323001	12682.020648
454.696632	12928.041559
455.070202	13196.737580
455.443713	13390.028021
455.817164	13881.565727
456.190556	13848.699924
456.563888	14213.492940
456.937160	14347.035626
457.310373	13716.919122
457.683526	13829.576307
458.056619	13345.764170
458.429653	13565.581163
458.802628	12913.248293
459.175542	13331.270852
459.548398	14284.374084
459.921194	14647.299352
460.293930	14723.423296
460.666607	15554.800306
461.039224	16620.354035
461.411782	17347.419490
461.784280	17114.157740
462.156719	17233.083600
462.529099	16906.197541
462.901419	15871.349479
463.273680	15622.508043
463.645882	15530.048240
464.018024	15251.779068
464.390106	15475.550847
464.762130	16187.480237
465.134094	16994.904204
465.505999	19072.484692
465.877845	22343.807890
466.249631	25140.846731
466.621358	24741.557099
466.993026	23314.703874
467.364634	22721.060117
467.736184	21250.661405
468.107674	20467.659307
468.479105	20595.661765
468.850477	20051.219670
469.221790	19650.011879
469.593043	18956.669223
469.964238	18388.901710
470.335373	18026.145320
470.706449	18542.856028
471.077467	18124.629302
471.448425	20009.597383
471.819324	24159.044211
472.190164	25956.601205
472.560945	22265.911981
472.931667	19985.251131
473.302330	19380.579850
473.672934	19042.096617
474.043479	19244.861907
474.413965	19047.291526
474.784393	18634.249626
475.154761	19423.404452
475.525070	19328.971038
475.895321	19051.732782
476.265513	19673.604479
476.635645	20255.157028
477.005719	19999.719242
477.375734	20193.105466
477.745691	20681.946154
478.115588	21229.148281
478.485427	21798.145836
478.855207	22894.062435
479.224928	24686.439644
479.594591	26926.955265
479.964194	26798.380636
480.333739	27045.331640
480.703226	26630.621118
481.072653	26348.901277
481.442022	26996.969330
481.811333	27911.459844
482.180584	27767.663451
482.549777	26838.989651
482.918912	26523.690684
483.287988	26667.295513
483.657005	26267.884893
484.025964	26060.325466
484.394864	25920.738437
484.763706	25570.290024
485.132489	25068.823766
485.501213	25236.001030
485.869879	25139.175588
486.238487	25003.112326
486.607036	25110.957730
486.975527	24872.909404
487.343959	25163.814228
487.712333	25065.988117
488.080648	24734.078548
488.448905	25247.636013
488.817104	25006.139538
489.185244	25713.736057
489.553326	25653.365719
489.921350	26724.938586
490.289315	29086.056252
490.657222	30758.378382
491.025070	31291.031738
491.392861	31023.306140
491.760593	30162.818987
492.128267	29253.384751
492.495883	28178.096553
492.863440	27320.316500
493.230939	26460.560314
493.598380	26289.498841
493.965763	25902.426445
494.333088	25398.956328
494.700354	25379.157197
495.067563	25211.276691
495.434713	24966.198477
495.801805	25156.807024
496.168839	24920.865901
496.535815	24797.765965
496.902733	25022.145202
497.269593	24725.508586
497.636395	24866.129052
498.003139	24803.991790
498.369825	24543.780031
498.736453	24765.926037
499.103023	24633.968794
499.469535	24631.118022
499.835989	24849.594068
500.202385	24862.201993
500.568723	24414.613067
500.935003	24588.346352
501.301226	24288.571618
501.667390	25135.082172
502.033497	25318.343237
502.399546	25065.108436
502.765537	24585.298974
503.131470	24987.570448
503.497345	25133.156451
503.863163	24370.646643
504.228923	24908.976339
504.594625	25166.299517
504.960269	24735.235493
505.325856	25193.879669
505.691385	24591.862557
506.056856	25207.117739
506.422270	25195.081985
506.787625	24703.796337
507.152924	25150.185468
507.518164	25191.038979
507.883347	25014.039027
508.248472	24682.678943
508.613540	25448.755367
508.978550	25241.092596
509.343503	25269.502018
509.708398	25455.898682
510.073236	25625.135258
510.438016	25856.241914
510.802738	25500.187739
511.167403	25762.103408
511.532010	25511.789954
511.896561	26246.782623
512.261053	26221.171041
512.625488	26046.490019
512.989866	25933.553050
513.354186	25770.663287
513.718449	25902.131538
514.082655	26283.920804
514.446803	25995.448337
514.810894	26488.652144
515.174927	25974.189791
515.538904	26015.176892
515.902822	26506.361717
516.266684	26257.802586
516.630488	26166.650963
516.994235	26100.226199
517.357925	26450.619159
517.721558	26607.174712
518.085133	26739.073982
518.448651	26615.532945
518.812112	26383.798664
519.175516	26618.522349
519.538863	26751.432370
519.902152	26560.014718
520.265385	26801.324670
520.628560	26615.477492
520.991678	26588.217453
521.354739	26641.207542
521.717743	26741.758396
522.080690	26510.321544
522.443580	26832.136202
522.806413	26807.885732
523.169189	26935.547912
523.531908	26971.062841
523.894569	26610.325433
524.257174	26697.781891
524.619722	26811.228017
524.982213	26552.926855
525.344647	26568.365389
525.707025	26740.545999
526.069345	26678.438983
526.431608	26652.058625
526.793815	26829.058578
527.155964	26332.696488
527.518057	26515.692893
527.880093	26414.625320
528.242072	26638.707129
528.603995	26354.244900
528.965860	26141.304041
529.327669	26187.176020
529.689421	26184.947830
530.051117	26028.329263
530.412755	26200.308226
530.774337	25970.141744
531.135862	25879.045574
531.497331	26050.240638
531.858743	25657.716235
532.220098	26090.950476
532.581396	25793.209847
532.942638	25684.986357
533.303824	25817.609032
533.664953	25800.973224
534.026025	25462.915968
534.387040	25719.397273
534.747999	25752.326090
535.108902	25919.737768
535.469748	25433.909169
535.830537	25574.852268
536.191270	25712.085079
536.551947	25540.708533
536.912567	25153.149667
537.273131	25620.086542
537.633638	25270.477482
537.994089	25505.604459
538.354483	24979.335723
538.714821	25488.363713
539.075103	25539.644850
539.435328	25297.722397
539.795497	24912.737040
540.155609	25231.080864
540.515665	25552.829988
540.875665	24764.675831
541.235609	25119.893175
541.595496	25047.356012
541.955328	25407.417905
542.315102	25329.277500
542.674821	24836.630740
543.034483	24725.082609
543.394090	24890.654266
543.753640	24714.523912
544.113134	25322.897920
544.472571	24906.750670
544.831953	25217.620983
545.191278	24886.056733
545.550548	24774.170844
545.909761	24961.200173
546.268918	25209.363573
546.628019	25182.708473
546.987064	24862.474216
547.346053	24585.755199
547.704986	24678.628376
548.063863	24844.051319
548.422684	24880.786207
548.781449	24377.076635
549.140158	24789.233812
549.498811	24359.024263
549.857408	24134.977742
550.215949	24519.562328
550.574434	24219.890938
550.932864	24394.466095
551.291237	24616.813747
551.649555	24432.173926
552.007817	24501.711602
552.366022	24342.602705
552.724173	24358.134500
553.082267	24341.488610
553.440305	24821.731610
553.798288	24056.146699
554.156215	24545.002511
554.514086	24686.633728
554.871902	24086.542336
555.229661	24344.893909
555.587365	24185.611092
555.945014	24098.678914
556.302606	24297.814573
556.660143	24302.661643
557.017625	24525.173132
557.375050	24056.741555
557.732421	24424.962556
558.089735	24257.815538
558.446994	24294.552947
558.804197	24351.303736
559.161345	24228.881836
559.518437	24040.466190
559.875474	24198.203894
560.232455	24387.360589
560.589381	24185.263252
560.946251	24196.333626
561.303065	24491.677186
561.659825	24590.624953
562.016528	24200.283370
562.373177	23930.947123
562.729770	24279.908395
563.086307	24127.728563
563.442789	24306.591222
563.799216	24150.617922
564.155587	24141.803465
564.511904	24127.839468
564.868164	24098.956178
565.224370	24047.790987
565.580520	24009.037116
565.936615	24104.221663
566.292654	23806.400376
566.648638	24036.163565
567.004567	23881.944587
567.360441	23820.225740
567.716260	23528.234548
568.072023	23839.651827
568.427732	23623.411532
568.783385	23380.266600
569.138982	23647.629235
569.494525	23662.261184
569.850013	23435.061422
570.205445	23534.503222
570.560823	23360.661553
570.916145	23131.513384
571.271412	23323.888856
571.626625	23069.923087
571.981782	23170.690711
572.336884	22971.895330
572.691931	23121.267239
573.046923	22859.505325
573.401860	22740.692891
573.756743	22776.601030
574.111570	22660.888905
574.466342	22575.542170
574.821059	22655.890601
575.175722	22369.815202
575.530330	22318.400474
575.884882	22329.949758
576.239380	22242.510944
576.593823	22134.612608
576.948211	22114.417746
577.302544	21973.459523
577.656823	21828.899395
578.011047	21953.793981
578.365216	21807.756796
578.719330	21685.138290
579.073389	21561.811502
579.427394	21725.502809
579.781344	21470.972431
580.135239	21360.997139
580.489080	21302.171915
580.842866	21093.206005
581.196597	21307.404632
581.550273	21259.687591
581.903895	21143.708285
582.257463	21455.879216
582.610975	20987.704738
582.964434	21328.126295
583.317837	20970.214454
583.671186	21062.192827
584.024481	21058.729554
584.377721	20826.551652
584.730906	20919.908780
585.084037	20878.291535
585.437113	20816.827266
585.790135	21025.344513
586.143103	20473.839762
586.496016	20512.744866
586.848874	20738.391954
587.201679	20636.691716
587.554428	20357.200064
587.907124	20682.387255
588.259765	20430.269069
588.612352	20511.308138
588.964884	20085.116388
589.317362	20252.949003
589.669786	20312.008641
590.022155	20301.061775
590.374470	20554.455373
590.726731	20299.851898
591.078937	20097.724314
591.431090	20173.437404
591.783188	19954.679053
592.135232	19907.924872
592.487222	20013.242138
592.839157	20011.762559
593.191038	19879.275995
593.542866	19782.974833
593.894639	19485.672785
594.246358	19696.680361
594.598022	19591.194217
594.949633	19341.594087
595.301190	19333.298868
595.652692	19499.246091
596.004141	19708.358194
596.355535	19049.996105
596.706876	19071.673066
597.058162	18973.569692
597.409395	19217.939624
597.760573	19256.696015
598.111698	19029.271921
598.462768	18978.323500
598.813785	18948.429457
599.164748	18738.672087
599.515657	18802.752714
599.866511	18609.071583
600.217312	18953.379871
600.568060	18459.649263
600.918753	18771.583260
601.269392	18673.217746
601.619978	18470.606211
601.970510	18654.971289
602.320988	18599.942054
602.671412	18801.207601
603.021783	18741.553107
603.372100	18437.256458
603.722363	18594.174974
604.072572	18540.400986
604.422728	18697.042239
604.772830	18437.203525
605.122878	18403.233710
605.472872	18383.442140
605.822813	18364.754583
606.172701	18350.646914
606.522534	18518.824847
606.872314	18565.044666
607.222041	18400.128359
607.571714	18610.379763
607.921333	18434.763607
608.270899	18521.423562
608.620411	18655.949273
608.969870	18460.564232
609.319276	18459.765209
609.668627	18475.521336
610.017926	18611.599722
610.367171	18728.357886
610.716362	18785.224622
611.065500	18590.951156
611.414585	18744.817254
611.763616	18720.471001
612.112594	18656.760899
612.461518	18633.939595
612.810389	18826.801539
613.159207	18681.860804
613.507971	18594.237988
613.856682	18840.740329
614.205340	18757.576414
614.553945	18925.086395
614.902496	18657.529675
615.250994	18869.429536
615.599439	18824.492690
615.947830	18812.618252
616.296169	18883.731289
616.644454	18838.706223
616.992686	18811.539445
617.340864	19032.044556
617.688990	18783.714797
618.037063	18955.706363
618.385082	18809.714548
618.733048	19089.523792
619.080961	18987.067381
619.428821	19022.612557
619.776628	18877.540752
620.124382	18810.417789
620.472083	18869.036326
620.819731	18877.255927
621.167326	18572.021623
621.514868	18607.226521
621.862357	18407.180934
622.209793	18382.141523
622.557176	18220.262511
622.904506	18058.209579
623.251783	17995.464858
623.599007	17733.118171
623.946179	17682.799893
624.293297	17609.887165
624.640363	17333.342068
624.987376	17365.910442
625.334336	17167.409968
625.681243	17009.745361
626.028097	17035.717386
626.374899	16939.227181
626.721647	16813.387378
627.068343	16650.588355
627.414987	16577.196717
627.761577	16544.797221
628.108115	16571.918629
628.454600	16304.308977
628.801032	16402.684574
629.147412	16343.261973
629.493739	16347.728435
629.840014	16161.490568
630.186236	16255.850886
630.532405	16023.078127
630.878521	16211.181222
631.224585	16121.042870
631.570597	15949.137003
631.916556	15974.952752
632.262462	15951.150944
632.608316	15865.350506
632.954117	15820.355687
633.299866	15796.480783
633.645562	15713.843668
633.991206	15478.530168
634.336797	15354.628689
634.682336	15324.764894
635.027823	15185.195508
635.373257	15056.270519
635.718639	14974.739938
636.063968	14911.319702
