Dividing Wavelength (nm)	Counts (n)	Blue Motor Position (mm): 17.500000	Red Motor Position (mm): 0.000000	
326.493990	2177.745694
326.888308	2177.745694
327.282561	2177.745694
327.676750	2139.725312
328.070874	2133.549898
328.464933	2134.255660
328.858929	2138.684313
329.252859	2144.164048
329.646726	2154.185862
330.040528	2164.923519
330.434265	2177.097906
330.827938	2194.656245
331.221547	2212.108719
331.615091	2228.346276
332.008571	2248.944430
332.401986	2267.518562
332.795338	2286.034720
333.188625	2306.965591
333.581847	2319.840698
333.975006	2339.907010
334.368100	2357.737572
334.761129	2376.462938
335.154095	2396.224261
335.546996	2416.966088
335.939833	2446.497167
336.332606	2459.417645
336.725315	2473.225365
337.117960	2486.385297
337.510540	2496.402070
337.903056	2509.004954
338.295508	2519.369567
338.687896	2527.906761
339.080220	2531.299457
339.472480	2540.645757
339.864676	2546.614483
340.256807	2551.937941
340.648875	2553.742674
341.040879	2556.658982
341.432818	2560.233160
341.824694	2562.330280
342.216506	2565.231464
342.608253	2565.188614
342.999937	2566.645507
343.391557	2565.120558
343.783113	2563.676268
344.174605	2561.919426
344.566033	2563.378840
344.957397	2562.032852
345.348697	2560.780125
345.739934	2560.717111
346.131106	2556.714434
346.522215	2559.461863
346.913260	2556.374157
347.304241	2550.372663
347.695159	2548.915769
348.086012	2546.964843
348.476802	2545.202960
348.867528	2541.003678
349.258191	2537.157278
349.648789	2540.739018
350.039324	2534.987061
350.429796	2538.339429
350.820203	2536.595189
351.210548	2534.974458
351.600828	2535.745755
351.991045	2535.468492
352.381198	2536.149047
352.771288	2533.217616
353.161314	2528.988088
353.551276	2530.966741
353.941175	2532.348017
354.331010	2529.202337
354.720782	2529.877852
355.110490	2528.983047
355.500135	2529.003212
355.889717	2533.441948
356.279235	2529.363654
356.668689	2530.137471
357.058080	2530.863398
357.447408	2529.678726
357.836672	2531.296937
358.225873	2533.303316
358.615010	2530.631504
359.004084	2531.780888
359.393095	2534.112421
359.782043	2532.239633
360.170927	2533.560415
360.559748	2535.541588
360.948505	2534.631660
361.337199	2536.958153
361.725830	2535.521424
362.114398	2535.806249
362.502903	2536.146527
362.891344	2537.290869
363.279722	2537.152237
363.668037	2537.089222
364.056289	2536.227185
364.444478	2540.565098
364.832603	2541.853113
365.220665	2540.131559
365.608665	2539.438400
365.996601	2542.805891
366.384474	2541.210366
366.772284	2539.516538
367.160031	2542.011909
367.547715	2541.906045
367.935336	2545.321427
368.322893	2541.452341
368.710388	2538.452855
369.097820	2542.342105
369.485189	2539.871939
369.872495	2546.191026
370.259738	2543.705737
370.646918	2545.197918
371.034035	2544.073741
371.421090	2547.048022
371.808081	2544.925696
372.195010	2546.609442
372.581875	2547.910059
372.968678	2546.412837
373.355418	2547.184133
373.742096	2545.472661
374.128710	2549.268650
374.515262	2549.492982
374.901751	2547.869730
375.288177	2547.937786
375.674540	2547.332847
376.060841	2548.172199
376.447079	2547.136242
376.833254	2551.504402
377.219367	2548.585574
377.605417	2548.192364
377.991404	2548.809905
378.377329	2553.364588
378.763191	2547.020296
379.148991	2551.108671
379.534727	2550.148332
379.920402	2550.133208
380.306013	2548.187323
380.691563	2553.687222
381.077049	2549.417364
381.462474	2553.057077
381.847835	2551.539690
382.233134	2551.184289
382.618371	2551.824515
383.003545	2555.118909
383.388657	2548.089020
383.773706	2554.569423
384.158693	2555.655792
384.543618	2552.316028
384.928480	2553.137736
385.313280	2554.032541
385.698017	2552.799978
386.082692	2553.639331
386.467305	2553.730071
386.851856	2556.051523
387.236344	2555.328117
387.620770	2551.126315
388.005133	2551.186809
388.389435	2553.140256
388.773674	2550.402910
389.157851	2556.737120
389.541965	2557.195865
389.926018	2557.548745
390.310008	2555.108827
390.693936	2556.401883
391.077802	2554.708055
391.461606	2561.092677
391.845348	2558.365412
392.229027	2556.638817
392.612645	2557.692418
392.996200	2558.151163
393.379694	2558.103272
393.763125	2556.545556
394.146494	2558.435988
394.529801	2559.991184
394.913047	2557.866338
395.296230	2558.173848
395.679351	2559.348437
396.062410	2560.631411
396.445408	2560.321380
396.828343	2558.879610
397.211217	2561.049827
397.594028	2560.744837
397.976778	2560.631411
398.359466	2560.248283
398.742092	2560.507903
399.124656	2561.695094
399.507158	2560.626370
399.889598	2561.949673
400.271977	2560.742316
400.654294	2563.961093
401.036549	2563.424210
401.418742	2562.930177
401.800874	2563.595609
402.182944	2563.101576
402.564952	2563.041083
402.946898	2563.797256
403.328783	2562.242060
403.710606	2564.147616
404.092367	2562.768860
404.474067	2563.202399
404.855705	2563.431772
405.237282	2563.764488
405.618797	2562.695763
406.000250	2567.590724
406.381642	2563.328428
406.762972	2564.465208
407.144240	2561.642162
407.525447	2563.462019
407.906593	2560.356668
408.287677	2567.182390
408.668700	2565.256670
409.049661	2565.254149
409.430560	2566.675754
409.811399	2567.298337
410.192176	2564.230795
410.572891	2564.707184
410.953545	2569.254305
411.334138	2569.748338
411.714669	2568.293965
412.095139	2567.401681
412.475547	2565.579303
412.855894	2567.442010
413.236180	2568.659448
413.616405	2568.848492
413.996568	2569.302196
414.376670	2569.581980
414.756711	2568.299006
415.136691	2567.116855
415.516609	2571.583318
415.896466	2568.843451
416.276262	2568.089798
416.655997	2566.567370
417.035670	2567.036197
417.415283	2570.784295
417.794834	2570.859912
418.174324	2568.704819
418.553753	2571.588359
418.933121	2570.386044
419.312428	2569.299675
419.691674	2568.914027
420.070859	2569.403019
420.449983	2572.266394
420.829045	2571.850499
421.208047	2572.052145
421.586988	2570.184397
421.965867	2571.711867
422.344686	2570.973338
422.723444	2571.583318
423.102141	2571.270766
423.480777	2574.292938
423.859352	2572.762948
424.237866	2572.399985
424.616319	2571.588359
424.994712	2573.418298
425.373044	2573.667835
425.751314	2571.409398
426.129524	2569.463512
426.507673	2569.723132
426.885762	2566.090981
427.263789	2574.749162
427.641756	2573.982907
428.019662	2573.693041
428.397508	2573.962742
428.775292	2572.422670
429.153016	2573.990469
429.530679	2574.383679
429.908282	2572.062227
430.285824	2572.694892
430.663305	2575.253278
431.040726	2573.708164
431.418086	2574.711354
431.795385	2574.101374
432.172624	2576.286714
432.549802	2576.105233
432.926920	2571.389233
433.303977	2575.107084
433.680974	2577.166396
434.057910	2575.512897
434.434786	2574.877712
434.811601	2574.308061
435.188355	2574.829821
435.565050	2574.993658
435.941683	2575.611200
436.318257	2577.365521
436.694770	2576.579101
437.071222	2577.428536
437.447614	2573.922413
437.823946	2578.653536
438.200218	2576.052301
438.576429	2576.574060
438.952580	2577.872157
439.328670	2578.774524
439.704700	2576.039698
440.080670	2580.438104
440.456580	2579.082034
440.832429	2580.533886
441.208218	2578.303176
441.583947	2579.064390
441.959616	2582.429360
442.335224	2579.709658
442.710773	2577.539441
443.086261	2581.252251
443.461689	2578.724112
443.837057	2579.815522
444.212365	2578.925758
444.587612	2580.561613
444.962800	2574.963411
445.337927	2576.198494
445.712995	2574.865109
446.088002	2578.991293
446.462949	2580.546489
446.837837	2580.859041
447.212664	2582.542786
447.587431	2580.314596
447.962139	2580.924576
448.336786	2583.238465
448.711374	2583.036819
449.085901	2583.815677
449.460369	2582.948599
449.834776	2583.387179
450.209124	2582.507498
450.583412	2583.309042
450.957640	2582.802406
451.331808	2582.308372
451.705917	2585.524629
452.079965	2583.119998
452.453954	2586.185020
452.827883	2583.372056
453.201752	2582.999011
453.575562	2582.406675
453.949311	2583.520770
454.323001	2580.475913
454.696632	2585.877509
455.070202	2583.641758
455.443713	2584.143352
455.817164	2582.613362
456.190556	2584.755853
456.563888	2588.158632
456.937160	2584.670153
457.310373	2585.373394
457.683526	2583.679566
458.056619	2585.645616
458.429653	2586.532859
458.802628	2587.263827
459.175542	2587.387335
459.548398	2586.658888
459.921194	2587.551172
460.293930	2588.778693
460.666607	2587.009248
461.039224	2589.262644
461.411782	2591.314394
461.784280	2589.849939
462.156719	2590.777511
462.529099	2594.134919
462.901419	2589.870103
463.273680	2585.501943
463.645882	2586.663929
464.018024	2588.398086
464.390106	2584.251737
464.762130	2591.392532
465.134094	2591.415217
465.505999	2595.359920
465.877845	2594.644076
466.249631	2595.632142
466.621358	2597.197420
466.993026	2596.612647
467.364634	2598.903851
467.736184	2598.790425
468.107674	2595.947214
468.479105	2593.305650
468.850477	2595.606936
469.221790	2594.386977
469.593043	2594.691967
469.964238	2595.904364
470.335373	2594.255907
470.706449	2595.581731
471.077467	2591.516040
471.448425	2594.916298
471.819324	2599.723038
472.190164	2601.961311
472.560945	2597.973758
472.931667	2598.079622
473.302330	2594.760023
473.672934	2596.650455
474.043479	2599.037442
474.413965	2595.440578
474.784393	2597.285641
475.154761	2594.719693
475.525070	2599.148347
475.895321	2597.409149
476.265513	2596.804210
476.635645	2596.549632
477.005719	2600.285127
477.375734	2599.629777
477.745691	2600.227154
478.115588	2600.322936
478.485427	2601.482401
478.855207	2602.936774
479.224928	2603.955087
479.594591	2607.209152
479.964194	2607.947681
480.333739	2608.252671
480.703226	2605.568256
481.072653	2606.916765
481.442022	2610.816097
481.811333	2606.909203
482.180584	2605.248143
482.549777	2607.027670
482.918912	2604.260077
483.287988	2610.886674
483.657005	2607.443566
484.025964	2612.555296
484.394864	2611.461365
484.763706	2611.254678
485.132489	2610.009513
485.501213	2613.462703
485.869879	2611.920110
486.238487	2610.765686
486.607036	2610.281735
486.975527	2612.192333
487.343959	2614.521346
487.712333	2612.784668
488.080648	2611.090840
488.448905	2613.986983
488.817104	2612.751901
489.185244	2614.995214
489.553326	2613.296345
489.921350	2617.689711
490.289315	2618.259361
490.657222	2622.294805
491.025070	2624.502830
491.392861	2621.407562
491.760593	2622.350257
492.128267	2625.233798
492.495883	2620.316152
492.863440	2619.509567
493.230939	2620.543004
493.598380	2621.616770
493.965763	2618.581995
494.333088	2620.658950
494.700354	2619.958230
495.067563	2620.603498
495.434713	2621.636934
495.801805	2620.772376
496.168839	2620.192644
496.535815	2624.051647
496.902733	2625.032151
497.269593	2624.442336
497.636395	2625.357306
498.003139	2626.852008
498.369825	2629.135651
498.736453	2626.889817
499.103023	2631.570528
499.469535	2631.313429
499.835989	2630.484159
500.202385	2630.116155
500.568723	2631.394087
500.935003	2631.454581
501.301226	2632.951804
501.667390	2640.233751
502.033497	2643.807929
502.399546	2643.364307
502.765537	2644.503608
503.131470	2646.308341
503.497345	2648.687766
503.863163	2651.251192
504.228923	2651.835966
504.594625	2655.861328
504.960269	2657.106493
505.325856	2659.803510
505.691385	2662.329128
506.056856	2668.680982
506.422270	2670.873884
506.787625	2674.816066
507.152924	2676.010820
507.518164	2681.334278
507.883347	2682.418126
508.248472	2690.678057
508.613540	2695.595702
508.978550	2698.496886
509.343503	2703.543081
509.708398	2708.231354
510.073236	2716.690411
510.438016	2721.071173
510.802738	2725.943448
511.167403	2732.426372
511.532010	2737.412073
511.896561	2753.490834
512.261053	2759.131885
512.625488	2766.620519
512.989866	2775.263577
513.354186	2783.732716
513.718449	2792.713531
514.082655	2808.628454
514.446803	2820.702017
514.810894	2833.078050
515.174927	2842.585666
515.538904	2858.823223
515.902822	2874.697816
516.266684	2889.032337
516.630488	2897.630025
516.994235	2917.585433
517.357925	2938.115532
517.721558	2962.360961
518.085133	2979.064824
518.448651	2998.629542
518.812112	3011.512211
519.175516	3036.985161
519.538863	3062.760581
519.902152	3082.098447
520.265385	3118.893829
520.628560	3139.751603
520.991678	3164.065088
521.354739	3196.827547
521.717743	3229.322825
522.080690	3254.253851
522.443580	3297.723721
522.806413	3328.179852
523.169189	3366.739637
523.531908	3402.325142
523.894569	3431.034513
524.257174	3473.614619
524.619722	3521.498019
524.982213	3550.719067
525.344647	3598.710852
525.707025	3648.376300
526.069345	3693.151828
526.431608	3744.175867
526.793815	3809.196669
527.155964	3822.205367
527.518057	3881.650653
527.880093	3933.077984
528.242072	3987.512363
528.603995	4028.091131
528.965860	4075.810693
529.327669	4149.174605
529.689421	4195.626317
530.051117	4247.421653
530.412755	4331.009024
530.774337	4363.980691
531.135862	4423.443621
531.497331	4500.669057
531.858743	4535.662227
532.220098	4658.568078
532.581396	4675.029966
532.942638	4771.555459
533.303824	4837.813865
533.664953	4919.861164
534.026025	4977.342921
534.387040	5056.708326
534.747999	5162.058359
535.108902	5248.637656
535.469748	5281.942039
535.830537	5391.418257
536.191270	5474.171317
536.551947	5578.031690
536.912567	5586.432772
537.273131	5722.312033
537.633638	5766.180154
537.994089	5916.197331
538.354483	5921.319143
538.714821	6091.972283
539.075103	6214.532815
539.435328	6276.004645
539.795497	6294.379651
540.155609	6460.016843
540.515665	6607.457990
540.875665	6574.992959
541.235609	6712.450101
541.595496	6831.234809
541.955328	6988.523851
542.315102	7081.276040
542.674821	7116.440609
543.034483	7189.870056
543.394090	7304.994886
543.753640	7373.037860
544.113134	7595.055317
544.472571	7655.085377
544.831953	7856.333279
545.191278	7851.289605
545.550548	7973.736711
545.909761	8080.251251
546.268918	8279.124770
546.628019	8372.930561
546.987064	8481.882498
547.346053	8520.643930
547.704986	8649.299218
548.063863	8816.594949
548.422684	8879.974856
548.781449	8929.025283
549.140158	9152.368563
549.498811	9204.088281
549.857408	9198.134678
550.215949	9454.159758
550.574434	9476.882759
550.932864	9663.239094
551.291237	9811.872474
551.649555	9920.312734
552.007817	10058.979753
552.366022	10161.728551
552.724173	10252.562581
553.082267	10375.332321
553.440305	10656.207770
553.798288	10538.411128
554.156215	10851.368479
554.514086	11008.539053
554.871902	10898.079811
555.229661	11123.555499
555.587365	11217.210055
555.945014	11270.865576
556.302606	11519.381857
556.660143	11581.453585
557.017625	11834.272491
557.375050	11783.341714
557.732421	12032.939323
558.089735	12121.204886
558.446994	12235.553379
558.804197	12397.530693
559.161345	12534.992876
559.518437	12485.118220
559.875474	12778.084876
560.232455	12935.308382
560.589381	13035.992828
560.946251	13111.900002
561.303065	13429.717025
561.659825	13594.020832
562.016528	13519.089121
562.373177	13536.904559
562.729770	13788.692549
563.086307	13913.756015
563.442789	14110.050984
563.799216	14149.336696
564.155587	14248.372683
564.511904	14394.026742
564.868164	14446.250575
565.224370	14607.917858
565.580520	14623.757163
565.936615	14857.727196
566.292654	14759.475107
566.648638	15122.584378
567.004567	15108.822028
567.360441	15199.298136
567.716260	15152.455735
568.072023	15499.045144
568.427732	15453.825994
568.783385	15428.859680
569.138982	15667.979251
569.494525	15840.174984
569.850013	15808.685416
570.205445	15963.068232
570.560823	15924.291677
570.916145	15924.969712
571.271412	16099.532267
571.626625	16101.510920
571.981782	16241.186169
572.336884	16202.139912
572.691931	16412.600523
573.046923	16299.048533
573.401860	16373.420676
573.756743	16479.544526
574.111570	16495.250241
574.466342	16552.164868
574.821059	16732.698669
575.175722	16600.527177
575.530330	16724.025364
575.884882	16806.932180
576.239380	16854.971856
576.593823	16844.524064
576.948211	16905.801810
577.302544	16875.171759
577.656823	16877.551184
578.011047	17048.163995
578.365216	17030.661108
578.719330	17030.908125
579.073389	17013.329622
579.427394	17240.834374
579.781344	17113.850229
580.135239	17145.206206
580.489080	17166.883168
580.842866	17039.649486
581.196597	17301.595401
581.550273	17317.061661
581.903895	17348.732710
582.257463	17668.387235
582.610975	17352.369903
582.964434	17661.806008
583.317837	17500.378180
583.671186	17644.046023
584.024481	17679.994491
584.377721	17548.291827
584.730906	17666.272471
585.084037	17761.850227
585.437113	17738.219818
585.790135	17969.560889
586.143103	17576.446671
586.496016	17632.242162
586.848874	17937.473945
587.201679	17930.060928
587.554428	17669.919745
587.907124	18030.876443
588.259765	17876.755767
588.612352	18023.682717
588.964884	17676.173297
589.317362	17893.759579
589.669786	17985.717787
590.022155	18083.407787
590.374470	18279.138147
590.726731	18162.609355
591.078937	17974.160942
591.431090	18128.211042
591.783188	17932.311803
592.135232	17947.876366
592.487222	18102.536445
592.839157	18170.453390
593.191038	18109.031972
593.542866	18037.795427
593.894639	17828.847162
594.246358	18070.114264
594.598022	18016.267179
594.949633	17826.808015
595.301190	17822.308785
595.652692	18006.154625
596.004141	18281.215102
596.355535	17675.243204
596.706876	17714.475984
597.058162	17643.357906
597.409395	17877.932877
597.760573	18016.751130
598.111698	17830.155341
598.462768	17800.271381
598.813785	17783.668341
599.164748	17638.478069
599.515657	17691.271552
599.866511	17516.708998
600.217312	17888.055513
600.568060	17454.614585
600.918753	17784.646325
601.269392	17719.416314
601.619978	17500.070669
601.970510	17755.069875
602.320988	17714.541519
602.671412	17929.899611
603.021783	17850.854319
603.372100	17627.195967
603.722363	17774.077546
604.072572	17721.319350
604.422728	17864.949385
604.772830	17675.974171
605.122878	17609.879603
605.472872	17637.986556
605.822813	17636.423799
606.172701	17602.839632
606.522534	17827.415474
606.872314	17868.271505
607.222041	17706.452987
607.571714	17928.777954
607.921333	17781.727497
608.270899	17865.803860
608.620411	18072.823884
608.969870	17817.391139
609.319276	17846.536570
609.668627	17884.360348
610.017926	18028.260084
610.367171	18168.646137
610.716362	18212.587354
611.065500	18038.188637
611.414585	18161.921237
611.763616	18152.189290
612.112594	18121.090412
612.461518	18099.085775
612.810389	18303.300397
613.159207	18146.071850
613.507971	18065.229386
613.856682	18381.476090
614.205340	18310.053022
614.553945	18460.292010
614.902496	18190.265125
615.250994	18465.151682
615.599439	18396.871774
615.947830	18385.496410
616.296169	18411.821316
616.644454	18394.971259
616.992686	18371.234986
617.340864	18576.112520
617.688990	18355.806535
618.037063	18539.433084
618.385082	18383.427017
618.733048	18668.554678
619.080961	18525.332977
619.428821	18574.388445
619.776628	18473.938413
620.124382	18401.252537
620.472083	18425.082071
620.819731	18459.734962
621.167326	18158.427718
621.514868	18210.338999
621.862357	17963.514025
622.209793	17991.547881
622.557176	17831.720619
622.904506	17658.257036
623.251783	17562.102067
623.599007	17352.616919
623.946179	17300.483827
624.293297	17244.915188
624.640363	16995.181468
624.987376	17019.192483
625.334336	16807.010318
625.681243	16659.606980
626.028097	16665.023699
626.374899	16599.985253
626.721647	16481.624002
627.068343	16310.892724
627.414987	16232.442288
627.761577	16221.482819
628.108115	16273.557939
628.454600	15981.851571
628.801032	16081.142137
629.147412	16008.960376
629.493739	16032.003490
629.840014	15844.293606
630.186236	15947.158351
630.532405	15709.188163
630.878521	15900.439457
631.224585	15796.291739
631.570597	15620.421005
631.916556	15655.179761
632.262462	15645.803215
632.608316	15555.145625
632.954117	15504.597975
633.299866	15495.670092
633.645562	15418.850469
633.991206	15170.142623
634.336797	15047.657708
634.682336	15005.352345
635.027823	14909.346091
635.373257	14792.119099
635.718639	14682.032902
636.063968	14640.156037
636.409245	14389.257810
636.754470	14414.309824
637.099642	14266.735086
637.444762	14036.417370
637.789829	14086.770935
638.134845	13937.434314
638.479808	13954.909474
638.824719	13918.600563
639.169577	13761.490483
639.514383	13813.474862
639.859137	13629.878559
640.203839	13705.700034
640.548489	13542.578377
