Dividing Wavelength (nm)	Counts (n)	Blue Motor Position (mm): 44.200000	Red Motor Position (mm): 0.000000	
326.493990	2262.560587
326.888308	2262.560587
327.282561	2262.560587
327.676750	2224.091542
328.070874	2220.658516
328.464933	2223.131202
328.858929	2224.603219
329.252859	2232.046483
329.646726	2237.795919
330.040528	2250.487023
330.434265	2264.508993
330.827938	2284.628238
331.221547	2299.741617
331.615091	2316.198464
332.008571	2334.823007
332.401986	2354.546521
332.795338	2376.326826
333.188625	2394.941287
333.581847	2413.394431
333.975006	2432.150043
334.368100	2451.240893
334.761129	2468.249746
335.154095	2488.353868
335.546996	2512.150634
335.939833	2552.396686
336.332606	2568.583831
336.725315	2580.818712
337.117960	2594.921339
337.510540	2605.916096
337.903056	2617.256172
338.295508	2628.039200
338.687896	2633.284520
339.080220	2638.945736
339.472480	2648.939823
339.864676	2654.507778
340.256807	2657.003149
340.648875	2660.811741
341.040879	2665.381547
341.432818	2667.715601
341.824694	2671.052845
342.216506	2671.153668
342.608253	2672.388751
342.999937	2671.367917
343.391557	2670.326919
343.783113	2671.166271
344.174605	2669.459840
344.566033	2670.122752
344.957397	2670.470592
345.348697	2665.744510
345.739934	2664.363234
346.131106	2662.810558
346.522215	2660.544560
346.913260	2660.083294
347.304241	2657.650937
347.695159	2657.618170
348.086012	2658.553304
348.476802	2651.853610
348.867528	2648.082827
349.258191	2646.333547
349.648789	2648.773465
350.039324	2646.308341
350.429796	2645.630306
350.820203	2645.163999
351.210548	2645.809267
351.600828	2642.403967
351.991045	2643.737353
352.381198	2640.901704
352.771288	2640.906745
353.161314	2641.471354
353.551276	2641.000006
353.941175	2638.146713
354.331010	2642.691313
354.720782	2640.417753
355.110490	2640.150572
355.500135	2639.008750
355.889717	2642.545120
356.279235	2639.616209
356.668689	2640.316930
357.058080	2642.240130
357.447408	2638.653349
357.836672	2641.272228
358.225873	2641.322640
358.615010	2642.552682
359.004084	2641.788947
359.393095	2643.137455
359.782043	2643.752476
360.170927	2645.537045
360.559748	2645.814308
360.948505	2647.974442
361.337199	2645.239617
361.725830	2647.001500
362.114398	2646.774648
362.502903	2646.547796
362.891344	2648.839000
363.279722	2647.571150
363.668037	2651.417551
364.056289	2650.424443
364.444478	2653.607932
364.832603	2651.546100
365.220665	2652.309835
365.608665	2651.755308
365.996601	2652.695483
366.384474	2653.010555
366.772284	2654.359064
367.160031	2653.862510
367.547715	2655.117757
367.935336	2655.488282
368.322893	2654.868220
368.710388	2652.274547
369.097820	2654.258241
369.485189	2651.951913
369.872495	2657.408962
370.259738	2660.678150
370.646918	2660.761329
371.034035	2660.148829
371.421090	2660.703356
371.808081	2660.363078
372.195010	2661.719148
372.581875	2661.993891
372.968678	2662.356854
373.355418	2664.383398
373.742096	2664.315343
374.128710	2664.217040
374.515262	2666.916578
374.901751	2666.588903
375.288177	2668.960766
375.674540	2668.194511
376.060841	2670.279028
376.447079	2675.053000
376.833254	2676.431756
377.219367	2679.206911
377.605417	2686.446008
377.991404	2695.628470
378.377329	2705.201621
378.763191	2715.974567
379.148991	2732.449057
379.534727	2751.827253
379.920402	2771.374327
380.306013	2791.690177
380.691563	2826.592606
381.077049	2851.700072
381.462474	2887.852707
381.847835	2928.549942
382.233134	2965.446147
382.618371	3000.207423
383.003545	3055.566854
383.388657	3091.527925
383.773706	3149.944816
384.158693	3190.412679
384.543618	3233.874987
384.928480	3293.705921
385.313280	3356.375025
385.698017	3395.701066
386.082692	3487.581136
386.467305	3511.899662
386.851856	3563.453022
387.236344	3649.238337
387.620770	3695.816078
388.005133	3761.028444
388.389435	3828.526974
388.773674	3857.422868
389.157851	3943.982000
389.541965	4025.593239
389.926018	4014.172505
390.310008	4128.639465
390.693936	4198.018345
391.077802	4241.316815
391.461606	4257.430863
391.845348	4337.970858
392.229027	4402.243049
392.612645	4418.576387
392.996200	4527.268705
393.379694	4598.900981
393.763125	4707.850398
394.146494	4744.139144
394.529801	4813.008867
394.913047	4896.845776
395.296230	4853.968242
395.679351	4964.545952
396.062410	5021.463099
396.445408	4998.790510
396.828343	5063.607145
397.211217	5122.112256
397.594028	5004.988608
397.976778	5126.946723
398.359466	5173.761398
398.742092	5200.257703
399.124656	5110.447026
399.507158	5234.804730
399.889598	5297.627589
400.271977	5421.609727
400.654294	5419.000930
401.036549	5460.401406
401.418742	5378.046596
401.800874	5588.867650
402.182944	5649.059027
402.564952	5752.682465
402.946898	5812.969623
403.328783	5650.077340
403.710606	5670.141132
404.092367	5994.088199
404.474067	6015.442527
404.855705	5910.828502
405.237282	5849.696950
405.618797	6100.726247
406.000250	6078.242701
406.381642	6283.412621
406.762972	6304.514891
407.144240	6365.550661
407.525447	6346.016190
407.906593	6372.804882
408.287677	6523.868098
408.668700	6438.498678
409.049661	6553.618467
409.430560	6589.332522
409.811399	6438.443225
410.192176	6709.770728
410.572891	6721.055351
410.953545	6915.986688
411.334138	6649.118086
411.714669	6821.003788
412.095139	6619.425689
412.475547	6861.469130
412.855894	6928.589572
413.236180	7109.990452
413.616405	6788.647142
413.996568	7003.480954
414.376670	7045.892181
414.756711	6937.877898
415.136691	7032.581015
415.516609	7240.082469
415.896466	7220.810137
416.276262	7429.226561
416.655997	7408.767038
417.035670	7600.101512
417.415283	7938.695651
417.794834	7992.225143
418.174324	7855.917384
418.553753	7776.551979
418.933121	8079.873164
419.312428	8179.398144
419.691674	7950.602856
420.070859	8431.176053
420.449983	8114.266437
420.829045	8478.018454
421.208047	8257.231039
421.586988	8558.024086
421.965867	8578.150893
422.344686	8679.586470
422.723444	8736.249039
423.102141	8087.933969
423.480777	8845.417746
423.859352	8375.907362
424.237866	8988.062236
424.616319	8856.997277
424.994712	9277.590824
425.373044	8827.937545
425.751314	9304.392119
426.129524	9178.635495
426.507673	9274.036811
426.885762	9426.710676
427.263789	9349.860806
427.641756	9280.391185
428.019662	9374.645639
428.397508	9634.648190
428.775292	9299.517323
429.153016	9684.333802
429.530679	9518.797433
429.908282	9540.761740
430.285824	9262.515254
430.663305	9952.465213
431.040726	9397.396366
431.418086	9381.279797
431.795385	9714.109377
432.172624	9808.562956
432.549802	9711.515703
432.926920	9794.014186
433.303977	9666.425103
433.680974	9870.349858
434.057910	9963.081883
434.434786	10035.926556
434.811601	9858.654381
435.188355	10430.575806
435.565050	10169.638121
435.941683	10087.815153
436.318257	10565.436753
436.694770	10731.525129
437.071222	10788.200301
437.447614	10616.453230
437.823946	10539.011025
438.200218	10645.318877
438.576429	10479.409463
438.952580	10720.525331
439.328670	10754.515311
439.704700	10549.032839
440.080670	10537.201251
440.456580	11070.187323
440.832429	10848.568118
441.208218	10453.026584
441.583947	10752.476164
441.959616	10930.081055
442.335224	10739.525440
442.710773	10857.183450
443.086261	11082.734755
443.461689	10347.933650
443.837057	11030.946982
444.212365	11273.018148
444.587612	10911.068343
444.962800	11128.145469
445.337927	10885.194621
445.712995	10528.984170
446.088002	11577.924777
446.462949	11264.332240
446.837837	11238.420710
447.212664	11176.144816
447.587431	11748.252763
447.962139	12490.134168
448.336786	14787.224139
448.711374	15283.200580
449.085901	13106.087551
449.460369	12750.209816
449.834776	12194.407481
450.209124	13116.273203
450.583412	13528.405173
450.957640	14463.168687
451.331808	13527.812838
451.705917	12586.450454
452.079965	11835.474807
452.453954	12756.226433
452.827883	12408.903536
453.201752	12698.278370
453.575562	12236.425498
453.949311	12651.632573
454.323001	12624.947225
454.696632	12859.456661
455.070202	13142.217501
455.443713	13342.754601
455.817164	13836.858254
456.190556	13805.164520
456.563888	14173.667825
456.937160	14322.376822
457.310373	13682.936703
457.683526	13777.856589
458.056619	13306.854024
458.429653	13496.350997
458.802628	12872.518291
459.175542	13281.988532
459.548398	14229.397780
459.921194	14595.430920
460.293930	14667.365665
460.666607	15509.233316
461.039224	16579.066985
461.411782	17297.650698
461.784280	17085.657576
462.156719	17186.692382
462.529099	16852.821804
462.901419	15809.290355
463.273680	15577.432566
463.645882	15481.607793
464.018024	15203.825093
464.390106	15433.442088
464.762130	16142.530788
465.134094	16934.087724
465.505999	18987.243822
465.877845	22261.246393
466.249631	25054.627877
466.621358	24687.284037
466.993026	23273.709211
467.364634	22689.439480
467.736184	21209.346628
468.107674	20401.597506
468.479105	20536.609689
468.850477	20009.093268
469.221790	19610.085941
469.593043	18914.452081
469.964238	18343.306994
470.335373	17982.405749
470.706449	18483.130958
471.077467	18059.038849
471.448425	19935.931002
471.819324	24056.391195
472.190164	25921.892861
472.560945	22254.415629
472.931667	19951.039340
473.302330	19340.868161
473.672934	18956.472618
474.043479	19199.194094
474.413965	19005.283591
474.784393	18604.441284
475.154761	19361.274752
475.525070	19288.603998
475.895321	19006.627058
476.265513	19603.766855
476.635645	20192.785352
477.005719	19958.568303
477.375734	20134.509614
477.745691	20630.972527
478.115588	21166.995895
478.485427	21721.437118
478.855207	22816.675682
479.224928	24602.567447
479.594591	26829.532446
479.964194	26749.821722
480.333739	26994.718455
480.703226	26561.953041
481.072653	26271.698526
481.442022	26890.295994
481.811333	27813.724473
482.180584	27694.407924
482.549777	26741.924754
482.918912	26421.632524
483.287988	26557.778966
483.657005	26188.579982
484.025964	25980.042571
484.394864	25841.093247
484.763706	25492.116852
485.132489	24961.333763
485.501213	25147.175900
485.869879	25059.051489
486.238487	24905.626493
486.607036	25033.076944
486.975527	24769.336378
487.343959	25060.967128
487.712333	24977.011752
488.080648	24630.127435
488.448905	25145.645909
488.817104	24904.817387
489.185244	25608.491888
489.553326	25556.280658
489.921350	26602.524247
490.289315	28953.620099
490.657222	30676.273109
491.025070	31182.135253
491.392861	30934.269280
491.760593	30068.186447
492.128267	29147.825510
492.495883	28092.868285
492.863440	27215.745325
493.230939	26374.069237
493.598380	26204.424328
493.965763	25814.624669
494.333088	25326.330946
494.700354	25283.012311
495.067563	25132.279290
495.434713	24890.911364
495.801805	25064.745472
496.168839	24830.225954
496.535815	24705.573343
496.902733	24913.094962
497.269593	24614.479693
497.636395	24768.940647
498.003139	24709.555855
498.369825	24456.139572
498.736453	24666.980790
499.103023	24534.262333
499.469535	24537.523959
499.835989	24760.194245
500.202385	24794.776561
500.568723	24315.879548
500.935003	24522.380333
501.301226	24181.636142
501.667390	25029.744741
502.033497	25246.443781
502.399546	24967.297448
502.765537	24508.239897
503.131470	24895.375306
503.497345	25034.979980
503.863163	24280.536018
504.228923	24834.626882
504.594625	25062.998713
504.960269	24630.601303
505.325856	25098.306954
505.691385	24498.928885
506.056856	25108.966474
506.422270	25088.837147
506.787625	24621.885148
507.152924	25045.029520
507.518164	25090.175573
507.883347	24904.824949
508.248472	24587.433903
508.613540	25359.847057
508.978550	25162.800956
509.343503	25178.693193
509.708398	25386.759257
510.073236	25543.130808
510.438016	25758.821616
510.802738	25411.833956
511.167403	25672.305334
511.532010	25408.721043
511.896561	26159.616032
512.261053	26127.692926
512.625488	25955.172038
512.989866	25845.957961
513.354186	25684.152046
513.718449	25811.448742
514.082655	26183.178385
514.446803	25909.063124
514.810894	26393.336528
515.174927	25883.733847
515.538904	25923.889158
515.902822	26412.737408
516.266684	26164.999985
516.630488	26066.884007
516.994235	26020.656627
517.357925	26356.445364
517.721558	26509.903128
518.085133	26643.037480
518.448651	26508.602510
518.812112	26290.413810
519.175516	26510.707192
519.538863	26645.091751
519.902152	26438.984176
520.265385	26692.339965
520.628560	26499.273855
520.991678	26487.434705
521.354739	26542.854630
521.717743	26633.343342
522.080690	26409.206080
522.443580	26743.033808
522.806413	26721.324079
523.169189	26842.208428
523.531908	26870.716153
523.894569	26500.319894
524.257174	26585.734685
524.619722	26731.597951
524.982213	26448.827028
525.344647	26473.062376
525.707025	26644.330536
526.069345	26600.701870
526.431608	26570.157519
526.793815	26743.863078
527.155964	26231.946508
527.518057	26398.970017
527.880093	26318.883726
528.242072	26538.967900
528.603995	26278.569619
528.965860	26058.717338
529.327669	26103.689472
529.689421	26081.770535
530.051117	25916.571923
530.412755	26096.480622
530.774337	25873.719595
531.135862	25771.661435
531.497331	25958.484076
531.858743	25547.574585
532.220098	26009.243454
532.581396	25701.690220
532.942638	25589.060761
533.303824	25723.029424
533.664953	25715.490378
534.026025	25378.055705
534.387040	25621.490503
534.747999	25657.139023
535.108902	25826.920043
535.469748	25337.348387
535.830537	25487.519319
536.191270	25639.605890
536.551947	25466.031401
536.912567	25082.787762
537.273131	25517.761201
537.633638	25175.217318
537.994089	25409.613328
538.354483	24900.234978
538.714821	25421.215543
539.075103	25464.675331
539.435328	25231.343004
539.795497	24830.588917
540.155609	25185.113103
540.515665	25498.193962
540.875665	24701.933630
541.235609	25047.227463
541.595496	24978.667771
541.955328	25335.455434
542.315102	25257.652786
542.674821	24764.607775
543.034483	24645.490351
543.394090	24831.158568
543.753640	24626.666683
544.113134	25267.049497
544.472571	24857.927095
544.831953	25143.417719
545.191278	24805.012623
545.550548	24675.369270
545.909761	24873.973088
546.268918	25113.899243
546.628019	25096.371151
546.987064	24791.338494
547.346053	24521.921588
547.704986	24621.983451
548.063863	24801.599762
548.422684	24813.958151
548.781449	24310.702283
549.140158	24718.738317
549.498811	24289.902482
549.857408	24069.599018
550.215949	24453.848367
550.574434	24145.057529
550.932864	24342.025492
551.291237	24541.498909
551.649555	24374.175451
552.007817	24438.813126
552.366022	24294.247957
552.724173	24311.849146
553.082267	24285.274703
553.440305	24772.398879
553.798288	24002.133256
554.156215	24500.839483
554.514086	24625.814728
554.871902	24018.748899
555.229661	24286.958448
555.587365	24131.700992
555.945014	24046.563466
556.302606	24247.327417
556.660143	24238.301232
557.017625	24474.519618
557.375050	23976.047806
557.732421	24371.191088
558.089735	24203.797054
558.446994	24247.524023
558.804197	24285.892244
559.161345	24188.918088
559.518437	23986.755216
559.875474	24153.647656
560.232455	24336.485264
560.589381	24142.446212
560.946251	24165.194418
561.303065	24452.996412
561.659825	24555.140271
562.016528	24150.660772
562.373177	23889.687799
562.729770	24244.148970
563.086307	24100.481127
563.442789	24256.298151
563.799216	24111.947231
564.155587	24097.085909
564.511904	24076.187806
564.868164	24032.372618
565.224370	23999.980683
565.580520	23946.468835
565.936615	24056.575197
566.292654	23764.326906
566.648638	23993.550692
567.004567	23833.826773
567.360441	23782.449854
567.716260	23504.006762
568.072023	23831.976670
568.427732	23612.008442
568.783385	23368.140104
569.138982	23616.051448
569.494525	23649.292816
569.850013	23413.003853
570.205445	23489.679803
570.560823	23312.309326
570.916145	23081.003543
571.271412	23268.426081
571.626625	23008.756247
571.981782	23126.668835
572.336884	22933.408641
572.691931	23067.518457
573.046923	22807.402480
573.401860	22678.739631
573.756743	22716.492832
574.111570	22606.787242
574.466342	22518.403212
574.821059	22597.067897
575.175722	22311.466367
575.530330	22279.543261
575.884882	22294.830560
576.239380	22215.976831
576.593823	22096.882092
576.948211	22071.061302
577.302544	21938.950304
577.656823	21791.730967
578.011047	21902.966548
578.365216	21763.107296
578.719330	21630.159466
579.073389	21528.149197
579.427394	21689.211542
579.781344	21431.157398
580.135239	21328.932880
580.489080	21268.958272
580.842866	21053.390972
581.196597	21266.102459
581.550273	21226.277343
581.903895	21092.296077
582.257463	21408.749469
582.610975	20949.991866
582.964434	21276.920775
583.317837	20953.515632
583.671186	21042.764220
584.024481	21030.231912
584.377721	20790.278030
584.730906	20885.371835
585.084037	20859.906447
585.437113	20785.045312
585.790135	20993.756643
586.143103	20444.376738
586.496016	20469.501849
586.848874	20701.374761
587.201679	20611.259095
587.554428	20312.202725
587.907124	20648.782923
588.259765	20402.313350
588.612352	20478.359156
588.964884	20043.373114
589.317362	20220.519260
589.669786	20285.852614
590.022155	20284.425968
590.374470	20520.420023
590.726731	20280.498909
591.078937	20077.410985
591.431090	20158.087090
591.783188	19929.490928
592.135232	19893.088756
592.487222	19982.637292
592.839157	19988.190123
593.191038	19876.039574
593.542866	19763.742831
593.894639	19474.645261
594.246358	19700.015084
594.598022	19574.225693
594.949633	19333.964301
595.301190	19321.890737
595.652692	19482.736312
596.004141	19700.546926
596.355535	19034.192087
596.706876	19067.108301
597.058162	18948.326114
597.409395	19202.465803
597.760573	19243.904087
598.111698	19008.348612
598.462768	18949.384756
598.813785	18926.266025
599.164748	18725.562567
599.515657	18779.656668
599.866511	18581.720803
600.217312	18926.918854
600.568060	18447.094269
600.918753	18759.585314
601.269392	18652.307039
601.619978	18449.350186
601.970510	18640.324217
602.320988	18588.498635
602.671412	18782.817471
603.021783	18716.223829
603.372100	18429.306558
603.722363	18582.781966
604.072572	18520.201082
604.422728	18677.394342
604.772830	18425.155168
605.122878	18386.797028
605.472872	18361.250981
605.822813	18350.382253
606.172701	18347.128188
606.522534	18509.221449
606.872314	18542.051964
607.222041	18379.953662
607.571714	18600.393237
607.921333	18420.998736
608.270899	18499.706271
608.620411	18658.835334
608.969870	18451.696843
609.319276	18441.748126
609.668627	18470.124781
610.017926	18610.399928
610.367171	18718.928408
610.716362	18779.583571
611.065500	18583.036544
611.414585	18729.255212
611.763616	18706.464155
612.112594	18648.072470
612.461518	18618.977451
612.810389	18800.811870
613.159207	18667.208690
613.507971	18578.948169
613.856682	18838.403754
614.205340	18752.217668
614.553945	18912.886802
614.902496	18663.110232
615.250994	18871.980359
615.599439	18823.426486
615.947830	18809.961564
616.296169	18889.889058
616.644454	18834.892591
616.992686	18816.535229
617.340864	19027.820069
617.688990	18782.666237
618.037063	18945.455177
618.385082	18805.830339
618.733048	19088.409697
619.080961	18966.854875
619.428821	18992.403442
619.776628	18869.946254
620.124382	18807.070463
620.472083	18861.958546
620.819731	18867.934833
621.167326	18556.883038
621.514868	18588.997709
621.862357	18379.976347
622.209793	18394.653666
622.557176	18221.555567
622.904506	18044.285912
623.251783	17983.691243
623.599007	17718.196355
623.946179	17661.669897
624.293297	17592.843024
624.640363	17333.185792
624.987376	17362.545472
625.334336	17154.597876
625.681243	17006.138416
626.028097	17015.267945
626.374899	16937.059484
626.721647	16801.293650
627.068343	16639.114689
627.414987	16576.090184
627.761577	16542.606840
628.108115	16568.341930
628.454600	16300.001311
628.801032	16408.668423
629.147412	16340.902713
629.493739	16354.410485
629.840014	16160.124415
630.186236	16252.566574
630.532405	16019.899680
630.878521	16213.774895
631.224585	16131.868748
631.570597	15930.124292
631.916556	15967.827081
632.262462	15945.504852
632.608316	15854.385996
632.954117	15804.009746
633.299866	15788.568692
633.645562	15710.597165
633.991206	15469.670341
634.336797	15343.646536
634.682336	15313.031608
635.027823	15181.568398
635.373257	15044.436411
635.718639	14961.968175
636.063968	14910.487912
