Dividing Wavelength (nm)	Counts (n)	Blue Motor Position (mm): 32.900000	Red Motor Position (mm): 0.000000	
326.493990	2221.911243
326.888308	2221.911243
327.282561	2221.911243
327.676750	2183.288443
328.070874	2178.804336
328.464933	2180.813236
328.858929	2182.784327
329.252859	2185.403207
329.646726	2196.700433
330.040528	2210.495550
330.434265	2220.023331
330.827938	2239.517473
331.221547	2256.422982
331.615091	2274.210693
332.008571	2290.677623
332.401986	2312.520942
332.795338	2329.471822
333.188625	2345.666529
333.581847	2368.681917
333.975006	2388.352499
334.368100	2406.954357
334.761129	2422.927253
335.154095	2442.726384
335.546996	2468.416104
335.939833	2506.093688
336.332606	2523.498272
336.725315	2535.859181
337.117960	2545.273536
337.510540	2559.429096
337.903056	2570.696075
338.295508	2580.296952
338.687896	2584.639906
339.080220	2595.551484
339.472480	2600.239757
339.864676	2607.756117
340.256807	2612.426746
340.648875	2615.978239
341.040879	2616.348764
341.432818	2622.730865
341.824694	2624.016359
342.216506	2625.753036
342.608253	2624.807820
342.999937	2623.630711
343.391557	2624.649024
343.783113	2627.519961
344.174605	2620.603498
344.566033	2626.438633
344.957397	2622.269599
345.348697	2622.259517
345.739934	2620.961420
346.131106	2618.297170
346.522215	2618.161059
346.913260	2614.717951
347.304241	2616.258023
347.695159	2610.432970
348.086012	2611.932713
348.476802	2605.331322
348.867528	2600.794284
349.258191	2598.417380
349.648789	2599.211361
350.039324	2600.615323
350.429796	2598.843357
350.820203	2595.954776
351.210548	2595.735486
351.600828	2595.122986
351.991045	2595.216247
352.381198	2594.374374
352.771288	2593.051071
353.161314	2592.599888
353.551276	2591.337079
353.941175	2593.303129
354.331010	2589.784404
354.720782	2593.109045
355.110490	2595.236412
355.500135	2589.784404
355.889717	2589.814651
356.279235	2591.823550
356.668689	2591.906729
357.058080	2592.299939
357.447408	2592.090732
357.836672	2591.944538
358.225873	2595.357399
358.615010	2597.557863
359.004084	2593.499734
359.393095	2594.560897
359.782043	2596.239601
360.170927	2597.484766
360.559748	2594.437389
360.948505	2594.964189
361.337199	2598.689602
361.725830	2596.622729
362.114398	2598.293871
362.502903	2598.800507
362.891344	2600.597679
363.279722	2598.989551
363.668037	2602.659511
364.056289	2601.563060
364.444478	2600.300251
364.832603	2603.392998
365.220665	2601.890735
365.608665	2601.588265
365.996601	2598.361927
366.384474	2603.294696
366.772284	2602.306630
367.160031	2604.297886
367.547715	2605.568256
367.935336	2605.903493
368.322893	2604.101281
368.710388	2602.820828
369.097820	2604.267639
369.485189	2602.662031
369.872495	2606.599172
370.259738	2607.357866
370.646918	2608.310644
371.034035	2608.842486
371.421090	2606.546240
371.808081	2608.716457
372.195010	2612.041098
372.581875	2606.788216
372.968678	2609.402054
373.355418	2609.056735
373.742096	2606.684872
374.128710	2610.276694
374.515262	2610.869030
374.901751	2610.463217
375.288177	2611.859616
375.674540	2611.844493
376.060841	2612.966150
376.447079	2609.938937
376.833254	2611.373145
377.219367	2608.398864
377.605417	2614.284411
377.991404	2612.257867
378.377329	2612.096551
378.763191	2615.658126
379.148991	2611.269801
379.534727	2617.387242
379.920402	2614.896912
380.306013	2613.195522
380.691563	2617.031840
381.077049	2613.611417
381.462474	2616.847838
381.847835	2615.365739
382.233134	2617.893878
382.618371	2616.129474
383.003545	2619.118878
383.388657	2616.255502
383.773706	2618.697942
384.158693	2619.179372
384.543618	2617.450256
384.928480	2617.442694
385.313280	2617.883795
385.698017	2620.114506
386.082692	2618.440843
386.467305	2619.849845
386.851856	2621.084928
387.236344	2621.185751
387.620770	2621.016872
388.005133	2618.206429
388.389435	2620.790020
388.773674	2618.597118
389.157851	2623.797069
389.541965	2625.826133
389.926018	2624.281019
390.310008	2625.516102
390.693936	2624.250772
391.077802	2625.833695
391.461606	2623.847480
391.845348	2626.456277
392.229027	2627.204889
392.612645	2630.393418
392.996200	2630.761423
393.379694	2627.580455
393.763125	2629.042389
394.146494	2631.681433
394.529801	2633.206382
394.913047	2632.364510
395.296230	2631.681433
395.679351	2633.697895
396.062410	2634.882566
396.445408	2632.561115
396.828343	2637.141003
397.211217	2636.951960
397.594028	2635.101856
397.976778	2634.517082
398.359466	2637.645118
398.742092	2636.084881
399.124656	2637.514048
399.507158	2639.669142
399.889598	2636.962042
400.271977	2639.152423
400.654294	2640.768113
401.036549	2640.831127
401.418742	2643.747435
401.800874	2644.243989
402.182944	2643.278608
402.564952	2643.931437
402.946898	2643.344143
403.328783	2644.574184
403.710606	2644.916983
404.092367	2646.593166
404.474067	2646.013434
404.855705	2649.683394
405.237282	2646.877992
405.618797	2648.644916
406.000250	2648.355050
406.381642	2649.264978
406.762972	2649.759011
407.144240	2651.702376
407.525447	2652.945020
407.906593	2649.476706
408.287677	2655.377377
408.668700	2655.558858
409.049661	2659.178407
409.430560	2661.242759
409.811399	2661.625887
410.192176	2667.634942
410.572891	2666.868687
410.953545	2676.335974
411.334138	2679.466531
411.714669	2687.413910
412.095139	2692.729806
412.475547	2703.981662
412.855894	2712.218907
413.236180	2727.725496
413.616405	2738.775706
413.996568	2761.100455
414.376670	2779.745163
414.756711	2799.234264
415.136691	2828.445230
415.516609	2863.294726
415.896466	2897.801424
416.276262	2941.493105
416.655997	2987.720485
417.035670	3047.253992
417.415283	3129.681898
417.794834	3188.744057
418.174324	3238.374216
418.553753	3293.121147
418.933121	3400.853125
419.312428	3479.948829
419.691674	3522.924666
420.070859	3684.148328
420.449983	3715.224520
420.829045	3870.340824
421.208047	3915.199532
421.586988	4075.072164
421.965867	4176.681661
422.344686	4296.441833
422.723444	4414.745110
423.102141	4320.248682
423.480777	4648.004340
423.859352	4597.282771
424.237866	4923.490795
424.616319	4975.533147
424.994712	5240.234053
425.373044	5193.747053
425.751314	5492.132949
426.129524	5547.716711
426.507673	5728.787395
426.885762	5914.352268
427.263789	5984.910778
427.641756	6056.570780
428.019662	6237.472586
428.397508	6473.242310
428.775292	6417.529998
429.153016	6761.412308
429.530679	6778.552231
429.908282	6915.197747
430.285824	6842.590008
430.663305	7387.715180
431.040726	7145.533108
431.418086	7228.656693
431.795385	7553.440592
432.172624	7720.121303
432.549802	7759.699401
432.926920	7925.989423
433.303977	7925.407169
433.680974	8169.426742
434.057910	8328.875918
434.434786	8458.347872
434.811601	8437.840458
435.188355	8972.616140
435.565050	8827.272113
435.941683	8852.535856
436.318257	9357.674594
436.694770	9516.191157
437.071222	9666.646914
437.447614	9607.090722
437.823946	9563.575482
438.200218	9780.176219
438.576429	9653.537393
438.952580	9924.080997
439.328670	10040.002329
439.704700	9880.439728
440.080670	9916.713350
440.456580	10491.530917
440.832429	10291.109764
441.208218	9951.038567
441.583947	10307.808586
441.959616	10471.809924
442.335224	10319.017592
442.710773	10483.558333
443.086261	10693.277894
443.461689	10040.551815
443.837057	10664.513071
444.212365	10983.958387
444.587612	10641.250666
444.962800	10898.142825
445.337927	10698.452639
445.712995	10267.655796
446.088002	11369.397448
446.462949	11021.255364
446.837837	11007.563590
447.212664	11030.364729
447.587431	11517.801456
447.962139	12228.054662
448.336786	14459.413027
448.711374	15037.325863
449.085901	12929.790839
449.460369	12532.459696
449.834776	11997.389106
450.209124	12831.511025
450.583412	13245.082245
450.957640	14202.513307
451.331808	13390.181776
451.705917	12362.257739
452.079965	11685.674399
452.453954	12581.290833
452.827883	12214.756098
453.201752	12499.971980
453.575562	12001.873213
453.949311	12424.004312
454.323001	12375.692414
454.696632	12605.160696
455.070202	12898.006364
455.443713	13148.977688
455.817164	13601.302779
456.190556	13604.382924
456.563888	13966.284838
456.937160	14155.668385
457.310373	13478.091937
457.683526	13554.067167
458.056619	13114.037451
458.429653	13248.200199
458.802628	12700.022609
459.175542	13068.231006
459.548398	14009.033822
459.921194	14335.375437
460.293930	14394.382143
460.666607	15284.110509
461.039224	16309.708053
461.411782	17016.681989
461.784280	16916.249601
462.156719	16945.586596
462.529099	16647.321688
462.901419	15563.077880
463.273680	15358.013824
463.645882	15216.967381
464.018024	14957.915087
464.390106	15181.843141
464.762130	15904.124541
465.134094	16654.938871
465.505999	18627.431466
465.877845	21893.476576
466.249631	24721.881476
466.621358	24429.381127
466.993026	22972.737202
467.364634	22416.430752
467.736184	20963.061057
468.107674	20160.353089
468.479105	20288.390835
468.850477	19749.478886
469.221790	19335.466565
469.593043	18664.824224
469.964238	18104.704141
470.335373	17775.287422
470.706449	18190.529785
471.077467	17744.614522
471.448425	19567.533561
471.819324	23563.348705
472.190164	25631.653469
472.560945	22116.708950
472.931667	19729.384847
473.302330	19080.157328
473.672934	18579.051512
474.043479	18942.662377
474.413965	18750.664992
474.784393	18382.844763
475.154761	19063.183763
475.525070	19067.574608
475.895321	18720.050065
476.265513	19297.849475
476.635645	19872.094871
477.005719	19672.180353
477.375734	19856.280771
477.745691	20339.077116
478.115588	20851.727174
478.485427	21364.276409
478.855207	22420.115836
479.224928	24171.198433
479.594591	26393.535653
479.964194	26461.346734
480.333739	26651.342781
480.703226	26215.789610
481.072653	25894.794138
481.442022	26452.171834
481.811333	27365.674281
482.180584	27294.268858
482.549777	26331.612640
482.918912	25982.172458
483.287988	26093.317298
483.657005	25793.383767
484.025964	25517.063001
484.394864	25452.921880
484.763706	25140.337574
485.132489	24560.509100
485.501213	24734.686007
485.869879	24648.147039
486.238487	24453.631598
486.607036	24602.388486
486.975527	24300.690552
487.343959	24632.411077
487.712333	24586.123203
488.080648	24236.602363
488.448905	24713.336720
488.817104	24454.728048
489.185244	25138.164837
489.553326	25104.280722
489.921350	26082.977891
490.289315	28353.979890
490.657222	30157.109880
491.025070	30649.265127
491.392861	30447.790373
491.760593	29585.685009
492.128267	28697.703403
492.495883	27660.385176
492.863440	26777.676617
493.230939	25906.066158
493.598380	25744.056077
493.965763	25352.655851
494.333088	24902.644650
494.700354	24842.753222
495.067563	24714.775970
495.434713	24463.267763
495.801805	24607.845535
496.168839	24431.105202
496.535815	24256.131793
496.902733	24478.590350
497.269593	24150.345700
497.636395	24345.347613
498.003139	24301.146776
498.369825	24056.242481
498.736453	24243.302056
499.103023	24130.702844
499.469535	24145.354958
499.835989	24358.048800
500.202385	24380.265165
500.568723	23885.733014
500.935003	24145.513754
501.301226	23734.304314
501.667390	24584.084056
502.033497	24823.682537
502.399546	24546.391349
502.765537	24111.128043
503.131470	24506.886347
503.497345	24635.211438
503.863163	23859.004816
504.228923	24464.003772
504.594625	24652.053933
504.960269	24188.660990
505.325856	24678.467059
505.691385	24084.704836
506.056856	24681.353120
506.422270	24650.864221
506.787625	24235.203443
507.152924	24629.320850
507.518164	24669.587067
507.883347	24483.765095
508.248472	24162.643595
508.613540	24949.252638
508.978550	24736.962088
509.343503	24719.517175
509.708398	24979.325641
510.073236	25141.870085
510.438016	25350.387332
510.802738	25018.818040
511.167403	25282.944255
511.532010	24968.739218
511.896561	25758.657779
512.261053	25717.801747
512.625488	25559.567490
512.989866	25458.487314
513.354186	25299.320443
513.718449	25391.417283
514.082655	25782.648630
514.446803	25520.218764
514.810894	25976.193650
515.174927	25462.164836
515.538904	25494.697922
515.902822	25988.950289
516.266684	25733.141979
516.630488	25647.170141
516.994235	25626.695495
517.357925	25926.097183
517.721558	26105.587466
518.085133	26210.110750
518.448651	26108.256757
518.812112	25845.859658
519.175516	26044.231583
519.538863	26201.112290
519.902152	25981.501985
520.265385	26268.910768
520.628560	26060.088532
520.991678	26069.757465
521.354739	26136.406560
521.717743	26213.296759
522.080690	26002.155592
522.443580	26336.167322
522.806413	26322.402452
523.169189	26405.329433
523.531908	26474.252088
523.894569	26078.319865
524.257174	26144.527859
524.619722	26334.072723
524.982213	26018.496492
525.344647	26081.185761
525.707025	26212.895987
526.069345	26203.597579
526.431608	26158.504458
526.793815	26337.334349
527.155964	25800.141434
527.518057	25970.792053
527.880093	25895.192390
528.242072	26128.134027
528.603995	25840.019481
528.965860	25637.760827
529.327669	25674.664594
529.689421	25675.516549
530.051117	25506.887432
530.412755	25688.016090
530.774337	25484.136705
531.135862	25353.608629
531.497331	25553.807972
531.858743	25113.556445
532.220098	25592.755926
532.581396	25265.466575
532.942638	25205.083634
533.303824	25298.022346
533.664953	25326.209958
534.026025	24975.514529
534.387040	25219.695418
534.747999	25285.235459
535.108902	25442.579953
535.469748	24932.589104
535.830537	25118.045592
536.191270	25229.109773
536.551947	25102.289466
536.912567	24762.873618
537.273131	25104.560506
537.633638	24811.848428
537.994089	25021.777198
538.354483	24563.251488
538.714821	25061.761109
539.075103	25107.272646
539.435328	24894.672065
539.795497	24447.509116
540.155609	24844.898233
540.515665	25139.929241
540.875665	24373.152097
541.235609	24674.590412
541.595496	24628.725994
541.955328	24992.326777
542.315102	24909.790486
542.674821	24448.562717
543.034483	24336.444935
543.394090	24497.040973
543.753640	24301.829852
544.113134	24933.342756
544.472571	24523.338152
544.831953	24811.583767
545.191278	24439.097951
545.550548	24359.051990
545.909761	24552.894437
546.268918	24786.345231
546.628019	24755.274079
546.987064	24457.649397
547.346053	24208.013979
547.704986	24327.441434
548.063863	24489.973276
548.422684	24492.914789
548.781449	24028.372462
549.140158	24441.069042
549.498811	24016.182952
549.857408	23755.303240
550.215949	24172.015100
550.574434	23862.707544
550.932864	24078.070677
551.291237	24237.247630
551.649555	24100.864254
552.007817	24154.078674
552.366022	24019.729404
552.724173	24057.109559
553.082267	24006.045192
553.440305	24484.420445
553.798288	23742.349996
554.156215	24256.199848
554.514086	24347.207799
554.871902	23723.274269
555.229661	24009.387477
555.587365	23870.644840
555.945014	23730.415064
556.302606	23978.984278
556.660143	23932.366207
557.017625	24177.378887
557.375050	23711.505696
557.732421	24100.738225
558.089735	23905.280088
558.446994	23974.963957
558.804197	24002.287011
559.161345	23940.893319
559.518437	23706.280540
559.875474	23897.310024
560.232455	24071.688576
560.589381	23898.842534
560.946251	23877.899061
561.303065	24194.425549
561.659825	24290.658655
562.016528	23885.982551
562.373177	23627.336071
562.729770	23987.604651
563.086307	23840.566796
563.442789	24013.790924
563.799216	23852.746224
564.155587	23860.365928
564.511904	23834.613193
564.868164	23771.954172
565.224370	23752.616305
565.580520	23665.084231
565.936615	23794.117604
566.292654	23477.548266
566.648638	23777.421303
567.004567	23603.153656
567.360441	23551.307909
567.716260	23282.518627
568.072023	23605.936373
568.427732	23356.386654
568.783385	23150.427793
569.138982	23378.532443
569.494525	23419.156581
569.850013	23155.378206
570.205445	23264.778807
570.560823	23073.865269
570.916145	22826.747908
571.271412	23007.619467
571.626625	22772.784876
571.981782	22885.374006
572.336884	22673.940452
572.691931	22823.695489
573.046923	22554.949057
573.401860	22436.456736
573.756743	22449.525927
574.111570	22345.768899
574.466342	22282.615844
574.821059	22367.609698
575.175722	22067.416548
575.530330	22060.747101
575.884882	22079.422056
576.239380	21985.777582
576.593823	21886.393754
576.948211	21863.199406
577.302544	21702.346269
577.656823	21576.934964
578.011047	21671.537257
578.365216	21544.845499
578.719330	21415.439080
579.073389	21317.799492
579.427394	21464.968416
579.781344	21235.968962
580.135239	21123.659616
580.489080	21087.111250
580.842866	20856.244048
581.196597	21046.771937
581.550273	21022.730675
581.903895	20911.353942
582.257463	21232.241028
582.610975	20760.119327
582.964434	21061.522353
583.317837	20772.535689
583.671186	20862.033813
584.024481	20826.077784
584.377721	20602.500090
584.730906	20680.211997
585.084037	20681.038746
585.437113	20597.325346
585.790135	20806.326543
586.143103	20261.692884
586.496016	20276.879360
586.848874	20522.446567
587.201679	20445.216090
587.554428	20122.940166
587.907124	20457.637493
588.259765	20226.039324
588.612352	20307.506890
588.964884	19871.542865
589.317362	20045.336643
589.669786	20093.116700
590.022155	20131.540374
590.374470	20332.563946
590.726731	20110.753176
591.078937	19902.407329
591.431090	19986.282047
591.783188	19738.322812
592.135232	19708.983297
592.487222	19801.932092
592.839157	19820.133178
593.191038	19705.197391
593.542866	19592.187324
593.894639	19306.003541
594.246358	19533.735145
594.598022	19428.206151
594.949633	19188.335448
595.301190	19147.565117
595.652692	19326.276541
596.004141	19558.030986
596.355535	18881.298932
596.706876	18904.024454
597.058162	18787.712432
597.409395	19024.815541
597.760573	19092.341797
598.111698	18866.107415
598.462768	18813.669333
598.813785	18763.524976
599.164748	18587.913861
599.515657	18628.106980
599.866511	18415.859280
600.217312	18783.450136
600.568060	18295.146331
600.918753	18605.825080
601.269392	18512.188168
601.619978	18296.724212
601.970510	18496.484974
602.320988	18450.207182
602.671412	18657.796856
603.021783	18566.471313
603.372100	18288.229867
603.722363	18440.654195
604.072572	18370.158700
604.422728	18517.796452
604.772830	18273.986087
605.122878	18229.255929
605.472872	18219.985247
605.822813	18204.539152
606.172701	18182.385801
606.522534	18372.286067
606.872314	18392.077637
607.222041	18231.612669
607.571714	18446.270041
607.921333	18277.913146
608.270899	18346.550976
608.620411	18524.904479
608.969870	18294.138100
609.319276	18292.411505
609.668627	18325.231937
610.017926	18464.692937
610.367171	18572.840811
610.716362	18620.857801
611.065500	18434.955171
611.414585	18570.925172
611.763616	18570.713444
612.112594	18492.830138
612.461518	18461.232185
612.810389	18649.620104
613.159207	18514.403755
613.507971	18433.397454
613.856682	18700.686993
614.205340	18628.114542
614.553945	18778.361091
614.902496	18520.750568
615.250994	18754.332432
615.599439	18697.919399
615.947830	18683.141257
616.296169	18739.176202
616.644454	18700.318989
616.992686	18679.645217
617.340864	18894.105984
617.688990	18640.636768
618.037063	18810.848807
618.385082	18667.969904
618.733048	18951.895251
619.080961	18823.476898
619.428821	18856.975365
619.776628	18746.264065
620.124382	18667.884205
620.472083	18708.026913
620.819731	18724.506445
621.167326	18429.271270
621.514868	18465.968349
621.862357	18229.318944
622.209793	18231.642916
622.557176	18066.101506
622.904506	17893.714209
623.251783	17807.215570
623.599007	17567.806133
623.946179	17510.450405
624.293297	17452.197352
624.640363	17206.050412
624.987376	17232.680308
625.334336	17023.926127
625.681243	16858.104933
626.028097	16880.439765
626.374899	16805.500492
626.721647	16666.145356
627.068343	16498.176631
627.414987	16431.986281
627.761577	16414.528765
628.108115	16446.746779
628.454600	16171.855180
628.801032	16276.867456
629.147412	16198.787545
629.493739	16223.148921
629.840014	16032.285795
630.186236	16125.211904
630.532405	15888.360853
630.878521	16090.191009
631.224585	15988.889022
631.570597	15808.090560
631.916556	15837.238512
632.262462	15823.791234
632.608316	15734.088942
632.954117	15677.091136
633.299866	15671.898748
633.645562	15583.965901
633.991206	15336.735114
634.336797	15210.247522
634.682336	15186.044943
635.027823	15071.104115
635.373257	14948.843531
635.718639	14855.529253
636.063968	14798.934739
636.409245	14555.754519
