Dividing Wavelength (nm)	Counts (n)	Blue Motor Position (mm): 20.600000	Red Motor Position (mm): 0.000000	
326.493990	2186.494617
326.888308	2186.494617
327.282561	2186.494617
327.676750	2146.833339
328.070874	2140.524335
328.464933	2144.020375
328.858929	2145.467186
329.252859	2154.311890
329.646726	2161.394712
330.040528	2174.295024
330.434265	2183.948834
330.827938	2202.096988
331.221547	2219.791438
331.615091	2237.541340
332.008571	2257.390884
332.401986	2275.080293
332.795338	2293.394804
333.188625	2310.469193
333.581847	2330.792604
333.975006	2348.209791
334.368100	2366.604961
334.761129	2383.812940
335.154095	2401.141906
335.546996	2424.477407
335.939833	2457.343210
336.332606	2470.510704
336.725315	2484.746922
337.117960	2497.392657
337.510540	2511.341529
337.903056	2522.164887
338.295508	2530.792821
338.687896	2539.660211
339.080220	2547.537014
339.472480	2550.541542
339.864676	2561.385063
340.256807	2563.935887
340.648875	2568.440158
341.040879	2565.823799
341.432818	2570.043245
341.824694	2575.802763
342.216506	2574.439131
342.608253	2579.883577
342.999937	2578.532548
343.391557	2578.305696
343.783113	2578.000707
344.174605	2576.135480
344.566033	2576.553895
344.957397	2573.728329
345.348697	2570.754048
345.739934	2570.184398
346.131106	2572.034501
346.522215	2568.092319
346.913260	2565.097873
347.304241	2564.235836
347.695159	2561.264076
348.086012	2563.207441
348.476802	2557.904147
348.867528	2554.382901
349.258191	2550.402910
349.648789	2550.720503
350.039324	2548.179761
350.429796	2552.283260
350.820203	2547.531973
351.210548	2546.992569
351.600828	2549.263609
351.991045	2545.384441
352.381198	2546.914431
352.771288	2547.368135
353.161314	2542.735315
353.551276	2543.032743
353.941175	2543.002496
354.331010	2543.153731
354.720782	2544.008206
355.110490	2541.633823
355.500135	2543.393185
355.889717	2544.199770
356.279235	2543.970397
356.668689	2541.094419
357.058080	2544.774462
357.447408	2542.712630
357.836672	2541.351518
358.225873	2543.957795
358.615010	2543.662887
359.004084	2545.470141
359.393095	2543.350336
359.782043	2545.951571
360.170927	2543.579708
360.559748	2547.194215
360.948505	2545.412168
361.337199	2550.218908
361.725830	2549.863506
362.114398	2548.298228
362.502903	2548.787220
362.891344	2549.956768
363.279722	2550.468445
363.668037	2549.712272
364.056289	2553.054557
364.444478	2551.539690
364.832603	2549.500543
365.220665	2554.035061
365.608665	2551.549772
365.996601	2553.785524
366.384474	2553.969526
366.772284	2556.409445
367.160031	2554.521533
367.547715	2554.478683
367.935336	2554.284598
368.322893	2554.277037
368.710388	2551.726213
369.097820	2554.093034
369.485189	2551.670760
369.872495	2556.061605
370.259738	2557.576472
370.646918	2557.662171
371.034035	2559.645865
371.421090	2555.252500
371.808081	2556.074208
372.195010	2560.086966
372.581875	2558.861966
372.968678	2558.428427
373.355418	2558.320042
373.742096	2560.137378
374.128710	2559.464384
374.515262	2561.284240
374.901751	2560.023952
375.288177	2561.143088
375.674540	2558.516647
376.060841	2561.274158
376.447079	2561.488407
376.833254	2562.778942
377.219367	2560.286092
377.605417	2560.810372
377.991404	2561.793397
378.377329	2560.578479
378.763191	2562.917574
379.148991	2562.925136
379.534727	2560.870866
379.920402	2561.062430
380.306013	2565.685168
380.691563	2562.179045
381.077049	2562.620146
381.462474	2565.851526
381.847835	2564.528223
382.233134	2563.557801
382.618371	2565.037379
383.003545	2564.540826
383.388657	2563.872873
383.773706	2564.525702
384.158693	2565.347410
384.543618	2564.928995
384.928480	2566.297668
385.313280	2568.243553
385.698017	2566.597617
386.082692	2567.749520
386.467305	2563.691391
386.851856	2567.605847
387.236344	2565.186093
387.620770	2564.724828
388.005133	2565.448233
388.389435	2566.844633
388.773674	2562.400856
389.157851	2568.495611
389.541965	2566.350600
389.926018	2570.070972
390.310008	2568.745148
390.693936	2569.566856
391.077802	2570.154151
391.461606	2573.572053
391.845348	2570.002916
392.229027	2571.106929
392.612645	2568.856053
392.996200	2570.048286
393.379694	2569.680282
393.763125	2568.908986
394.146494	2571.386713
394.529801	2572.591548
394.913047	2572.082392
395.296230	2573.015005
395.679351	2570.955694
396.062410	2573.362845
396.445408	2574.572722
396.828343	2573.987948
397.211217	2572.747824
397.594028	2572.704974
397.976778	2571.351425
398.359466	2575.764955
398.742092	2572.790674
399.124656	2576.488360
399.507158	2574.746642
399.889598	2573.511559
400.271977	2576.364852
400.654294	2574.214800
401.036549	2574.872671
401.418742	2575.732187
401.800874	2577.763772
402.182944	2574.731518
402.564952	2576.853844
402.946898	2579.056828
403.328783	2574.565160
403.710606	2576.508525
404.092367	2575.281004
404.474067	2577.400809
404.855705	2576.790830
405.237282	2580.014647
405.618797	2576.679924
406.000250	2578.330902
406.381642	2578.741756
406.762972	2577.917527
407.144240	2575.560788
407.525447	2576.110274
407.906593	2575.757393
408.287677	2579.059349
408.668700	2582.504977
409.049661	2580.816191
409.430560	2581.463979
409.811399	2577.715881
410.192176	2584.579412
410.572891	2584.065215
410.953545	2582.545307
411.334138	2581.078331
411.714669	2580.899370
412.095139	2584.032447
412.475547	2580.561613
412.855894	2584.259299
413.236180	2582.845255
413.616405	2579.523135
413.996568	2580.385172
414.376670	2582.363825
414.756711	2583.866089
415.136691	2583.840883
415.516609	2583.830801
415.896466	2582.089082
416.276262	2582.948599
416.655997	2585.360791
417.035670	2584.526480
417.415283	2584.108064
417.794834	2584.856676
418.174324	2585.224680
418.553753	2580.760738
418.933121	2584.710482
419.312428	2584.246696
419.691674	2585.706110
420.070859	2583.727457
420.449983	2587.336923
420.829045	2583.417426
421.208047	2584.914649
421.586988	2583.901377
421.965867	2587.800710
422.344686	2587.556214
422.723444	2585.620411
423.102141	2584.516398
423.480777	2588.403127
423.859352	2588.859352
424.237866	2586.195102
424.616319	2587.200812
424.994712	2589.915474
425.373044	2586.744588
425.751314	2584.977663
426.129524	2584.266861
426.507673	2584.324834
426.885762	2582.492375
427.263789	2589.902871
427.641756	2590.522933
428.019662	2589.055957
428.397508	2588.345154
428.775292	2590.422110
429.153016	2589.943200
429.530679	2588.841708
429.908282	2587.520926
430.285824	2590.273396
430.663305	2589.156780
431.040726	2589.434043
431.418086	2587.092427
431.795385	2594.828078
432.172624	2589.537387
432.549802	2590.669126
432.926920	2589.754157
433.303977	2594.235742
433.680974	2590.381780
434.057910	2590.512850
434.434786	2590.999322
434.811601	2591.148036
435.188355	2592.241966
435.565050	2591.274065
435.941683	2593.061154
436.318257	2592.650300
436.694770	2593.804724
437.071222	2594.223140
437.447614	2592.257090
437.823946	2592.572162
438.200218	2595.707759
438.576429	2593.938314
438.952580	2592.844384
439.328670	2593.625763
439.704700	2592.438571
440.080670	2593.492172
440.456580	2593.807244
440.832429	2596.630291
441.208218	2594.084508
441.583947	2595.624580
441.959616	2593.819847
442.335224	2596.630291
442.710773	2596.350507
443.086261	2598.281268
443.461689	2597.121803
443.837057	2598.707246
444.212365	2598.082143
444.587612	2598.835795
444.962800	2592.166349
445.337927	2592.970413
445.712995	2592.811617
446.088002	2598.198089
446.462949	2597.043665
446.837837	2598.641711
447.212664	2599.102977
447.587431	2598.286310
447.962139	2600.622884
448.336786	2603.254367
448.711374	2600.126331
449.085901	2599.755806
449.460369	2601.449634
449.834776	2600.748913
450.209124	2601.510127
450.583412	2601.386619
450.957640	2602.777978
451.331808	2606.165633
451.705917	2601.918461
452.079965	2602.538523
452.453954	2601.973914
452.827883	2599.113059
453.201752	2602.997268
453.575562	2605.429625
453.949311	2605.374172
454.323001	2602.457864
454.696632	2606.437855
455.070202	2606.853751
455.443713	2604.010540
455.817164	2603.924840
456.190556	2604.325612
456.563888	2606.556322
456.937160	2605.369131
457.310373	2608.363576
457.683526	2606.740325
458.056619	2607.413319
458.429653	2608.862650
458.802628	2609.757455
459.175542	2605.376692
459.548398	2609.686879
459.921194	2609.681838
460.293930	2609.233175
460.666607	2607.090685
461.039224	2611.375666
461.411782	2613.505553
461.784280	2612.635954
462.156719	2613.419853
462.529099	2615.708537
462.901419	2612.048660
463.273680	2609.525562
463.645882	2609.346601
464.018024	2608.381220
464.390106	2611.174019
464.762130	2614.710389
465.134094	2614.536469
465.505999	2621.284053
465.877845	2621.246245
466.249631	2624.981740
466.621358	2626.410907
466.993026	2626.539456
467.364634	2631.547843
467.736184	2623.101389
468.107674	2623.209774
468.479105	2625.301853
468.850477	2624.712038
469.221790	2625.125413
469.593043	2624.134826
469.964238	2624.495268
470.335373	2623.620628
470.706449	2625.649693
471.077467	2625.390073
471.448425	2628.540794
471.819324	2637.708133
472.190164	2642.313227
472.560945	2637.793832
472.931667	2631.658748
473.302330	2632.218316
473.672934	2631.197482
474.043479	2634.660755
474.413965	2635.837865
474.784393	2637.264511
475.154761	2639.336425
475.525070	2642.741725
475.895321	2641.824235
476.265513	2643.573515
476.635645	2647.709782
477.005719	2649.607776
477.375734	2650.633651
477.745691	2657.517347
478.115588	2657.716472
478.485427	2665.023625
478.855207	2670.644511
479.224928	2682.491223
479.594591	2693.241483
479.964194	2700.435210
480.333739	2704.034594
480.703226	2706.129193
481.072653	2710.860316
481.442022	2719.674774
481.811333	2731.410580
482.180584	2738.014491
482.549777	2744.988928
482.918912	2746.307189
483.287988	2759.726741
483.657005	2770.766868
484.025964	2777.648043
484.394864	2789.479631
484.763706	2797.777370
485.132489	2802.543781
485.501213	2818.541883
485.869879	2834.381188
486.238487	2853.053622
486.607036	2867.214223
486.975527	2879.794423
487.343959	2912.438414
487.712333	2928.192020
488.080648	2948.447376
488.448905	2975.079792
488.817104	2996.862618
489.185244	3043.732746
489.553326	3072.469843
489.921350	3127.209212
490.289315	3232.229050
490.657222	3326.105417
491.025070	3380.012995
491.392861	3421.713420
491.760593	3446.382306
492.128267	3462.652630
492.495883	3476.097388
492.863440	3495.218484
493.230939	3512.169364
493.598380	3575.488777
493.965763	3613.892287
494.333088	3653.251096
494.700354	3711.413408
495.067563	3780.464613
495.434713	3834.457891
495.801805	3899.050195
496.168839	3969.785146
496.535815	4041.059499
496.902733	4123.018578
497.269593	4166.294364
497.636395	4269.025517
498.003139	4348.960573
498.369825	4434.161114
498.736453	4520.483312
499.103023	4599.982308
499.469535	4692.696689
499.835989	4812.587931
500.202385	4922.384262
500.568723	4963.928410
500.935003	5069.648968
501.301226	5145.276358
501.667390	5334.296942
502.033497	5504.763560
502.399546	5546.605137
502.765537	5631.120081
503.131470	5780.234891
503.497345	5921.276293
503.863163	5913.555766
504.228923	6135.497605
504.594625	6293.799918
504.960269	6320.210523
505.325856	6543.558845
505.691385	6588.253715
506.056856	6793.622761
506.422270	6957.876156
506.787625	6994.762278
507.152924	7251.208295
507.518164	7355.003132
507.883347	7452.100797
508.248472	7519.233842
508.613540	7849.946137
508.978550	7982.276426
509.343503	8123.832026
509.708398	8343.729677
510.073236	8525.833798
510.438016	8726.481804
510.802738	8828.119027
511.167403	9042.168940
511.532010	9122.731619
511.896561	9503.215227
512.261053	9705.463798
512.625488	9795.614753
512.989866	9934.375033
513.354186	10025.100678
513.718449	10277.571745
514.082655	10538.988340
514.446803	10665.851497
514.810894	10979.295320
515.174927	10965.452311
515.538904	11156.270067
515.902822	11500.722027
516.266684	11625.921603
516.630488	11743.350241
516.994235	11934.687235
517.357925	12218.660472
517.721558	12499.205725
518.085133	12725.677041
518.448651	12879.154970
518.812112	12966.457672
519.175516	13192.871015
519.538863	13493.041479
519.902152	13552.164132
520.265385	13899.358479
520.628560	13974.527124
520.991678	14182.162169
521.354739	14400.910437
521.717743	14618.123674
522.080690	14675.134083
522.443580	15067.151850
522.806413	15228.967847
523.169189	15497.598333
523.531908	15661.271995
523.894569	15672.619633
524.257174	15881.164606
524.619722	16179.918506
524.982213	16156.285577
525.344647	16420.399188
525.707025	16639.991850
526.069345	16842.774784
526.431608	16993.646436
526.793815	17320.928226
527.155964	17086.885097
527.518057	17400.520484
527.880093	17545.312505
528.242072	17809.181620
528.603995	17798.943037
528.965860	17835.420826
529.327669	18101.782792
529.689421	18219.745792
530.051117	18255.885824
530.412755	18588.516279
530.774337	18565.211024
531.135862	18635.703999
531.497331	18930.233413
531.858743	18754.276979
532.220098	19284.379512
532.581396	19131.846799
532.942638	19321.968875
533.303824	19490.802159
533.664953	19647.546755
534.026025	19559.409742
534.387040	19840.179326
534.747999	20064.021680
535.108902	20297.805190
535.469748	20044.058711
535.830537	20334.605613
536.191270	20518.484220
536.551947	20603.125193
536.912567	20421.033675
537.273131	20774.713467
537.633638	20656.936990
537.994089	20985.100982
538.354483	20699.355779
538.714821	21218.458514
539.075103	21384.022609
539.435328	21300.410031
539.795497	21024.885768
540.155609	21477.251188
540.515665	21815.308444
540.875665	21270.944487
541.235609	21591.183785
541.595496	21681.261643
541.955328	22068.233215
542.315102	22087.704672
542.674821	21807.033390
543.034483	21782.964401
543.394090	21986.236327
543.753640	21887.752345
544.113134	22522.249613
544.472571	22262.544490
544.831953	22603.598712
545.191278	22299.012197
545.550548	22334.723731
545.909761	22566.969688
546.268918	22869.106203
546.628019	22879.440568
546.987064	22698.556407
547.346053	22539.974309
547.704986	22692.882588
548.063863	22903.396131
548.422684	22931.906377
548.781449	22599.558227
549.140158	23017.361496
549.498811	22683.425383
549.857408	22469.365388
550.215949	22942.812913
550.574434	22650.983038
550.932864	22934.164814
551.291237	23088.151899
551.649555	23009.081401
552.007817	23111.936063
552.366022	23030.806254
552.724173	23112.447740
553.082267	23068.113313
553.440305	23567.313572
553.798288	22882.603892
554.156215	23426.050359
554.514086	23534.238562
554.871902	22946.397174
555.229661	23254.509976
555.587365	23145.207678
555.945014	22998.099247
556.302606	23310.897803
556.660143	23241.637390
557.017625	23525.164485
557.375050	23097.067180
557.732421	23503.396783
558.089735	23329.018230
558.446994	23404.648141
558.804197	23445.685653
559.161345	23430.746194
559.518437	23174.285054
559.875474	23394.089444
560.232455	23581.597682
560.589381	23445.773874
560.946251	23417.878649
561.303065	23755.819959
561.659825	23855.730587
562.016528	23463.037305
562.373177	23231.718920
562.729770	23589.008178
563.086307	23484.699143
563.442789	23653.603003
563.799216	23483.141427
564.155587	23509.327700
564.511904	23501.594570
564.868164	23425.301748
565.224370	23436.364560
565.580520	23325.491943
565.936615	23484.149657
566.292654	23150.359738
566.648638	23478.851405
567.004567	23297.377428
567.360441	23257.869905
567.716260	22983.800015
568.072023	23316.400222
568.427732	23082.079829
568.783385	22871.583930
569.138982	23113.488738
569.494525	23153.949039
569.850013	22895.287435
570.205445	22999.777952
570.560823	22803.513230
570.916145	22584.742276
571.271412	22757.326178
571.626625	22506.400225
571.981782	22630.251293
572.336884	22437.038989
572.691931	22563.385428
573.046923	22300.968164
573.401860	22190.458510
573.756743	22180.051048
574.111570	22114.175770
574.466342	22049.117159
574.821059	22144.218527
575.175722	21845.091581
575.530330	21827.223211
575.884882	21859.368129
576.239380	21768.029983
576.593823	21657.260709
576.948211	21638.623563
577.302544	21484.094554
577.656823	21349.316785
578.011047	21455.425512
578.365216	21330.346923
578.719330	21211.496680
579.073389	21126.651541
579.427394	21255.694997
579.781344	21052.783513
580.135239	20937.376378
580.489080	20918.403996
580.842866	20670.112045
581.196597	20849.282215
581.550273	20839.424238
581.903895	20738.855740
582.257463	21055.374666
582.610975	20572.359031
582.964434	20873.333560
583.317837	20593.403328
583.671186	20678.223262
584.024481	20649.954992
584.377721	20426.548697
584.730906	20466.809873
585.084037	20509.614310
585.437113	20404.604555
585.790135	20607.004361
586.143103	20090.649055
586.496016	20091.649724
586.848874	20339.951757
587.201679	20290.087183
587.554428	19941.027609
587.907124	20274.179822
588.259765	20064.379602
588.612352	20133.256887
588.964884	19707.256702
589.317362	19885.965606
589.669786	19934.166598
590.022155	19990.690536
590.374470	20148.685338
590.726731	19968.514500
591.078937	19702.139931
591.431090	19817.405913
591.783188	19554.781963
592.135232	19540.427277
592.487222	19635.367328
592.839157	19663.383540
593.191038	19542.179078
593.542866	19436.239230
593.894639	19163.835441
594.246358	19377.817298
594.598022	19287.875552
594.949633	19040.095278
595.301190	19002.198404
595.652692	19163.180091
596.004141	19408.160003
596.355535	18744.260206
596.706876	18757.926774
597.058162	18628.961456
597.409395	18862.722280
597.760573	18947.932904
598.111698	18733.623372
598.462768	18658.542947
598.813785	18630.083113
599.164748	18453.375547
599.515657	18480.305391
599.866511	18273.257641
600.217312	18636.180388
600.568060	18169.876178
600.918753	18471.163258
601.269392	18381.425679
601.619978	18149.283065
601.970510	18376.134988
602.320988	18311.847673
602.671412	18522.222585
603.021783	18413.658816
603.372100	18160.033325
603.722363	18294.246485
604.072572	18238.841683
604.422728	18362.589407
604.772830	18131.081979
605.122878	18075.304132
605.472872	18075.036951
605.822813	18060.052121
606.172701	18015.276593
606.522534	18229.029077
606.872314	18244.777642
607.222041	18070.683914
607.571714	18291.965362
607.921333	18122.708622
608.270899	18190.605403
608.620411	18393.214417
608.969870	18147.438002
609.319276	18159.541813
609.668627	18179.023352
610.017926	18315.782294
610.367171	18429.782947
610.716362	18469.504719
611.065500	18293.384447
611.414585	18416.812058
611.763616	18412.169155
612.112594	18366.196353
612.461518	18330.686465
612.810389	18528.193832
613.159207	18368.815232
613.507971	18276.824257
613.856682	18558.234068
614.205340	18499.013113
614.553945	18643.671543
614.902496	18367.257516
615.250994	18623.622874
615.599439	18552.734169
615.947830	18548.403817
616.296169	18575.152180
616.644454	18555.743738
616.992686	18533.822280
617.340864	18738.788034
617.688990	18496.235437
618.037063	18678.175720
618.385082	18523.931536
618.733048	18806.967119
619.080961	18662.240633
619.428821	18706.544814
619.776628	18599.873998
620.124382	18517.123458
620.472083	18549.936328
620.819731	18582.386236
621.167326	18285.956307
621.514868	18319.109455
621.862357	18067.772648
622.209793	18090.682172
622.557176	17925.730577
622.904506	17749.617867
623.251783	17650.612126
623.599007	17434.727233
623.946179	17385.417187
624.293297	17310.828275
624.640363	17079.527533
624.987376	17091.724605
625.334336	16877.115124
625.681243	16729.129532
626.028097	16736.668578
626.374899	16671.448650
626.721647	16541.200358
627.068343	16368.089656
627.414987	16297.493337
627.761577	16284.572860
628.108115	16324.571895
628.454600	16038.194027
628.801032	16144.370810
629.147412	16064.617235
629.493739	16085.240596
629.840014	15897.041720
630.186236	15994.192316
630.532405	15759.203971
630.878521	15962.478417
631.224585	15853.521438
631.570597	15675.188101
631.916556	15702.841350
632.262462	15691.972622
632.608316	15615.447907
632.954117	15546.961311
633.299866	15545.141455
633.645562	15473.703264
633.991206	15216.569129
634.336797	15084.664818
634.682336	15064.843002
635.027823	14958.058760
635.373257	14836.682899
635.718639	14724.582761
636.063968	14689.168655
636.409245	14445.721254
636.754470	14468.804697
637.099642	14314.348784
637.444762	14070.404829
637.789829	14125.313077
638.134845	13961.641935
638.479808	13987.016583
638.824719	13948.189616
639.169577	13795.480463
