Dividing Wavelength (nm)	Counts (n)	Blue Motor Position (mm): 21.500000	Red Motor Position (mm): 0.000000	
326.493990	2187.767508
326.888308	2187.767508
327.282561	2187.767508
327.676750	2149.530356
328.070874	2144.763945
328.464933	2145.895684
328.858929	2147.909625
329.252859	2152.968423
329.646726	2161.750113
330.040528	2174.660508
330.434265	2187.034020
330.827938	2208.655529
331.221547	2222.828733
331.615091	2240.813049
332.008571	2259.939187
332.401986	2278.830911
332.795338	2296.540484
333.188625	2313.120839
333.581847	2333.061123
333.975006	2351.655419
334.368100	2369.672503
334.761129	2390.263096
335.154095	2404.151475
335.546996	2431.093922
335.939833	2462.457460
336.332606	2476.013123
336.725315	2492.167501
337.117960	2501.682678
337.510540	2513.098371
337.903056	2524.808972
338.295508	2532.746268
338.687896	2542.372352
339.080220	2549.853424
339.472480	2557.213509
339.864676	2561.526216
340.256807	2570.186918
340.648875	2569.929819
341.040879	2570.998544
341.432818	2575.664132
341.824694	2581.617734
342.216506	2583.130081
342.608253	2581.474062
342.999937	2584.271902
343.391557	2583.046902
343.783113	2580.725450
344.174605	2578.182188
344.566033	2580.637230
344.957397	2579.462641
345.348697	2576.967270
345.739934	2575.374265
346.131106	2573.788822
346.522215	2571.714388
346.913260	2571.452248
347.304241	2569.743297
347.695159	2567.726835
348.086012	2567.810014
348.476802	2564.150136
348.867528	2559.224929
349.258191	2554.133364
349.648789	2557.084959
350.039324	2550.418033
350.429796	2556.900957
350.820203	2554.859290
351.210548	2550.120605
351.600828	2550.639844
351.991045	2553.886347
352.381198	2547.579864
352.771288	2549.659340
353.161314	2548.348640
353.551276	2548.930893
353.941175	2548.353681
354.331010	2546.518701
354.720782	2546.032229
355.110490	2546.433001
355.500135	2544.910573
355.889717	2548.457024
356.279235	2547.189174
356.668689	2546.606921
357.058080	2542.558874
357.447408	2546.707744
357.836672	2548.474668
358.225873	2548.381407
358.615010	2548.081458
359.004084	2549.306459
359.393095	2549.152704
359.782043	2550.864175
360.170927	2550.612118
360.559748	2552.552962
360.948505	2550.778476
361.337199	2555.358364
361.725830	2551.350647
362.114398	2553.001625
362.502903	2552.986501
362.891344	2552.794937
363.279722	2552.305945
363.668037	2555.587737
364.056289	2552.487427
364.444478	2557.170659
364.832603	2556.651420
365.220665	2555.640669
365.608665	2556.419527
365.996601	2558.468756
366.384474	2558.917419
366.772284	2559.262738
367.160031	2558.453632
367.547715	2559.993705
367.935336	2559.832388
368.322893	2556.691749
368.710388	2557.090000
369.097820	2556.376677
369.485189	2556.303580
369.872495	2560.369271
370.259738	2560.681822
370.646918	2562.599982
371.034035	2561.337172
371.421090	2562.269786
371.808081	2561.576627
372.195010	2564.354303
372.581875	2564.288768
372.968678	2562.433623
373.355418	2562.887327
373.742096	2564.124931
374.128710	2563.134344
374.515262	2563.983778
374.901751	2560.628890
375.288177	2565.135682
375.674540	2565.594427
376.060841	2563.948490
376.447079	2563.966134
376.833254	2564.951680
377.219367	2562.942780
377.605417	2565.425548
377.991404	2563.003274
378.377329	2567.421845
378.763191	2565.468398
379.148991	2566.088460
379.534727	2564.808007
379.920402	2567.086608
380.306013	2566.567370
380.691563	2568.334294
381.077049	2565.294478
381.462474	2567.368913
381.847835	2568.452761
382.233134	2570.381003
382.618371	2568.432597
383.003545	2568.636763
383.388657	2571.968966
383.773706	2570.549881
384.158693	2568.777916
384.543618	2569.413101
384.928480	2569.541650
385.313280	2571.096846
385.698017	2569.927299
386.082692	2572.236147
386.467305	2571.500139
386.851856	2575.175140
387.236344	2573.264542
387.620770	2568.966959
388.005133	2569.322360
388.389435	2569.067782
388.773674	2566.068295
389.157851	2571.913513
389.541965	2571.101887
389.926018	2575.127249
390.310008	2572.568863
390.693936	2575.011302
391.077802	2576.236303
391.461606	2576.662280
391.845348	2575.031467
392.229027	2576.589183
392.612645	2574.537434
392.996200	2576.054821
393.379694	2574.028277
393.763125	2577.365521
394.146494	2574.502146
394.529801	2574.575242
394.913047	2574.058524
395.296230	2577.975501
395.679351	2581.201839
396.062410	2574.913000
396.445408	2577.511715
396.828343	2577.796540
397.211217	2577.536920
397.594028	2576.861406
397.976778	2578.225038
398.359466	2577.960377
398.742092	2578.908114
399.124656	2579.681931
399.507158	2579.276118
399.889598	2580.007086
400.271977	2576.730336
400.654294	2579.770152
401.036549	2579.848289
401.418742	2581.443815
401.800874	2580.697724
402.182944	2580.879205
402.564952	2583.510688
402.946898	2581.779051
403.328783	2582.326017
403.710606	2581.892477
404.092367	2583.175451
404.474067	2581.269895
404.855705	2584.408013
405.237282	2584.380287
405.618797	2580.927096
406.000250	2583.309042
406.381642	2581.211922
406.762972	2579.412230
407.144240	2579.634040
407.525447	2582.164700
407.906593	2580.536407
408.287677	2582.648650
408.668700	2584.047571
409.049661	2586.540421
409.430560	2584.042529
409.811399	2586.595874
410.192176	2586.575709
410.572891	2586.134608
410.953545	2586.227870
411.334138	2585.806933
411.714669	2586.293405
412.095139	2585.249886
412.475547	2587.352047
412.855894	2586.336254
413.236180	2586.873137
413.616405	2587.785586
413.996568	2589.489496
414.376670	2587.301635
414.756711	2587.289032
415.136691	2587.999835
415.516609	2587.316759
415.896466	2589.640731
416.276262	2589.040833
416.655997	2588.471183
417.035670	2585.131419
417.415283	2590.563262
417.794834	2588.912284
418.174324	2589.013107
418.553753	2588.067891
418.933121	2591.959662
419.312428	2588.561924
419.691674	2590.192737
420.070859	2589.365988
420.449983	2593.608119
420.829045	2590.419589
421.208047	2590.878334
421.586988	2590.578385
421.965867	2593.386308
422.344686	2592.562079
422.723444	2591.052254
423.102141	2593.862697
423.480777	2591.790783
423.859352	2591.092583
424.237866	2593.141812
424.616319	2591.921853
424.994712	2594.323963
425.373044	2592.904878
425.751314	2590.764908
426.129524	2589.814651
426.507673	2591.647110
426.885762	2591.183324
427.263789	2595.067533
427.641756	2592.138622
428.019662	2593.247676
428.397508	2595.238932
428.775292	2595.347317
429.153016	2595.473346
429.530679	2596.259766
429.908282	2596.763881
430.285824	2595.969899
430.663305	2596.284972
431.040726	2594.797831
431.418086	2594.639035
431.795385	2599.017277
432.172624	2598.845878
432.549802	2596.708428
432.926920	2597.333532
433.303977	2598.548450
433.680974	2598.437544
434.057910	2597.109200
434.434786	2599.266814
434.811601	2598.460229
435.188355	2598.644232
435.565050	2597.681371
435.941683	2596.186669
436.318257	2597.532657
436.694770	2602.162957
437.071222	2598.238419
437.447614	2598.964345
437.823946	2599.478543
438.200218	2601.089191
438.576429	2598.742534
438.952580	2600.867380
439.328670	2601.462237
439.704700	2600.832092
440.080670	2600.655652
440.456580	2600.625405
440.832429	2599.660024
441.208218	2603.861826
441.583947	2599.375199
441.959616	2601.568101
442.335224	2604.756631
442.710773	2603.193873
443.086261	2606.011878
443.461689	2601.368975
443.837057	2604.539861
444.212365	2602.974583
444.587612	2600.184304
444.962800	2601.850405
445.337927	2602.102463
445.712995	2599.561722
446.088002	2604.973400
446.462949	2605.497680
446.837837	2602.546085
447.212664	2605.563215
447.587431	2607.057917
447.962139	2604.938112
448.336786	2609.533124
448.711374	2609.679317
449.085901	2607.836776
449.460369	2607.723350
449.834776	2608.479523
450.209124	2609.228134
450.583412	2609.419698
450.957640	2610.044801
451.331808	2611.451283
451.705917	2608.459358
452.079965	2608.308123
452.453954	2610.443052
452.827883	2610.813577
453.201752	2607.544389
453.575562	2611.554627
453.949311	2608.688731
454.323001	2610.488423
454.696632	2613.024123
455.070202	2606.745366
455.443713	2614.206273
455.817164	2613.452621
456.190556	2611.960439
456.563888	2612.419184
456.937160	2616.263064
457.310373	2613.666870
457.683526	2615.068311
458.056619	2615.088475
458.429653	2614.508743
458.802628	2616.315996
459.175542	2614.395317
459.548398	2619.655761
459.921194	2618.992849
460.293930	2618.942437
460.666607	2621.183230
461.039224	2623.844960
461.411782	2624.321349
461.784280	2624.986781
462.156719	2624.391925
462.529099	2624.767491
462.901419	2624.729682
463.273680	2621.231121
463.645882	2624.991822
464.018024	2621.183230
464.390106	2622.108282
464.762130	2628.893675
465.134094	2627.512399
465.505999	2629.569190
465.877845	2640.574029
466.249631	2643.954122
466.621358	2646.857827
466.993026	2648.443270
467.364634	2648.806233
467.736184	2644.216262
468.107674	2643.676859
468.479105	2644.599390
468.850477	2645.592497
469.221790	2644.929586
469.593043	2647.417395
469.964238	2648.962509
470.335373	2650.505102
470.706449	2650.479896
471.077467	2651.989722
471.448425	2661.542708
471.819324	2676.472085
472.190164	2686.171265
472.560945	2679.736232
472.931667	2673.833041
473.302330	2677.853361
473.672934	2679.509380
474.043479	2683.698579
474.413965	2691.242666
474.784393	2697.725590
475.154761	2706.106508
475.525070	2711.286294
475.895321	2716.093034
476.265513	2728.209447
476.635645	2740.393916
477.005719	2750.463621
477.375734	2758.990732
477.745691	2773.552105
478.115588	2794.621608
478.485427	2812.434525
478.855207	2843.535924
479.224928	2892.898902
479.594591	2951.814867
479.964194	2972.329843
480.333739	2990.808192
480.703226	3004.799915
481.072653	3035.331663
481.442022	3082.257243
481.811333	3142.262098
482.180584	3175.412725
482.549777	3189.144828
482.918912	3219.716906
483.287988	3275.635905
483.657005	3317.633758
484.025964	3355.969212
484.394864	3400.230543
484.763706	3434.432251
485.132489	3478.194508
485.501213	3534.821789
485.869879	3600.167746
486.238487	3648.280518
486.607036	3732.709763
486.975527	3776.472019
487.343959	3867.432078
487.712333	3947.649439
488.080648	3996.644413
488.448905	4114.373000
488.817104	4174.350128
489.185244	4317.891942
489.553326	4416.063372
489.921350	4582.353393
490.289315	4927.821146
490.657222	5234.048557
491.025070	5393.936313
491.392861	5494.474565
491.760593	5527.045460
492.128267	5561.920162
492.495883	5545.997677
492.863440	5574.265948
493.230939	5585.011167
493.598380	5700.962747
493.965763	5761.985914
494.333088	5827.873795
494.700354	5948.064985
495.067563	6073.738430
495.434713	6175.587381
495.801805	6287.291789
496.168839	6436.872906
496.535815	6548.206788
496.902733	6711.414144
497.269593	6763.655622
497.636395	6969.538865
498.003139	7101.168433
498.369825	7230.214410
498.736453	7396.121304
499.103023	7508.145824
499.469535	7674.579519
499.835989	7882.196919
500.202385	8070.778923
500.568723	8108.320396
500.935003	8287.954351
501.301226	8382.806181
501.667390	8723.091628
502.033497	9014.160289
502.399546	9059.830622
502.765537	9157.477772
503.131470	9409.033870
503.497345	9634.985947
503.863163	9556.033916
504.228923	9931.430999
504.594625	10177.209934
504.960269	10171.465539
505.325856	10533.858966
505.691385	10532.404593
506.056856	10891.793492
506.422270	11107.365833
506.787625	11084.776423
507.152924	11481.449695
507.518164	11638.211936
507.883347	11733.948489
508.248472	11783.777774
508.613540	12299.044191
508.978550	12440.428392
509.343503	12615.421965
509.708398	12947.187861
510.073236	13189.017052
510.438016	13467.702119
510.802738	13557.290985
511.167403	13840.603831
511.532010	13886.387590
511.896561	14472.041118
512.261053	14690.000446
512.625488	14774.464978
512.989866	14908.786522
513.354186	15000.578372
513.718449	15283.785354
514.082655	15645.505787
514.446803	15729.786317
514.810894	16176.692167
515.174927	16049.579473
515.538904	16261.539828
515.902822	16717.562605
516.266684	16801.293650
516.630488	16900.133032
516.994235	17095.296263
517.357925	17452.308257
517.721558	17776.830016
518.085133	18018.487807
518.448651	18164.086413
518.812112	18162.967277
519.175516	18435.502136
519.538863	18768.656870
519.902152	18766.126211
520.265385	19186.629018
520.628560	19187.057516
520.991678	19381.774604
521.354739	19594.145812
521.717743	19812.337033
522.080690	19812.183278
522.443580	20250.209136
522.806413	20378.090606
523.169189	20642.441152
523.531908	20798.921088
523.894569	20684.524704
524.257174	20884.166999
524.619722	21190.888443
524.982213	21079.897359
525.344647	21311.734983
525.707025	21503.329077
526.069345	21663.244559
526.431608	21770.795056
526.793815	22071.956107
527.155964	21698.804858
527.518057	21979.183753
527.880093	22066.632648
528.242072	22329.780879
528.603995	22213.426007
528.965860	22160.294766
529.327669	22357.355991
529.689421	22420.204056
530.051117	22383.201987
530.412755	22672.017252
530.774337	22572.517478
531.135862	22555.952247
531.497331	22834.428106
531.858743	22507.514320
532.220098	23056.188463
532.581396	22811.742913
532.942638	22894.984966
533.303824	23030.090410
533.664953	23155.965501
534.026025	22922.565119
534.387040	23192.365152
534.747999	23361.019475
535.108902	23569.612338
535.469748	23153.795284
535.830537	23416.305809
536.191270	23570.171907
536.551947	23552.210275
536.912567	23292.754690
537.273131	23612.361323
537.633638	23401.373911
537.994089	23672.262834
538.354483	23291.811994
538.714821	23797.220435
539.075103	23898.739191
539.435328	23730.430187
539.795497	23349.946580
540.155609	23792.610299
540.515665	24114.999650
540.875665	23422.453496
541.235609	23710.038720
541.595496	23735.488985
541.955328	24113.991419
542.315102	24056.507142
542.674821	23682.700543
543.034483	23585.184463
543.394090	23773.290077
543.753640	23589.640843
544.113134	24226.812442
544.472571	23868.368759
544.831953	24173.802189
545.191278	23802.009531
545.550548	23768.803450
545.909761	23997.490353
546.268918	24241.167128
546.628019	24204.379307
546.987064	23940.784934
547.346053	23737.162648
547.704986	23869.346743
548.063863	24044.239494
548.422684	24035.808164
548.781449	23629.788592
549.140158	24028.369941
549.498811	23628.626606
549.857408	23371.875599
550.215949	23820.651718
550.574434	23490.322550
550.932864	23735.249530
551.291237	23880.908630
551.649555	23764.226083
552.007817	23820.964269
552.366022	23716.105749
552.724173	23753.697633
553.082267	23701.347771
553.440305	24172.718341
553.798288	23461.335916
554.156215	23993.701926
554.514086	24075.280398
554.871902	23441.972844
555.229661	23743.930397
555.587365	23604.272792
555.945014	23436.979581
556.302606	23725.956163
556.660143	23646.749554
557.017625	23923.163581
557.375050	23466.467810
557.732421	23868.761969
558.089735	23668.814684
558.446994	23732.834818
558.804197	23748.540533
559.161345	23713.098700
559.518437	23452.634884
559.875474	23670.490868
560.232455	23836.327186
560.589381	23685.148023
560.946251	23645.481704
561.303065	23978.979237
561.659825	24058.165681
562.016528	23677.893802
562.373177	23412.935797
562.729770	23755.041100
563.086307	23650.066633
563.442789	23813.778104
563.799216	23637.977946
564.155587	23656.756244
564.511904	23642.693946
564.868164	23560.734867
565.224370	23562.509353
565.580520	23447.762609
565.936615	23596.443880
566.292654	23255.510645
566.648638	23576.024686
567.004567	23401.668819
567.360441	23365.553992
567.716260	23076.035486
568.072023	23405.938676
568.427732	23165.619310
568.783385	22959.330254
569.138982	23189.552188
569.494525	23233.536256
569.850013	22965.341830
570.205445	23080.673348
570.560823	22874.573334
570.916145	22643.300319
571.271412	22813.056134
571.626625	22585.047266
571.981782	22678.306092
572.336884	22492.048060
572.691931	22618.419704
573.046923	22361.809850
573.401860	22252.116863
573.756743	22249.195514
574.111570	22155.425012
574.466342	22099.722782
574.821059	22192.827853
575.175722	21884.556254
575.530330	21877.375130
575.884882	21902.059140
576.239380	21804.283441
576.593823	21699.059436
576.948211	21678.579749
577.302544	21522.034278
577.656823	21398.158004
578.011047	21496.452943
578.365216	21368.667254
578.719330	21242.885425
579.073389	21157.357209
579.427394	21299.593364
579.781344	21084.389027
580.135239	20970.461471
580.489080	20932.216757
580.842866	20698.032476
581.196597	20871.735514
581.550273	20868.289885
581.903895	20763.822054
582.257463	21073.888304
582.610975	20602.926067
582.964434	20902.698281
583.317837	20628.731734
583.671186	20707.270390
584.024481	20672.453661
584.377721	20466.958587
584.730906	20506.329998
585.084037	20545.227541
585.437113	20444.076789
585.790135	20645.289404
586.143103	20112.232755
586.496016	20124.815475
586.848874	20366.364882
587.201679	20306.357507
587.554428	19981.271140
587.907124	20294.616660
588.259765	20092.161401
588.612352	20159.460805
588.964884	19742.348174
589.317362	19906.548637
589.669786	19956.100659
590.022155	20012.788434
590.374470	20177.719864
590.726731	19990.128447
591.078937	19737.506146
591.431090	19844.418936
591.783188	19588.744216
592.135232	19569.101360
592.487222	19662.773560
592.839157	19698.568273
593.191038	19578.490509
593.542866	19471.638212
593.894639	19186.510551
594.246358	19401.777902
594.598022	19309.345826
594.949633	19079.270085
595.301190	19023.482156
595.652692	19185.283030
596.004141	19435.535989
596.355535	18759.943236
596.706876	18777.889743
597.058162	18667.193567
597.409395	18886.894613
597.760573	18970.837386
598.111698	18754.642463
598.462768	18690.773564
598.813785	18643.270771
599.164748	18483.965268
599.515657	18498.168719
599.866511	18293.530641
600.217312	18655.583789
600.568060	18196.753090
600.918753	18504.651643
601.269392	18406.114730
601.619978	18170.629831
601.970510	18389.216782
602.320988	18328.876691
602.671412	18543.597077
603.021783	18432.038863
603.372100	18185.246656
603.722363	18311.252817
604.072572	18251.363909
604.422728	18383.432058
604.772830	18153.290782
605.122878	18091.576977
605.472872	18089.300896
605.822813	18087.503724
606.172701	18035.055560
606.522534	18243.736644
606.872314	18274.124719
607.222041	18106.682794
607.571714	18314.098548
607.921333	18141.910377
608.270899	18221.109425
608.620411	18415.493796
608.969870	18163.652874
609.319276	18171.806940
609.668627	18203.840952
610.017926	18342.018979
610.367171	18449.551832
610.716362	18496.459768
611.065500	18322.635743
611.414585	18444.858518
611.763616	18435.600438
612.112594	18382.459115
612.461518	18347.236573
612.810389	18538.240851
613.159207	18394.484788
613.507971	18301.208318
613.856682	18586.330938
614.205340	18516.137912
614.553945	18651.349220
614.902496	18398.565602
615.250994	18650.976175
615.599439	18590.605837
615.947830	18563.209686
616.296169	18612.189537
616.644454	18585.020238
616.992686	18548.360968
617.340864	18763.139327
617.688990	18528.186270
618.037063	18696.734728
618.385082	18541.928455
618.733048	18826.783895
619.080961	18681.321400
619.428821	18733.303258
619.776628	18617.631463
620.124382	18541.363846
620.472083	18575.494978
620.819731	18607.541593
621.167326	18301.785530
621.514868	18333.428853
621.862357	18096.073686
622.209793	18116.462632
622.557176	17948.718238
622.904506	17776.502341
623.251783	17682.862908
623.599007	17447.236857
623.946179	17398.519146
624.293297	17338.489086
624.640363	17097.373218
624.987376	17105.570134
625.334336	16902.978764
625.681243	16749.336997
626.028097	16759.331085
626.374899	16688.719643
626.721647	16557.969756
627.068343	16388.037501
627.414987	16306.827033
627.761577	16289.944209
628.108115	16343.839185
628.454600	16054.595421
628.801032	16159.945454
629.147412	16092.325937
629.493739	16110.380830
629.840014	15921.627427
630.186236	16023.867068
630.532405	15777.407577
630.878521	15982.590100
631.224585	15866.827564
631.570597	15694.344485
631.916556	15733.690691
632.262462	15709.140272
632.608316	15630.533560
632.954117	15567.894703
633.299866	15560.791717
633.645562	15495.188661
633.991206	15242.342028
634.336797	15111.060300
634.682336	15075.910855
635.027823	14969.439165
635.373257	14857.018914
635.718639	14740.195214
636.063968	14702.235326
636.409245	14458.122492
636.754470	14484.122243
637.099642	14325.850177
637.444762	14099.469602
637.789829	14135.985200
638.134845	13981.544410
638.479808	14000.065610
638.824719	13960.605978
