Dividing Wavelength (nm)	Counts (n)	Blue Motor Position (mm): 28.000000	Red Motor Position (mm): 0.000000	
326.493990	2208.784078
326.888308	2208.784078
327.282561	2208.784078
327.676750	2166.813952
328.070874	2163.567449
328.464933	2164.069044
328.858929	2169.004333
329.252859	2172.772596
329.646726	2181.327434
330.040528	2193.451409
330.434265	2205.784592
330.827938	2226.977603
331.221547	2241.062586
331.615091	2259.787952
332.008571	2280.522218
332.401986	2297.722635
332.795338	2315.172589
333.188625	2333.582883
333.581847	2351.657940
333.975006	2369.599407
334.368100	2391.956924
334.761129	2411.186405
335.154095	2426.952614
335.546996	2451.122426
335.939833	2488.724392
336.332606	2504.049500
336.725315	2514.971160
337.117960	2529.900537
337.510540	2540.915458
337.903056	2554.962633
338.295508	2560.092008
338.687896	2571.606003
339.080220	2576.657239
339.472480	2581.814339
339.864676	2587.289032
340.256807	2595.475866
340.648875	2600.325456
341.040879	2602.906527
341.432818	2605.744697
341.824694	2607.564553
342.216506	2609.200408
342.608253	2608.204780
342.999937	2609.767537
343.391557	2608.991200
343.783113	2609.013885
344.174605	2605.769902
344.566033	2607.017588
344.957397	2608.108998
345.348697	2603.874429
345.739934	2600.942998
346.131106	2601.084150
346.522215	2598.039293
346.913260	2598.245980
347.304241	2592.539394
347.695159	2594.089549
348.086012	2592.337748
348.476802	2589.676019
348.867528	2585.461614
349.258191	2582.008424
349.648789	2580.874164
350.039324	2579.452559
350.429796	2582.205029
350.820203	2582.061356
351.210548	2581.342992
351.600828	2580.228897
351.991045	2576.672362
352.381198	2576.460634
352.771288	2577.869637
353.161314	2575.447362
353.551276	2576.294276
353.941175	2573.332598
354.331010	2574.169430
354.720782	2573.088102
355.110490	2576.334605
355.500135	2574.905438
355.889717	2576.558937
356.279235	2575.291086
356.668689	2574.466858
357.058080	2573.599779
357.447408	2574.953329
357.836672	2577.279822
358.225873	2573.050293
358.615010	2577.194122
359.004084	2577.168916
359.393095	2575.840572
359.782043	2578.777044
360.170927	2576.453072
360.559748	2580.859041
360.948505	2578.083886
361.337199	2579.679411
361.725830	2578.393917
362.114398	2577.577250
362.502903	2582.759556
362.891344	2582.807447
363.279722	2579.719740
363.668037	2582.167220
364.056289	2582.769638
364.444478	2583.220821
364.832603	2585.209557
365.220665	2586.555545
365.608665	2584.181161
365.996601	2584.019844
366.384474	2583.107395
366.772284	2585.088569
367.160031	2584.778538
367.547715	2588.193920
367.935336	2588.130905
368.322893	2583.384659
368.710388	2583.601428
369.097820	2586.114444
369.485189	2584.415575
369.872495	2589.746595
370.259738	2587.362129
370.646918	2589.184506
371.034035	2590.129723
371.421090	2588.120823
371.808081	2588.970257
372.195010	2589.688622
372.581875	2591.085021
372.968678	2589.159301
373.355418	2589.280288
373.742096	2591.989908
374.128710	2593.580392
374.515262	2592.776328
374.901751	2591.642069
375.288177	2592.141143
375.674540	2593.882862
376.060841	2591.919332
376.447079	2594.059302
376.833254	2593.963520
377.219367	2594.843202
377.605417	2593.678695
377.991404	2595.622060
378.377329	2594.238263
378.763191	2596.600044
379.148991	2594.707090
379.534727	2597.167173
379.920402	2593.625763
380.306013	2596.539550
380.691563	2596.983171
381.077049	2597.010898
381.462474	2595.536360
381.847835	2598.523244
382.233134	2597.129365
382.618371	2594.747420
383.003545	2596.564756
383.388657	2598.684561
383.773706	2600.693461
384.158693	2601.162288
384.543618	2598.124993
384.928480	2602.004161
385.313280	2600.897627
385.698017	2599.360075
386.082692	2602.064654
386.467305	2600.887545
386.851856	2602.818307
387.236344	2599.796135
387.620770	2599.100456
388.005133	2599.218923
388.389435	2600.413677
388.773674	2600.063316
389.157851	2601.505086
389.541965	2603.748400
389.926018	2603.448451
390.310008	2602.997268
390.693936	2605.658997
391.077802	2603.909717
391.461606	2606.289141
391.845348	2607.015068
392.229027	2606.137907
392.612645	2604.426435
392.996200	2604.123966
393.379694	2608.232506
393.763125	2607.801487
394.146494	2606.382403
394.529801	2609.185284
394.913047	2608.277877
395.296230	2606.246292
395.679351	2608.494646
396.062410	2611.153855
396.445408	2609.200408
396.828343	2607.357866
397.211217	2609.497836
397.594028	2609.207969
397.976778	2612.565378
398.359466	2610.024636
398.742092	2609.906169
399.124656	2606.684872
399.507158	2613.140069
399.889598	2613.797940
400.271977	2613.687035
400.654294	2611.534462
401.036549	2612.348608
401.418742	2608.940788
401.800874	2613.114864
402.182944	2613.114864
402.564952	2610.445573
402.946898	2614.851541
403.328783	2614.980091
403.710606	2614.549072
404.092367	2614.811212
404.474067	2613.245934
404.855705	2616.812550
405.237282	2615.393465
405.618797	2613.624020
406.000250	2618.035030
406.381642	2615.209463
406.762972	2614.707868
407.144240	2611.889863
407.525447	2614.738115
407.906593	2614.211315
408.287677	2616.827673
408.668700	2616.913373
409.049661	2620.172479
409.430560	2622.123406
409.811399	2620.525360
410.192176	2620.379166
410.572891	2621.193313
410.953545	2620.500154
411.334138	2621.568879
411.714669	2622.302367
412.095139	2623.209774
412.475547	2621.768004
412.855894	2621.435288
413.236180	2622.161214
413.616405	2621.362191
413.996568	2620.527880
414.376670	2622.002418
414.756711	2623.928139
415.136691	2625.019548
415.516609	2625.463170
415.896466	2625.077522
416.276262	2624.069291
416.655997	2627.260341
417.035670	2628.495424
417.415283	2629.039869
417.794834	2626.141205
418.174324	2628.152626
418.553753	2629.692698
418.933121	2630.375774
419.312428	2630.837040
419.691674	2633.014818
420.070859	2633.070271
420.449983	2633.728142
420.829045	2632.634211
421.208047	2633.745786
421.586988	2632.298975
421.965867	2634.212092
422.344686	2633.478605
422.723444	2637.650159
423.102141	2635.651342
423.480777	2635.863070
423.859352	2634.756537
424.237866	2640.949595
424.616319	2639.384316
424.994712	2640.503452
425.373044	2637.829120
425.751314	2637.698050
426.129524	2636.352062
426.507673	2639.901035
426.885762	2637.685447
427.263789	2643.208032
427.641756	2645.882364
428.019662	2643.626447
428.397508	2644.768269
428.775292	2647.576191
429.153016	2649.370842
429.530679	2648.244144
429.908282	2649.759011
430.285824	2651.914104
430.663305	2653.834784
431.040726	2654.704383
431.418086	2654.422078
431.795385	2656.778818
432.172624	2657.051040
432.549802	2661.940959
432.926920	2665.684016
433.303977	2668.645694
433.680974	2673.752383
434.057910	2679.859741
434.434786	2684.805112
434.811601	2691.325845
435.188355	2704.490818
435.565050	2711.137580
435.941683	2717.113867
436.318257	2735.125910
436.694770	2750.204001
437.071222	2764.609098
437.447614	2780.032509
437.823946	2797.298461
438.200218	2819.648416
438.576429	2835.868329
438.952580	2873.896273
439.328670	2903.094636
439.704700	2924.244797
440.080670	2962.000518
440.456580	3021.276926
440.832429	3054.603994
441.208218	3072.016139
441.583947	3138.173722
441.959616	3196.278061
442.335224	3237.373547
442.710773	3304.226809
443.086261	3383.874519
443.461689	3383.214128
443.837057	3510.404960
444.212365	3611.132255
444.587612	3648.681290
444.962800	3754.180037
445.337927	3805.690547
445.712995	3827.496058
446.088002	4075.611568
446.462949	4109.346969
446.837837	4194.476934
447.212664	4294.405206
447.587431	4493.240917
447.962139	4749.906224
448.336786	5361.554461
448.711374	5671.114075
449.085901	5270.738075
449.460369	5262.427732
449.834776	5247.697481
450.209124	5612.152739
450.583412	5866.655391
450.957640	6309.233411
451.331808	6196.913983
451.705917	5997.087685
452.079965	5883.565942
452.453954	6347.107600
452.827883	6331.583367
453.201752	6582.935297
453.575562	6530.713985
453.949311	6823.544529
454.323001	6937.159534
454.696632	7177.657861
455.070202	7450.381763
455.443713	7706.852986
455.817164	8083.883402
456.190556	8231.997543
456.563888	8572.671159
456.937160	8816.068149
457.310373	8617.953323
457.683526	8801.242115
458.056619	8701.686888
458.429653	8919.941124
458.802628	8761.646372
459.175542	9095.567362
459.548398	9799.748499
459.921194	10159.636472
460.293930	10315.972735
460.666607	11032.169462
461.039224	11826.189001
461.411782	12467.040643
461.784280	12605.251437
462.156719	12833.582939
462.529099	12781.278447
462.901419	12178.759739
463.273680	12183.243846
463.645882	12215.320708
464.018024	12138.233904
464.390106	12443.584154
464.762130	13180.253007
465.134094	13839.134335
465.505999	15404.208437
465.877845	18074.931087
466.249631	20580.699620
466.621358	20651.578243
466.993026	19721.495441
467.364634	19474.481423
467.736184	18434.244368
468.107674	17850.687961
468.479105	18080.322601
468.850477	17735.298470
469.221790	17474.194427
469.593043	16987.289541
469.964238	16617.291534
470.335373	16407.725728
470.706449	16850.447420
471.077467	16503.174935
471.448425	18232.215087
471.819324	21969.129171
472.190164	24080.114865
472.560945	20968.442489
472.931667	18758.778729
473.302330	18197.879788
473.672934	17729.919558
474.043479	18172.648813
474.413965	18043.171817
474.784393	17748.140809
475.154761	18415.700484
475.525070	18502.609976
475.895321	18178.766253
476.265513	18779.780176
476.635645	19369.017964
477.005719	19209.972081
477.375734	19425.874618
477.745691	19929.697615
478.115588	20440.900862
478.485427	20969.170936
478.855207	22022.094054
479.224928	23748.810234
479.594591	25949.520905
479.964194	26084.805309
480.333739	26316.970608
480.703226	25913.471613
481.072653	25593.038231
481.442022	26141.614072
481.811333	27055.973515
482.180584	27020.952620
482.549777	26093.581958
482.918912	25734.291362
483.287988	25853.660844
483.657005	25568.644087
484.025964	25280.408555
484.394864	25247.048719
484.763706	24965.674197
485.132489	24386.533840
485.501213	24552.597009
485.869879	24487.997143
486.238487	24284.019456
486.607036	24442.944351
486.975527	24116.849753
487.343959	24466.126097
487.712333	24437.046201
488.080648	24093.786474
488.448905	24566.157713
488.817104	24319.549508
489.185244	24978.813964
489.553326	24945.111330
489.921350	25896.336732
490.289315	28146.458271
490.657222	29968.273298
491.025070	30458.991816
491.392861	30267.664904
491.760593	29437.396948
492.128267	28543.686071
492.495883	27523.716975
492.863440	26632.972817
493.230939	25772.241168
493.598380	25616.832477
493.965763	25210.117226
494.333088	24778.690239
494.700354	24691.826117
495.067563	24594.068061
495.434713	24354.031000
495.801805	24484.092770
496.168839	24311.483662
496.535815	24127.637822
496.902733	24338.385779
497.269593	24012.182796
497.636395	24203.759245
498.003139	24196.878070
498.369825	23946.095790
498.736453	24132.401713
499.103023	24008.033927
499.469535	24035.354460
499.835989	24223.205496
500.202385	24255.673048
500.568723	23761.219034
500.935003	24036.876888
501.301226	23625.932109
501.667390	24446.629435
502.033497	24698.341808
502.399546	24412.992336
502.765537	24013.914433
503.131470	24398.166302
503.497345	24524.817731
503.863163	23733.437236
504.228923	24365.769327
504.594625	24546.361102
504.960269	24058.828593
505.325856	24563.397681
505.691385	23983.112983
506.056856	24566.901283
506.422270	24536.503126
506.787625	24140.643999
507.152924	24538.746439
507.518164	24564.867178
507.883347	24365.834862
508.248472	24064.585591
508.613540	24847.512071
508.978550	24614.328459
509.343503	24604.636840
509.708398	24886.790221
510.073236	25034.243971
510.438016	25254.028197
510.802738	24933.186481
511.167403	25176.873337
511.532010	24871.719692
511.896561	25661.628170
512.261053	25623.748940
512.625488	25465.804549
512.989866	25356.298085
513.354186	25215.105448
513.718449	25291.489011
514.082655	25698.552102
514.446803	25435.287924
514.810894	25872.229934
515.174927	25365.578849
515.538904	25388.931994
515.902822	25890.431020
516.266684	25646.920604
516.630488	25540.211980
516.994235	25527.107500
517.357925	25816.689021
517.721558	26014.176223
518.085133	26098.746620
518.448651	26022.491607
518.812112	25739.720684
519.175516	25927.556597
519.538863	26100.228719
519.902152	25874.634564
520.265385	26180.594794
520.628560	25951.441584
520.991678	25975.616437
521.354739	26059.637349
521.717743	26107.982014
522.080690	25902.068523
522.443580	26228.432823
522.806413	26241.766675
523.169189	26318.780383
523.531908	26374.104526
523.894569	25978.368908
524.257174	26053.000670
524.619722	26242.946305
524.982213	25933.437103
525.344647	25998.427659
525.707025	26126.278882
526.069345	26123.317204
526.431608	26084.056698
526.793815	26259.173780
527.155964	25713.032816
527.518057	25893.738017
527.880093	25805.401878
528.242072	26042.820059
528.603995	25737.124490
528.965860	25535.629571
529.327669	25595.667193
529.689421	25581.725882
530.051117	25408.511836
530.412755	25587.523209
530.774337	25394.089094
531.135862	25268.405567
531.497331	25467.538706
531.858743	25012.332596
532.220098	25496.028787
532.581396	25184.251066
532.942638	25126.023218
533.303824	25204.642533
533.664953	25236.051442
534.026025	24897.865636
534.387040	25129.834330
534.747999	25191.270872
535.108902	25347.753329
535.469748	24858.307702
535.830537	25041.324272
536.191270	25149.832588
536.551947	25037.137593
536.912567	24706.775658
537.273131	25019.027248
537.633638	24725.337187
537.994089	24939.293838
538.354483	24495.044676
538.714821	24985.954758
539.075103	25035.295052
539.435328	24818.709438
539.795497	24365.529872
540.155609	24783.028152
540.515665	25069.169085
540.875665	24317.369209
541.235609	24585.609005
541.595496	24568.766510
541.955328	24912.999180
542.315102	24840.131822
542.674821	24384.212388
543.034483	24265.125211
543.394090	24433.086375
543.753640	24219.616195
544.113134	24858.499266
544.472571	24462.960253
544.831953	24751.846094
545.191278	24354.300702
545.550548	24295.946826
545.909761	24497.850078
546.268918	24722.877104
546.628019	24689.323184
546.987064	24377.217788
547.346053	24155.689323
547.704986	24280.793117
548.063863	24428.788791
548.422684	24439.090389
548.781449	23983.760771
549.140158	24382.153077
549.498811	23951.900679
549.857408	23692.971894
550.215949	24138.708196
550.574434	23813.319359
550.932864	24030.656105
551.291237	24177.951058
551.649555	24045.303177
552.007817	24092.153140
552.366022	23968.110509
552.724173	24023.079250
553.082267	23950.463950
553.440305	24419.954169
553.798288	23684.457385
554.156215	24218.623088
554.514086	24303.397651
554.871902	23665.900898
555.229661	23953.428148
555.587365	23816.437313
555.945014	23677.719883
556.302606	23927.713222
556.660143	23867.652916
557.017625	24130.596980
557.375050	23667.141021
557.732421	24047.780904
558.089735	23862.843655
558.446994	23918.389608
558.804197	23944.631335
559.161345	23900.808584
559.518437	23643.918946
559.875474	23846.981664
560.232455	24028.440518
560.589381	23860.756617
560.946251	23829.385517
561.303065	24153.120855
561.659825	24230.968873
562.016528	23848.962838
562.373177	23582.653803
562.729770	23934.415437
563.086307	23798.536176
563.442789	23976.090655
563.799216	23793.815135
564.155587	23817.516120
564.511904	23791.420587
564.868164	23739.791610
565.224370	23708.239028
565.580520	23620.953970
565.936615	23753.727880
566.292654	23426.672942
566.648638	23740.247834
567.004567	23554.352766
567.360441	23504.994828
567.716260	23235.613211
568.072023	23558.229413
568.427732	23333.094003
568.783385	23104.109672
569.138982	23341.921063
569.494525	23381.783987
569.850013	23123.477785
570.205445	23225.639288
570.560823	23027.544627
570.916145	22790.078555
571.271412	22968.631183
571.626625	22725.503894
571.981782	22830.579185
572.336884	22644.916009
572.691931	22775.673458
573.046923	22507.970544
573.401860	22384.769785
573.756743	22390.226834
574.111570	22299.218884
574.466342	22241.328794
574.821059	22327.650992
575.175722	22038.313967
575.530330	22013.559381
575.884882	22041.442003
576.239380	21957.438736
576.593823	21838.096980
576.948211	21817.748363
577.302544	21653.215183
577.656823	21539.055734
578.011047	21629.577213
578.365216	21503.452585
578.719330	21384.284749
579.073389	21282.758431
579.427394	21426.517015
579.781344	21200.890093
580.135239	21091.560069
580.489080	21064.894885
580.842866	20825.767753
581.196597	21013.054180
581.550273	20992.226653
581.903895	20879.629961
582.257463	21197.618384
582.610975	20730.384081
582.964434	21040.178108
583.317837	20745.996534
583.671186	20830.997950
584.024481	20807.856533
584.377721	20578.826832
584.730906	20627.355499
585.084037	20661.274903
585.437113	20563.703370
585.790135	20765.747775
586.143103	20227.715507
586.496016	20239.408464
586.848874	20483.546503
587.201679	20414.260885
587.554428	20088.289795
587.907124	20418.424878
588.259765	20205.867147
588.612352	20280.844228
588.964884	19849.623928
589.317362	20023.563900
589.669786	20069.481250
590.022155	20115.295256
590.374470	20305.061931
590.726731	20106.080027
591.078937	19856.762202
591.431090	19957.280289
591.783188	19706.555982
592.135232	19681.909780
592.487222	19789.704773
592.839157	19801.531320
593.191038	19682.146715
593.542866	19582.031920
593.894639	19290.590213
594.246358	19515.529018
594.598022	19421.047713
594.949633	19173.980763
595.301190	19126.571232
595.652692	19298.388878
596.004141	19545.039933
596.355535	18869.555564
596.706876	18874.606801
597.058162	18764.757538
597.409395	19000.081120
597.760573	19087.030941
598.111698	18857.126600
598.462768	18791.631929
598.813785	18750.785980
599.164748	18580.601667
599.515657	18606.210729
599.866511	18406.321417
600.217312	18769.347508
600.568060	18293.122307
600.918753	18603.475903
601.269392	18510.771604
601.619978	18284.678375
601.970510	18492.315940
602.320988	18439.330892
602.671412	18647.427203
603.021783	18554.014622
603.372100	18287.826575
603.722363	18418.818437
604.072572	18361.225775
604.422728	18501.143000
604.772830	18257.110825
605.122878	18210.759936
605.472872	18203.752732
605.822813	18189.541719
606.172701	18156.514600
606.522534	18357.306278
606.872314	18386.239981
607.222041	18214.417293
607.571714	18426.463347
607.921333	18262.371269
608.270899	18333.121343
608.620411	18518.300567
608.969870	18285.822717
609.319276	18284.935473
609.668627	18319.878231
610.017926	18451.280948
610.367171	18567.257733
610.716362	18609.731975
611.065500	18432.003575
611.414585	18572.107323
611.763616	18544.126398
612.112594	18490.821238
612.461518	18465.809553
612.810389	18663.710129
613.159207	18504.162651
613.507971	18425.349252
613.856682	18693.775571
614.205340	18618.730434
614.553945	18774.711296
614.902496	18513.002315
615.250994	18749.626514
615.599439	18697.495943
615.947830	18684.492286
616.296169	18721.128872
616.644454	18691.035704
616.992686	18659.778029
617.340864	18876.159476
617.688990	18639.905801
618.037063	18810.790834
618.385082	18651.102204
618.733048	18940.799671
619.080961	18814.090269
619.428821	18848.516309
619.776628	18732.990707
620.124382	18652.743099
620.472083	18690.130817
620.819731	18719.177945
621.167326	18416.413807
621.514868	18455.210527
621.862357	18215.833857
622.209793	18224.981031
622.557176	18059.573211
622.904506	17889.807314
623.251783	17801.503943
623.599007	17565.441832
623.946179	17506.530908
624.293297	17452.477136
624.640363	17207.507306
624.987376	17226.872898
625.334336	17011.245104
625.681243	16868.073815
626.028097	16870.614556
626.374899	16800.882796
626.721647	16666.646951
627.068343	16487.151627
627.414987	16431.668688
627.761577	16399.559058
628.108115	16444.039679
628.454600	16163.335630
628.801032	16260.498830
629.147412	16194.220259
629.493739	16210.480501
629.840014	16022.415216
630.186236	16123.296266
630.532405	15879.947167
630.878521	16082.278918
631.224585	15981.765872
631.570597	15794.834846
631.916556	15829.951524
632.262462	15802.739375
632.608316	15721.251644
632.954117	15668.269117
633.299866	15665.594785
633.645562	15585.049749
633.991206	15337.629918
634.336797	15196.621284
634.682336	15177.056566
635.027823	15066.793928
635.373257	14950.265136
635.718639	14844.615155
636.063968	14796.560356
636.409245	14551.542635
636.754470	14582.812912
637.099642	14419.232511
