Dividing Wavelength (nm)	Counts (n)	Blue Motor Position (mm): 16.600000	Red Motor Position (mm): 0.000000	
326.493990	2177.135714
326.888308	2177.135714
327.282561	2177.135714
327.676750	2135.939405
328.070874	2131.747686
328.464933	2133.086112
328.858929	2135.573922
329.252859	2143.518780
329.646726	2150.117650
330.040528	2163.408653
330.434265	2175.255364
330.827938	2193.045596
331.221547	2211.148379
331.615091	2227.698488
332.008571	2245.072824
332.401986	2264.398088
332.795338	2283.952723
333.188625	2301.127934
333.581847	2319.545790
333.975006	2336.945333
334.368100	2358.849146
334.761129	2378.116436
335.154095	2392.332490
335.546996	2412.655902
335.939833	2444.793257
336.332606	2456.332458
336.725315	2468.711012
337.117960	2485.117447
337.510540	2493.599188
337.903056	2504.057062
338.295508	2512.967301
338.687896	2525.035824
339.080220	2531.780888
339.472480	2536.922864
339.864676	2542.279090
340.256807	2547.572302
340.648875	2552.232849
341.040879	2552.744526
341.432818	2559.600495
341.824694	2561.352296
342.216506	2562.310115
342.608253	2565.549057
342.999937	2561.531257
343.391557	2560.666699
343.783113	2560.865825
344.174605	2560.384394
344.566033	2559.713921
344.957397	2560.218036
345.348697	2557.268961
345.739934	2557.483210
346.131106	2555.827191
346.522215	2554.788714
346.913260	2549.349309
347.304241	2549.215718
347.695159	2546.107847
348.086012	2544.880326
348.476802	2545.911242
348.867528	2539.821528
349.258191	2536.965714
349.648789	2536.179294
350.039324	2532.065713
350.429796	2537.933616
350.820203	2535.294572
351.210548	2532.262318
351.600828	2530.979344
351.991045	2529.368695
352.381198	2529.343490
352.771288	2528.705784
353.161314	2528.022707
353.551276	2524.985412
353.941175	2526.475073
354.331010	2530.006401
354.720782	2526.379291
355.110490	2529.282996
355.500135	2527.954652
355.889717	2527.400125
356.279235	2526.349044
356.668689	2527.324507
357.058080	2527.637059
357.447408	2528.325177
357.836672	2528.481452
358.225873	2531.654859
358.615010	2529.461957
359.004084	2528.234436
359.393095	2531.710311
359.782043	2530.830630
360.170927	2530.974303
360.559748	2531.024714
360.948505	2532.509334
361.337199	2531.521268
361.725830	2533.300795
362.114398	2533.651156
362.502903	2531.876669
362.891344	2534.553522
363.279722	2534.240971
363.668037	2536.401105
364.056289	2536.411187
364.444478	2534.190559
364.832603	2537.187525
365.220665	2537.782381
365.608665	2540.035777
365.996601	2539.072917
366.384474	2540.219779
366.772284	2539.491332
367.160031	2539.871939
367.547715	2541.280942
367.935336	2541.230530
368.322893	2542.553833
368.710388	2534.518234
369.097820	2538.004192
369.485189	2537.167360
369.872495	2542.079965
370.259738	2539.655170
370.646918	2542.195911
371.034035	2542.478216
371.421090	2541.701878
371.808081	2544.628268
372.195010	2541.994265
372.581875	2542.755479
372.968678	2545.092054
373.355418	2545.344112
373.742096	2545.812939
374.128710	2543.839328
374.515262	2547.330327
374.901751	2544.701365
375.288177	2543.690613
375.674540	2545.427291
376.060841	2543.693134
376.447079	2545.167672
376.833254	2542.929399
377.219367	2545.306303
377.605417	2546.110367
377.991404	2544.701365
378.377329	2544.900490
378.763191	2546.233876
379.148991	2545.966694
379.534727	2543.730943
379.920402	2547.577343
380.306013	2547.675646
380.691563	2546.695141
381.077049	2547.859648
381.462474	2549.104813
381.847835	2550.332334
382.233134	2549.495502
382.618371	2546.632127
383.003545	2547.799154
383.388657	2548.744370
383.773706	2549.803013
384.158693	2548.940975
384.543618	2549.699669
384.928480	2548.827549
385.313280	2549.818136
385.698017	2551.091027
386.082692	2549.377035
386.467305	2553.110009
386.851856	2551.164124
387.236344	2554.944989
387.620770	2547.990718
388.005133	2549.210677
388.389435	2551.038095
388.773674	2547.869730
389.157851	2552.926007
389.541965	2554.806358
389.926018	2552.207643
390.310008	2553.946841
390.693936	2553.367108
391.077802	2556.638817
391.461606	2555.892726
391.845348	2551.423743
392.229027	2555.834753
392.612645	2553.825853
392.996200	2555.454146
393.379694	2556.900957
393.763125	2554.816440
394.146494	2556.348951
394.529801	2556.147305
394.913047	2556.227963
395.296230	2557.389949
395.679351	2555.771739
396.062410	2555.333158
396.445408	2556.805175
396.828343	2556.863148
397.211217	2557.029507
397.594028	2561.012018
397.976778	2557.218550
398.359466	2554.924825
398.742092	2558.680484
399.124656	2558.458674
399.507158	2557.982285
399.889598	2560.003787
400.271977	2559.255176
400.654294	2557.823488
401.036549	2560.911195
401.418742	2557.490772
401.800874	2559.482028
402.182944	2560.631411
402.564952	2559.971020
402.946898	2559.340876
403.328783	2561.480845
403.710606	2561.664848
404.092367	2559.734086
404.474067	2560.782646
404.855705	2559.968499
405.237282	2561.806000
405.618797	2558.735937
406.000250	2562.093346
406.381642	2559.935732
406.762972	2560.076884
407.144240	2559.149312
407.525447	2559.731565
407.906593	2558.085628
408.287677	2562.723490
408.668700	2563.159550
409.049661	2563.726679
409.430560	2560.961607
409.811399	2565.377657
410.192176	2562.176525
410.572891	2563.353634
410.953545	2564.071998
411.334138	2566.441341
411.714669	2566.564849
412.095139	2564.399673
412.475547	2564.893707
412.855894	2563.782132
413.236180	2564.261042
413.616405	2564.913871
413.996568	2564.883624
414.376670	2563.610733
414.756711	2564.031669
415.136691	2564.490414
415.516609	2566.128789
415.896466	2563.393963
416.276262	2563.895558
416.655997	2566.123748
417.035670	2566.557287
417.415283	2566.617781
417.794834	2569.045097
418.174324	2565.140723
418.553753	2567.124417
418.933121	2568.752710
419.312428	2567.318502
419.691674	2567.333625
420.070859	2568.326732
420.449983	2564.440003
420.829045	2569.702967
421.208047	2567.676423
421.586988	2567.547874
421.965867	2568.150292
422.344686	2567.689026
422.723444	2571.472412
423.102141	2568.891342
423.480777	2567.071485
423.859352	2570.955694
424.237866	2569.387895
424.616319	2567.530230
424.994712	2571.694223
425.373044	2569.791188
425.751314	2568.175498
426.129524	2567.452092
426.507673	2569.022412
426.885762	2566.156516
427.263789	2574.340829
427.641756	2568.810683
428.019662	2570.859912
428.397508	2567.835220
428.775292	2571.996692
429.153016	2572.515931
429.530679	2570.131465
429.908282	2569.156002
430.285824	2570.393605
430.663305	2569.135837
431.040726	2572.876374
431.418086	2569.884449
431.795385	2570.249932
432.172624	2570.406208
432.549802	2569.307237
432.926920	2571.769840
433.303977	2571.364027
433.680974	2574.532393
434.057910	2573.186405
434.434786	2575.099522
434.811601	2569.841599
435.188355	2572.684810
435.565050	2571.202711
435.941683	2574.093812
436.318257	2573.135993
436.694770	2572.094995
437.071222	2572.798236
437.447614	2572.533575
437.823946	2572.624316
438.200218	2572.800756
438.576429	2573.413257
438.952580	2572.634398
439.328670	2573.619944
439.704700	2572.878894
440.080670	2575.454924
440.456580	2575.757393
440.832429	2572.276476
441.208218	2571.762279
441.583947	2573.720767
441.959616	2572.246229
442.335224	2574.623133
442.710773	2576.195973
443.086261	2575.049111
443.461689	2573.032649
443.837057	2576.201015
444.212365	2576.924420
444.587612	2572.256312
444.962800	2571.739593
445.337927	2574.996179
445.712995	2568.898903
446.088002	2574.461817
446.462949	2574.479461
446.837837	2574.953329
447.212664	2577.652867
447.587431	2578.502301
447.962139	2577.148752
448.336786	2580.034812
448.711374	2579.250913
449.085901	2580.412899
449.460369	2577.297466
449.834776	2577.239492
450.209124	2579.220666
450.583412	2577.085737
450.957640	2579.649164
451.331808	2578.514904
451.705917	2579.802919
452.079965	2579.225707
452.453954	2577.920048
452.827883	2577.728484
453.201752	2579.835687
453.575562	2581.552199
453.949311	2577.103381
454.323001	2578.928279
454.696632	2579.344174
455.070202	2578.640933
455.443713	2580.319637
455.817164	2581.781572
456.190556	2581.249730
456.563888	2580.901891
456.937160	2581.653022
457.310373	2580.453228
457.683526	2581.030440
458.056619	2581.610173
458.429653	2580.982549
458.802628	2581.252251
459.175542	2580.223855
459.548398	2582.265523
459.921194	2580.511201
460.293930	2584.841552
460.666607	2581.332909
461.039224	2587.712489
461.411782	2583.843404
461.784280	2583.835842
462.156719	2583.767787
462.529099	2586.767273
462.901419	2587.861203
463.273680	2583.243507
463.645882	2579.865933
464.018024	2582.636047
464.390106	2580.085224
464.762130	2585.201995
465.134094	2584.622262
465.505999	2587.820874
465.877845	2587.944382
466.249631	2590.918663
466.621358	2593.502255
466.993026	2591.016966
467.364634	2595.533840
467.736184	2591.997470
468.107674	2589.222315
468.479105	2590.482603
468.850477	2589.852459
469.221790	2588.312387
469.593043	2589.882706
469.964238	2588.640062
470.335373	2587.999835
470.706449	2590.301122
471.077467	2588.151070
471.448425	2592.272213
471.819324	2594.061823
472.190164	2594.810434
472.560945	2594.528129
472.931667	2590.777511
473.302330	2590.482603
473.672934	2592.158787
474.043479	2591.415217
474.413965	2590.139805
474.784393	2591.682398
475.154761	2592.022676
475.525070	2591.402614
475.895321	2591.412696
476.265513	2594.081987
476.635645	2592.065526
477.005719	2591.866400
477.375734	2593.444281
477.745691	2595.942173
478.115588	2594.674323
478.485427	2597.731783
478.855207	2595.730445
479.224928	2598.639190
479.594591	2598.671958
479.964194	2599.324787
480.333739	2597.162132
480.703226	2599.045003
481.072653	2600.471650
481.442022	2602.377206
481.811333	2600.091043
482.180584	2598.913933
482.549777	2597.252873
482.918912	2600.567432
483.287988	2601.555498
483.657005	2603.007350
484.025964	2604.817124
484.394864	2600.975765
484.763706	2601.525251
485.132489	2599.753285
485.501213	2601.142123
485.869879	2605.046497
486.238487	2602.546085
486.607036	2601.968872
486.975527	2600.786722
487.343959	2599.881835
487.712333	2602.795622
488.080648	2604.053390
488.448905	2603.246805
488.817104	2604.759151
489.185244	2604.655808
489.553326	2606.894080
489.921350	2606.027001
490.289315	2609.386930
490.657222	2610.795933
491.025070	2611.859616
491.392861	2612.154524
491.760593	2607.630088
492.128267	2611.640326
492.495883	2610.889194
492.863440	2608.338370
493.230939	2606.742845
493.598380	2612.431787
493.965763	2609.384410
494.333088	2607.224275
494.700354	2608.388782
495.067563	2609.926334
495.434713	2610.014554
495.801805	2608.867692
496.168839	2608.842486
496.535815	2610.327106
496.902733	2610.190994
497.269593	2613.371962
497.636395	2609.434821
498.003139	2612.514966
498.369825	2608.663525
498.736453	2614.468413
499.103023	2611.605038
499.469535	2614.110492
499.835989	2616.449587
500.202385	2613.135028
500.568723	2610.475820
500.935003	2610.967332
501.301226	2611.582353
501.667390	2616.973867
502.033497	2617.198198
502.399546	2616.492437
502.765537	2619.978395
503.131470	2618.539145
503.497345	2621.049640
503.863163	2620.709362
504.228923	2619.751543
504.594625	2622.403190
504.960269	2624.497789
505.325856	2624.407048
505.691385	2621.616770
506.056856	2626.597430
506.422270	2629.077677
506.787625	2629.690177
507.152924	2628.374436
507.518164	2632.029273
507.883347	2632.036835
508.248472	2630.799231
508.613540	2636.805766
508.978550	2638.542444
509.343503	2638.403812
509.708398	2639.321302
510.073236	2643.308855
510.438016	2646.076448
510.802738	2645.728608
511.167403	2648.486120
511.532010	2650.033754
511.896561	2654.827891
512.261053	2657.426606
512.625488	2658.056750
512.989866	2656.458704
513.354186	2660.617656
513.718449	2665.318532
514.082655	2673.699451
514.446803	2668.219716
514.810894	2676.512414
515.174927	2677.066941
515.538904	2680.580626
515.902822	2686.115812
516.266684	2690.110927
516.630488	2691.454394
516.994235	2697.660055
517.357925	2701.521579
517.721558	2707.906200
518.085133	2713.413661
518.448651	2715.856100
518.812112	2717.580174
519.175516	2727.501165
519.538863	2728.262379
519.902152	2739.761251
520.265385	2749.140318
520.628560	2755.890423
520.991678	2763.074067
521.354739	2771.172681
521.717743	2776.155861
522.080690	2785.988632
522.443580	2797.033800
522.806413	2804.194759
523.169189	2812.414360
523.531908	2825.617142
523.894569	2831.888338
524.257174	2847.019361
524.619722	2857.169724
524.982213	2870.916951
525.344647	2880.996738
525.707025	2894.774211
526.069345	2911.185688
526.431608	2924.527101
526.793815	2943.716253
527.155964	2951.542645
527.518057	2969.108545
527.880093	2988.925321
528.242072	3003.053155
528.603995	3018.065711
528.965860	3036.218906
529.327669	3057.028789
529.689421	3072.840368
530.051117	3090.723861
530.412755	3118.276288
530.774337	3139.444093
531.135862	3156.518481
531.497331	3186.745239
531.858743	3202.723176
532.220098	3245.305803
532.581396	3253.550610
532.942638	3291.112247
533.303824	3316.045794
533.664953	3352.707586
534.026025	3379.604662
534.387040	3411.545413
534.747999	3454.780869
535.108902	3488.491064
535.469748	3512.915455
535.830537	3558.152249
536.191270	3597.221191
536.551947	3642.538644
536.912567	3646.858912
537.273131	3715.542113
537.633638	3734.685895
537.994089	3807.412101
538.354483	3821.928103
538.714821	3895.602046
539.075103	3959.682673
539.435328	3993.128208
539.795497	4011.041949
540.155609	4086.387034
540.515665	4153.129390
540.875665	4160.113909
541.235609	4225.916090
541.595496	4293.790186
541.955328	4374.441085
542.315102	4428.915794
542.674821	4455.951502
543.034483	4502.085621
543.394090	4559.085948
543.753640	4608.413638
544.113134	4714.454309
544.472571	4764.197895
544.831953	4873.336355
545.191278	4890.766145
545.550548	4960.767607
545.909761	5015.199466
546.268918	5125.293224
546.628019	5187.843861
546.987064	5267.947796
547.346053	5313.086287
547.704986	5384.287544
548.063863	5491.384337
548.422684	5533.563672
548.781449	5580.118727
549.140158	5710.745106
549.498811	5763.468013
549.857408	5779.508965
550.215949	5925.490698
550.574434	5963.793385
550.932864	6080.264203
551.291237	6170.722668
551.649555	6254.390698
552.007817	6356.012798
552.366022	6422.800525
552.724173	6493.162430
553.082267	6583.386481
553.440305	6760.661176
553.798288	6723.119703
554.156215	6908.455204
554.514086	7025.656990
554.871902	6995.064748
555.229661	7139.009855
555.587365	7234.685913
555.945014	7286.874459
556.302606	7464.509597
556.660143	7516.010024
557.017625	7694.232457
557.375050	7705.663273
557.732421	7870.388016
558.089735	7953.758619
558.446994	8043.362608
558.804197	8180.250099
559.161345	8289.204557
559.518437	8282.842621
559.875474	8472.936971
560.232455	8584.122140
560.589381	8698.463071
560.946251	8753.613294
561.303065	8975.509762
561.659825	9110.070762
562.016528	9108.371893
562.373177	9151.612390
562.729770	9326.759718
563.086307	9457.570099
563.442789	9597.885575
563.799216	9664.620370
564.155587	9751.076158
564.511904	9892.157890
564.868164	9939.489283
565.224370	10095.828067
565.580520	10125.071800
565.936615	10317.827879
566.292654	10288.891656
566.648638	10558.079189
567.004567	10574.614174
567.360441	10679.865905
567.716260	10684.864209
568.072023	10949.391195
568.427732	10973.162756
568.783385	10979.880093
569.138982	11174.950062
569.494525	11333.801861
569.850013	11357.636436
570.205445	11489.520583
570.560823	11490.735501
570.916145	11548.066023
571.271412	11684.693895
571.626625	11745.608678
571.981782	11858.986748
572.336884	11875.904860
572.691931	12050.510265
573.046923	11997.227789
573.401860	12100.183274
573.756743	12217.508568
574.111570	12262.150506
574.466342	12336.068945
574.821059	12507.974812
575.175722	12438.721961
575.530330	12597.667021
575.884882	12685.562059
576.239380	12774.251079
576.593823	12807.931027
576.948211	12884.460784
577.302544	12890.069068
577.656823	12948.795989
578.011047	13113.485444
578.365216	13137.012509
578.719330	13181.709900
579.073389	13206.144373
579.427394	13417.774532
579.781344	13351.518647
580.135239	13428.378599
580.489080	13472.213952
580.842866	13413.857555
581.196597	13670.114529
581.550273	13689.742261
581.903895	13788.674905
582.257463	14033.513665
582.610975	13865.214744
582.964434	14119.772849
583.317837	14057.678436
583.671186	14199.042473
584.024481	14268.562505
584.377721	14188.506461
584.730906	14321.187110
585.084037	14439.298824
585.437113	14455.155773
585.790135	14657.774870
586.143103	14416.215380
586.496016	14474.773423
586.848874	14767.659421
587.201679	14785.754642
587.554428	14624.052071
587.907124	14942.428663
588.259765	14859.284912
588.612352	15022.280540
588.964884	14797.956755
589.317362	14992.938504
589.669786	15092.733185
590.022155	15207.041349
590.374470	15419.931796
590.726731	15364.680750
591.078937	15250.027268
591.431090	15386.017434
591.783188	15270.305309
592.135232	15314.667463
592.487222	15486.326313
592.839157	15568.759261
593.191038	15571.693212
593.542866	15525.115471
593.894639	15417.375931
594.246358	15637.883562
594.598022	15622.921418
594.949633	15517.344532
595.301190	15534.502100
595.652692	15734.492234
596.004141	15984.636809
596.355535	15527.719227
596.706876	15592.956799
597.058162	15581.069758
597.409395	15790.096161
597.760573	15943.596775
598.111698	15835.481669
598.462768	15833.873541
598.813785	15833.326576
599.164748	15759.113230
599.515657	15828.144270
599.866511	15728.024434
600.217312	16060.566668
600.568060	15729.425875
600.918753	16035.388625
601.269392	16018.319278
601.619978	15866.046185
601.970510	16101.974706
602.320988	16097.067143
602.671412	16318.681307
603.021783	16274.863597
603.372100	16101.445385
603.722363	16270.699604
604.072572	16259.503202
604.422728	16403.924698
604.772830	16266.601146
605.122878	16237.622073
605.472872	16286.160823
605.822813	16328.559448
606.172701	16321.385886
606.522534	16539.390584
606.872314	16596.602639
607.222041	16468.832074
607.571714	16709.189248
607.921333	16593.434274
608.270899	16698.300356
608.620411	16919.599448
608.969870	16713.121348
609.319276	16762.426353
609.668627	16818.153789
610.017926	16976.443499
610.367171	17113.134385
610.716362	17187.030139
611.065500	17043.246349
611.414585	17189.588525
611.763616	17204.117130
612.112594	17199.464145
612.461518	17185.293462
612.810389	17402.050474
613.159207	17271.676153
613.507971	17221.299903
613.856682	17528.535545
614.205340	17484.962331
614.553945	17652.079102
614.902496	17400.578457
615.250994	17695.445628
615.599439	17641.727093
615.947830	17643.015107
616.296169	17690.817849
616.644454	17701.905867
616.992686	17673.743461
617.340864	17901.341474
617.688990	17700.481741
618.037063	17883.276500
618.385082	17743.288698
618.733048	18044.258186
619.080961	17917.465605
619.428821	17975.542218
619.776628	17901.235610
620.124382	17830.450248
620.472083	17877.975726
620.819731	17933.468748
621.167326	17647.166497
621.514868	17717.263742
621.862357	17495.480699
622.209793	17527.580246
622.557176	17398.083086
622.904506	17235.357160
623.251783	17170.414496
623.599007	16976.466184
623.946179	16945.032069
624.293297	16903.722334
624.640363	16676.951069
624.987376	16698.000407
625.334336	16502.209554
625.681243	16369.460849
626.028097	16372.087291
626.374899	16332.980540
626.721647	16206.523195
627.068343	16052.089968
627.414987	15986.058414
627.761577	15976.893597
628.108115	16044.566046
628.454600	15764.686225
628.801032	15862.895464
629.147412	15796.032120
629.493739	15828.781976
629.840014	15646.808925
630.186236	15749.351035
630.532405	15516.323699
630.878521	15717.521190
631.224585	15611.737618
631.570597	15446.871722
631.916556	15477.809283
632.262462	15467.580782
632.608316	15387.063473
632.954117	15335.144630
633.299866	15341.118397
633.645562	15268.608961
633.991206	15021.476476
634.336797	14899.641869
634.682336	14874.322674
635.027823	14784.191885
635.373257	14668.870449
635.718639	14559.444643
636.063968	14520.519374
636.409245	14287.918015
636.754470	14308.770748
637.099642	14166.627853
637.444762	13939.937247
637.789829	13994.727028
638.134845	13847.149769
638.479808	13860.970093
638.824719	13828.822655
639.169577	13667.404908
639.514383	13722.076222
639.859137	13536.914641
640.203839	13625.946459
640.548489	13468.859064
640.893086	13447.081280
641.237632	13330.698681
