Dividing Wavelength (nm)	Counts (n)	Blue Motor Position (mm): 6.500000	Red Motor Position (mm): 0.000000	
326.493990	2158.559063
326.888308	2158.559063
327.282561	2158.559063
327.676750	2116.478031
328.070874	2115.192537
328.464933	2115.613473
328.858929	2117.864348
329.252859	2123.838115
329.646726	2130.242901
330.040528	2143.110447
330.434265	2156.381284
330.827938	2176.913904
331.221547	2194.356296
331.615091	2210.089737
332.008571	2226.052551
332.401986	2244.546024
332.795338	2262.815165
333.188625	2283.708227
333.581847	2302.423511
333.975006	2321.000163
334.368100	2337.749397
334.761129	2354.725482
335.154095	2373.105529
335.546996	2388.344937
335.939833	2407.939902
336.332606	2421.324166
336.725315	2434.738676
337.117960	2448.022116
337.510540	2458.797583
337.903056	2472.242340
338.295508	2480.282980
338.687896	2489.367140
339.080220	2496.397029
339.472480	2504.425066
339.864676	2508.314316
340.256807	2513.615090
340.648875	2517.146418
341.040879	2522.643796
341.432818	2522.069105
341.824694	2526.717048
342.216506	2527.417769
342.608253	2526.439785
342.999937	2530.427338
343.391557	2525.522295
343.783113	2526.404497
344.174605	2526.432223
344.566033	2525.749147
344.957397	2525.920546
345.348697	2522.507685
345.739934	2520.556758
346.131106	2520.382839
346.522215	2520.120699
346.913260	2518.169772
347.304241	2513.272291
347.695159	2512.034688
348.086012	2510.953360
348.476802	2509.483864
348.867528	2504.271311
349.258191	2502.940446
349.648789	2502.083450
350.039324	2496.182780
350.429796	2500.414828
350.820203	2498.905003
351.210548	2498.990702
351.600828	2495.366113
351.991045	2496.631442
352.381198	2494.413335
352.771288	2494.148674
353.161314	2495.169508
353.551276	2494.156236
353.941175	2492.384270
354.331010	2492.371667
354.720782	2491.557521
355.110490	2493.211019
355.500135	2492.212871
355.889717	2490.216574
356.279235	2493.379898
356.668689	2492.742192
357.058080	2492.419558
357.447408	2492.931235
357.836672	2493.064826
358.225873	2495.240084
358.615010	2493.644559
359.004084	2495.189672
359.393095	2494.027686
359.782043	2492.568272
360.170927	2493.846205
360.559748	2494.977944
360.948505	2497.130517
361.337199	2499.517503
361.725830	2498.108500
362.114398	2497.271669
362.502903	2499.046155
362.891344	2499.086484
363.279722	2500.631598
363.668037	2499.812410
364.056289	2501.256701
364.444478	2503.961280
364.832603	2501.120590
365.220665	2498.789056
365.608665	2500.361896
365.996601	2503.552947
366.384474	2504.243585
366.772284	2502.446413
367.160031	2503.520179
367.547715	2505.718122
367.935336	2504.311640
368.322893	2498.786536
368.710388	2500.344252
369.097820	2504.019253
369.485189	2500.840806
369.872495	2503.764675
370.259738	2504.344408
370.646918	2505.962618
371.034035	2507.361538
371.421090	2507.560664
371.808081	2507.537979
372.195010	2509.456138
372.581875	2505.203924
372.968678	2509.267094
373.355418	2509.529234
373.742096	2507.946312
374.128710	2509.163751
374.515262	2512.342198
374.901751	2507.661487
375.288177	2510.769358
375.674540	2509.574605
376.060841	2504.911538
376.447079	2508.760458
376.833254	2508.498318
377.219367	2509.249450
377.605417	2508.745335
377.991404	2512.528721
378.377329	2511.117198
378.763191	2514.525018
379.148991	2511.654081
379.534727	2508.178205
379.920402	2513.655419
380.306013	2510.557630
380.691563	2514.126767
381.077049	2512.392610
381.462474	2512.223731
381.847835	2511.258350
382.233134	2514.658608
382.618371	2514.121726
383.003545	2513.201715
383.388657	2515.276150
383.773706	2515.170286
384.158693	2513.458814
384.543618	2512.382528
384.928480	2514.731705
385.313280	2514.272960
385.698017	2514.540141
386.082692	2513.836900
386.467305	2514.751870
386.851856	2516.198681
387.236344	2517.519463
387.620770	2513.834380
388.005133	2513.625172
388.389435	2512.387569
388.773674	2510.759276
389.157851	2515.036695
389.541965	2514.283043
389.926018	2517.675739
390.310008	2516.251613
390.693936	2514.424195
391.077802	2517.716068
391.461606	2517.060718
391.845348	2519.672036
392.229027	2519.810668
392.612645	2517.249762
392.996200	2520.652540
393.379694	2518.585667
393.763125	2520.841584
394.146494	2519.241017
394.529801	2522.711852
394.913047	2520.153466
395.296230	2519.669515
395.679351	2519.571213
396.062410	2522.079187
396.445408	2520.352592
396.828343	2523.944414
397.211217	2520.279495
397.594028	2522.457273
397.976778	2521.650689
398.359466	2520.375277
398.742092	2518.666326
399.124656	2521.232273
399.507158	2522.487520
399.889598	2522.404341
400.271977	2519.639268
400.654294	2522.918539
401.036549	2522.283354
401.418742	2523.654548
401.800874	2520.163548
402.182944	2524.188910
402.564952	2522.860566
402.946898	2522.676564
403.328783	2525.408869
403.710606	2523.919208
404.092367	2524.902233
404.474067	2524.267048
404.855705	2523.558766
405.237282	2527.485824
405.618797	2526.117151
406.000250	2526.119672
406.381642	2524.448529
406.762972	2524.670340
407.144240	2520.592047
407.525447	2525.043385
407.906593	2517.915194
408.287677	2528.282327
408.668700	2526.112110
409.049661	2526.901051
409.430560	2526.172604
409.811399	2525.423992
410.192176	2525.620598
410.572891	2526.827954
410.953545	2525.187058
411.334138	2528.312574
411.714669	2527.352234
412.095139	2526.807789
412.475547	2527.813499
412.855894	2525.963396
413.236180	2528.640249
413.616405	2527.112779
413.996568	2528.350382
414.376670	2529.620753
414.756711	2529.598068
415.136691	2529.267872
415.516609	2526.139836
415.896466	2527.352234
416.276262	2527.039682
416.655997	2528.907430
417.035670	2530.548325
417.415283	2529.330887
417.794834	2530.359282
418.174324	2527.137985
418.553753	2531.143182
418.933121	2529.499765
419.312428	2529.847605
419.691674	2531.082688
420.070859	2532.675692
420.449983	2529.890455
420.829045	2527.543798
421.208047	2529.522451
421.586988	2529.235105
421.965867	2533.260466
422.344686	2533.303316
422.723444	2531.070085
423.102141	2531.309540
423.480777	2531.183511
423.859352	2530.787780
424.237866	2533.237781
424.616319	2534.576207
424.994712	2535.251722
425.373044	2532.106042
425.751314	2530.656710
426.129524	2527.574045
426.507673	2524.380474
426.885762	2528.121010
427.263789	2533.605785
427.641756	2530.334076
428.019662	2534.051927
428.397508	2534.208203
428.775292	2532.012781
429.153016	2534.142668
429.530679	2531.760723
429.908282	2531.370033
430.285824	2533.189890
430.663305	2533.900693
431.040726	2531.748120
431.418086	2535.115611
431.795385	2535.420601
432.172624	2530.518078
432.549802	2533.757020
432.926920	2533.013450
433.303977	2534.825744
433.680974	2535.758358
434.057910	2533.847761
434.434786	2533.951104
434.811601	2535.294572
435.188355	2533.734335
435.565050	2537.805066
435.941683	2533.739376
436.318257	2535.697864
436.694770	2535.682741
437.071222	2535.503780
437.447614	2534.868594
437.823946	2535.445806
438.200218	2534.619057
438.576429	2534.843388
438.952580	2537.104346
439.328670	2534.077133
439.704700	2538.604089
440.080670	2538.047042
440.456580	2537.419418
440.832429	2536.726259
441.208218	2534.709798
441.583947	2537.371527
441.959616	2535.902031
442.335224	2533.399098
442.710773	2535.768440
443.086261	2539.143493
443.461689	2533.278110
443.837057	2539.382948
444.212365	2533.414221
444.587612	2534.619057
444.962800	2534.193080
445.337927	2535.140817
445.712995	2531.543953
446.088002	2537.061496
446.462949	2535.707946
446.837837	2536.038142
447.212664	2537.762217
447.587431	2539.831610
447.962139	2538.588966
448.336786	2539.304810
448.711374	2539.713143
449.085901	2539.660211
449.460369	2537.227854
449.834776	2538.278935
450.209124	2536.892618
450.583412	2538.155427
450.957640	2540.761703
451.331808	2540.106353
451.705917	2536.880015
452.079965	2538.503266
452.453954	2540.779347
452.827883	2539.531662
453.201752	2539.347659
453.575562	2541.429656
453.949311	2537.918492
454.323001	2541.417053
454.696632	2538.243647
455.070202	2539.519059
455.443713	2539.410674
455.817164	2540.590304
456.190556	2538.059645
456.563888	2539.889583
456.937160	2539.544264
457.310373	2540.870088
457.683526	2540.917979
458.056619	2540.466796
458.429653	2542.047197
458.802628	2541.865716
459.175542	2540.557536
459.548398	2541.444779
459.921194	2541.069213
460.293930	2537.560570
460.666607	2540.960829
461.039224	2539.042670
461.411782	2543.491488
461.784280	2541.568288
462.156719	2542.294214
462.529099	2541.495191
462.901419	2540.232382
463.273680	2537.190046
463.645882	2538.256250
464.018024	2540.421425
464.390106	2534.548481
464.762130	2538.563760
465.134094	2542.947043
465.505999	2542.221117
465.877845	2541.568288
466.249631	2540.857485
466.621358	2541.167516
466.993026	2544.144317
467.364634	2544.890408
467.736184	2543.516694
468.107674	2542.551313
468.479105	2542.871426
468.850477	2543.897301
469.221790	2541.356559
469.593043	2540.643236
469.964238	2540.688606
470.335373	2541.391847
470.706449	2542.339584
471.077467	2543.332692
471.448425	2541.711961
471.819324	2542.644574
472.190164	2542.644574
472.560945	2542.596683
472.931667	2544.592980
473.302330	2543.216745
473.672934	2544.396375
474.043479	2539.914789
474.413965	2543.375541
474.784393	2544.149358
475.154761	2547.557178
475.525070	2542.788247
475.895321	2544.598021
476.265513	2540.625592
476.635645	2544.882846
477.005719	2543.385624
477.375734	2543.342774
477.745691	2542.425284
478.115588	2544.388813
478.485427	2541.724563
478.855207	2543.627599
479.224928	2541.974101
479.594591	2542.659698
479.964194	2545.911242
480.333739	2546.526262
480.703226	2541.475026
481.072653	2546.369987
481.442022	2542.553833
481.811333	2541.412012
482.180584	2537.817669
482.549777	2542.649615
482.918912	2538.105015
483.287988	2543.206663
483.657005	2545.714637
484.025964	2546.987528
484.394864	2547.723537
484.763706	2542.831097
485.132489	2544.913093
485.501213	2544.744215
485.869879	2545.810419
486.238487	2544.235058
486.607036	2544.829914
486.975527	2544.620706
487.343959	2544.139276
487.712333	2543.955274
488.080648	2545.253371
488.448905	2544.532486
488.817104	2544.779503
489.185244	2546.271684
489.553326	2543.206663
489.921350	2544.645912
490.289315	2545.215563
490.657222	2545.944009
491.025070	2544.224976
491.392861	2548.157076
491.760593	2545.223124
492.128267	2545.480223
492.495883	2543.599873
492.863440	2547.910059
493.230939	2546.415357
493.598380	2548.746891
493.965763	2544.381252
494.333088	2544.419060
494.700354	2544.839997
495.067563	2545.066848
495.434713	2545.273536
495.801805	2543.950233
496.168839	2547.363094
496.535815	2546.846376
496.902733	2545.114739
497.269593	2545.455017
497.636395	2546.957281
498.003139	2548.053732
498.369825	2547.317724
498.736453	2544.461910
499.103023	2547.065666
499.469535	2547.509288
499.835989	2546.680018
500.202385	2541.543082
500.568723	2543.282280
500.935003	2544.048535
501.301226	2542.337064
501.667390	2545.913762
502.033497	2548.812426
502.399546	2546.916952
502.765537	2544.981149
503.131470	2545.641540
503.497345	2545.739842
503.863163	2547.383259
504.228923	2547.146324
504.594625	2547.940306
504.960269	2548.797302
505.325856	2545.845707
505.691385	2545.303783
506.056856	2547.360573
506.422270	2547.030378
506.787625	2549.407282
507.152924	2548.076417
507.518164	2547.955430
507.883347	2544.290511
508.248472	2548.804864
508.613540	2547.292518
508.978550	2549.583722
509.343503	2547.332847
509.708398	2549.316541
510.073236	2544.935778
510.438016	2548.739329
510.802738	2545.414688
511.167403	2544.668597
511.532010	2550.297046
511.896561	2548.819987
512.261053	2546.480892
512.625488	2548.260419
512.989866	2549.984494
513.354186	2548.172199
513.718449	2546.226314
514.082655	2548.620862
514.446803	2545.061807
514.810894	2546.896787
515.174927	2549.084648
515.538904	2549.661860
515.902822	2548.550286
516.266684	2548.507436
516.630488	2547.640357
516.994235	2546.448125
517.357925	2547.915100
517.721558	2550.811243
518.085133	2549.855945
518.448651	2547.577343
518.812112	2542.057280
519.175516	2545.444935
519.538863	2543.065510
519.902152	2546.435522
520.265385	2547.287477
520.628560	2546.730429
520.991678	2549.140101
521.354739	2548.956099
521.717743	2548.194884
522.080690	2548.759494
522.443580	2548.242775
522.806413	2547.083310
523.169189	2546.871582
523.531908	2548.598177
523.894569	2548.288146
524.257174	2546.531304
524.619722	2547.733619
524.982213	2549.770245
525.344647	2549.520708
525.707025	2547.920142
526.069345	2546.962322
526.431608	2548.363763
526.793815	2548.099102
527.155964	2550.717982
527.518057	2547.884853
527.880093	2548.643547
528.242072	2546.798485
528.603995	2548.399051
528.965860	2549.737478
529.327669	2545.681869
529.689421	2548.729247
530.051117	2547.761345
530.412755	2547.821839
530.774337	2552.469783
531.135862	2546.349822
531.497331	2549.389638
531.858743	2546.508618
532.220098	2549.979453
532.581396	2548.119267
532.942638	2552.749567
533.303824	2550.067673
533.664953	2550.017262
534.026025	2550.980122
534.387040	2548.779658
534.747999	2549.359391
535.108902	2547.436191
535.469748	2550.360060
535.830537	2549.039278
536.191270	2547.665563
536.551947	2547.965512
536.912567	2545.006355
537.273131	2546.057435
537.633638	2544.499719
537.994089	2552.179917
538.354483	2549.500543
538.714821	2546.962322
539.075103	2548.162117
539.435328	2551.690925
539.795497	2551.280071
540.155609	2549.533311
540.515665	2549.387117
540.875665	2552.184958
541.235609	2550.261758
541.595496	2550.236552
541.955328	2552.189999
542.315102	2550.428116
542.674821	2551.078424
543.034483	2551.670760
543.394090	2551.607746
543.753640	2551.703528
544.113134	2552.000956
544.472571	2552.578168
544.831953	2553.304094
545.191278	2554.292160
545.550548	2551.239741
545.909761	2550.526418
546.268918	2553.833415
546.628019	2551.895091
546.987064	2553.631769
547.346053	2555.106306
547.704986	2553.548590
548.063863	2555.527243
548.422684	2553.682180
548.781449	2555.433981
549.140158	2554.203940
549.498811	2554.904660
549.857408	2554.937428
550.215949	2555.154197
550.574434	2555.013045
550.932864	2553.707386
551.291237	2556.837943
551.649555	2557.760474
552.007817	2555.756615
552.366022	2554.249310
552.724173	2556.427089
553.082267	2556.175031
553.440305	2555.882644
553.798288	2557.810885
554.156215	2557.427758
554.514086	2550.738147
554.871902	2549.719833
555.229661	2555.867521
555.587365	2553.117571
555.945014	2552.956254
556.302606	2556.956410
556.660143	2557.962120
557.017625	2557.894064
557.375050	2555.887685
557.732421	2557.072356
558.089735	2557.692418
558.446994	2558.942624
558.804197	2560.160063
559.161345	2555.381049
559.518437	2558.123437
559.875474	2558.146122
560.232455	2558.463715
560.589381	2559.068653
560.946251	2559.807182
561.303065	2556.853066
561.659825	2559.275341
562.016528	2558.201575
562.373177	2557.137891
562.729770	2558.935063
563.086307	2557.450443
563.442789	2559.701318
563.799216	2558.889692
564.155587	2558.884651
564.511904	2562.418500
564.868164	2559.981102
565.224370	2560.492779
565.580520	2558.519167
565.936615	2561.909343
566.292654	2558.355330
566.648638	2559.013201
567.004567	2559.905485
567.360441	2556.996739
567.716260	2558.957748
568.072023	2559.492110
568.427732	2559.265258
568.783385	2557.904147
569.138982	2560.949004
569.494525	2560.205433
569.850013	2560.394477
570.205445	2558.771225
570.560823	2558.720814
570.916145	2558.315001
571.271412	2560.202913
571.626625	2559.383725
571.981782	2558.004970
572.336884	2556.636297
572.691931	2556.331307
573.046923	2553.344423
573.401860	2555.917932
573.756743	2560.152501
574.111570	2559.368602
574.466342	2559.424055
574.821059	2557.596636
575.175722	2557.561348
575.530330	2561.737944
575.884882	2555.466749
576.239380	2557.442881
576.593823	2559.383725
576.948211	2559.066133
577.302544	2557.440361
577.656823	2559.807182
578.011047	2559.383725
578.365216	2558.836760
578.719330	2559.809703
579.073389	2557.614280
579.427394	2559.955896
579.781344	2557.354661
580.135239	2559.255176
580.489080	2555.731409
580.842866	2558.423386
581.196597	2558.735937
581.550273	2558.617470
581.903895	2557.740309
582.257463	2558.257027
582.610975	2558.889692
582.964434	2558.872048
583.317837	2557.856256
583.671186	2557.939435
584.024481	2556.074208
584.377721	2555.295350
584.730906	2556.903478
585.084037	2559.421534
585.437113	2559.464384
585.790135	2557.271482
586.143103	2554.629917
586.496016	2557.314332
586.848874	2557.528581
587.201679	2557.407593
587.554428	2555.159238
587.907124	2555.474311
588.259765	2556.540515
588.612352	2555.925494
588.964884	2555.300391
589.317362	2557.551266
589.669786	2555.544887
590.022155	2555.310473
590.374470	2550.254196
590.726731	2553.478014
591.078937	2550.710420
591.431090	2557.067315
591.783188	2557.684857
592.135232	2558.330124
592.487222	2556.512788
592.839157	2552.487427
593.191038	2556.127140
593.542866	2554.897098
593.894639	2554.471121
594.246358	2555.781821
594.598022	2556.167469
594.949633	2555.547407
595.301190	2552.968857
595.652692	2557.168138
596.004141	2553.793086
596.355535	2555.214691
596.706876	2556.104455
597.058162	2553.170503
597.409395	2556.961451
597.760573	2553.767880
598.111698	2553.780483
598.462768	2554.806358
598.813785	2553.538508
599.164748	2554.965154
599.515657	2554.319886
599.866511	2553.145298
600.217312	2555.174362
600.568060	2553.581357
600.918753	2557.866338
601.269392	2555.348282
601.619978	2552.424412
601.970510	2553.357026
602.320988	2555.733930
602.671412	2553.367108
603.021783	2552.588250
603.372100	2555.262582
603.722363	2554.307283
604.072572	2555.519681
604.422728	2556.278375
604.772830	2553.523384
605.122878	2553.543549
605.472872	2553.780483
605.822813	2551.514484
606.172701	2553.518343
606.522534	2555.393652
606.872314	2552.305945
607.222041	2556.351471
607.571714	2554.151008
607.921333	2549.606408
608.270899	2553.639331
608.620411	2551.264947
608.969870	2556.447253
609.319276	2557.848694
609.668627	2562.289951
610.017926	2565.375137
610.367171	2569.702967
610.716362	2568.742628
611.065500	2568.530899
611.414585	2561.816082
611.763616	2561.352296
612.112594	2559.920608
612.461518	2558.136040
612.810389	2561.334652
613.159207	2558.141081
613.507971	2560.001267
613.856682	2557.352140
614.205340	2556.197716
614.553945	2558.788869
614.902496	2556.863148
615.250994	2556.104455
615.599439	2556.976574
615.947830	2554.065308
616.296169	2556.598488
616.644454	2556.318704
616.992686	2553.389793
617.340864	2554.952551
617.688990	2556.268292
618.037063	2555.791903
618.385082	2556.313663
618.733048	2556.202757
619.080961	2554.259392
619.428821	2554.629917
619.776628	2557.090000
620.124382	2556.091852
620.472083	2557.354661
620.819731	2557.377346
621.167326	2554.629917
621.514868	2555.426420
621.862357	2555.015566
622.209793	2557.510937
622.557176	2554.670247
622.904506	2557.697459
623.251783	2555.580175
623.599007	2555.698642
623.946179	2554.130843
624.293297	2555.585216
624.640363	2556.570762
624.987376	2552.590771
625.334336	2549.694628
625.681243	2552.621018
626.028097	2551.741336
626.374899	2554.040102
626.721647	2551.534649
627.068343	2556.999260
627.414987	2557.654610
627.761577	2555.479352
628.108115	2554.627397
628.454600	2556.278375
628.801032	2555.461708
629.147412	2557.778118
629.493739	2554.455998
629.840014	2557.052192
630.186236	2557.609239
630.532405	2553.888868
630.878521	2556.721996
631.224585	2555.416337
631.570597	2559.401369
631.916556	2557.946997
632.262462	2552.961295
632.608316	2557.314332
632.954117	2556.532953
633.299866	2556.094373
633.645562	2554.980277
633.991206	2556.903478
634.336797	2554.682849
634.682336	2555.149156
635.027823	2556.540515
635.373257	2556.104455
635.718639	2554.763508
636.063968	2559.212326
636.409245	2556.699311
636.754470	2554.524053
637.099642	2555.267623
637.444762	2555.887685
637.789829	2554.924825
638.134845	2558.045299
638.479808	2554.985319
638.824719	2554.493806
639.169577	2557.193344
639.514383	2555.255020
639.859137	2556.832902
640.203839	2557.654610
640.548489	2555.706204
640.893086	2556.875751
641.237632	2555.985988
641.582125	2556.477500
641.926566	2554.665205
642.270955	2553.593960
642.615292	2551.373332
642.959576	2553.294012
643.303809	2550.181099
643.647990	2556.227963
643.992118	2554.947510
644.336195	2557.430278
