Dividing Wavelength (nm)	Counts (n)	Blue Motor Position (mm): 20.800000	Red Motor Position (mm): 0.000000	
326.493990	2187.918743
326.888308	2187.918743
327.282561	2187.918743
327.676750	2145.936013
328.070874	2143.612041
328.464933	2145.739408
328.858929	2147.753349
329.252859	2151.844246
329.646726	2161.170380
330.040528	2173.944664
330.434265	2186.325738
330.827938	2203.271577
331.221547	2220.436705
331.615091	2237.926989
332.008571	2257.219484
332.401986	2275.513832
332.795338	2295.275155
333.188625	2312.120170
333.581847	2331.765547
333.975006	2350.362363
334.368100	2368.893645
334.761129	2387.959289
335.154095	2404.496794
335.546996	2425.863725
335.939833	2459.102572
336.332606	2475.156127
336.725315	2487.219608
337.117960	2502.312823
337.510540	2512.322034
337.903056	2523.581451
338.295508	2531.213758
338.687896	2538.959491
339.080220	2546.695141
339.472480	2552.968857
339.864676	2561.211144
340.256807	2563.865311
340.648875	2568.898903
341.040879	2572.755386
341.432818	2574.870150
341.824694	2580.569174
342.216506	2577.378124
342.608253	2580.211253
342.999937	2579.437435
343.391557	2581.111098
343.783113	2581.481623
344.174605	2579.820563
344.566033	2577.443659
344.957397	2576.107753
345.348697	2575.223031
345.739934	2573.758576
346.131106	2571.550550
346.522215	2569.193811
346.913260	2568.709860
347.304241	2562.862122
347.695159	2565.261711
348.086012	2562.985630
348.476802	2560.089487
348.867528	2557.972202
349.258191	2552.749567
349.648789	2551.731254
350.039324	2548.676315
350.429796	2552.033723
350.820203	2551.151521
351.210548	2549.475337
351.600828	2552.126984
351.991045	2546.803526
352.381198	2546.241437
352.771288	2544.421581
353.161314	2544.605583
353.551276	2545.933927
353.941175	2545.903680
354.331010	2546.014585
354.720782	2544.038453
355.110490	2545.359235
355.500135	2542.785726
355.889717	2546.324616
356.279235	2542.647095
356.668689	2543.617517
357.058080	2544.688762
357.447408	2544.925696
357.836672	2543.693134
358.225873	2544.552651
358.615010	2548.525080
359.004084	2544.245140
359.393095	2544.068700
359.782043	2546.017106
360.170927	2547.811757
360.559748	2548.678835
360.948505	2550.090358
361.337199	2549.041798
361.725830	2549.276212
362.114398	2551.413661
362.502903	2551.156562
362.891344	2550.972560
363.279722	2551.232180
363.668037	2553.344423
364.056289	2552.535318
364.444478	2553.735112
364.832603	2552.709238
365.220665	2554.564382
365.608665	2552.968857
365.996601	2554.080432
366.384474	2554.236707
366.772284	2555.723848
367.160031	2557.014383
367.547715	2559.401369
367.935336	2554.897098
368.322893	2556.452294
368.710388	2555.136553
369.097820	2554.466080
369.485189	2551.761501
369.872495	2560.921277
370.259738	2560.999415
370.646918	2559.124106
371.034035	2561.246432
371.421090	2559.497151
371.808081	2562.312636
372.195010	2563.431772
372.581875	2558.446071
372.968678	2562.325239
373.355418	2561.954714
373.742096	2561.483366
374.128710	2559.817265
374.515262	2562.136195
374.901751	2562.100907
375.288177	2564.427400
375.674540	2561.012018
376.060841	2561.730382
376.447079	2563.043603
376.833254	2563.076371
377.219367	2564.934036
377.605417	2563.827502
377.991404	2562.758778
378.377329	2564.049313
378.763191	2564.268603
379.148991	2564.654252
379.534727	2565.964952
379.920402	2563.376319
380.306013	2566.181721
380.691563	2565.158367
381.077049	2564.371947
381.462474	2567.245405
381.847835	2565.594427
382.233134	2563.530074
382.618371	2566.907647
383.003545	2566.748851
383.388657	2568.369582
383.773706	2569.488718
384.158693	2567.474777
384.543618	2566.479149
384.928480	2565.924623
385.313280	2568.606516
385.698017	2566.353121
386.082692	2566.711042
386.467305	2566.431258
386.851856	2573.546847
387.236344	2567.668862
387.620770	2566.058213
388.005133	2564.414797
388.389435	2568.175498
388.773674	2565.231464
389.157851	2569.249263
389.541965	2568.959397
389.926018	2572.067268
390.310008	2573.007444
390.693936	2573.176322
391.077802	2569.738255
391.461606	2572.823442
391.845348	2573.786302
392.229027	2572.248750
392.612645	2576.029615
392.996200	2575.132290
393.379694	2574.214800
393.763125	2573.592217
394.146494	2572.878894
394.529801	2572.561302
394.913047	2572.583987
395.296230	2574.078689
395.679351	2574.890315
396.062410	2574.043401
396.445408	2573.743452
396.828343	2574.474419
397.211217	2575.344018
397.594028	2572.652042
397.976778	2575.311251
398.359466	2575.243195
398.742092	2577.625141
399.124656	2576.127918
399.507158	2573.705643
399.889598	2578.708989
400.271977	2579.432394
400.654294	2575.127249
401.036549	2576.463155
401.418742	2580.702765
401.800874	2578.524987
402.182944	2578.542631
402.564952	2577.531879
402.946898	2580.289390
403.328783	2577.688155
403.710606	2580.667477
404.092367	2581.852148
404.474067	2577.221848
404.855705	2579.964236
405.237282	2579.818042
405.618797	2580.480954
406.000250	2579.248392
406.381642	2581.358115
406.762972	2577.763772
407.144240	2577.126066
407.525447	2579.099678
407.906593	2575.475088
408.287677	2581.166551
408.668700	2582.429360
409.049661	2581.242168
409.430560	2580.387693
409.811399	2581.942889
410.192176	2585.169227
410.572891	2583.286356
410.953545	2583.591346
411.334138	2584.070256
411.714669	2581.758887
412.095139	2585.335585
412.475547	2581.625296
412.855894	2583.316603
413.236180	2581.300142
413.616405	2584.017324
413.996568	2584.279464
414.376670	2585.859865
414.756711	2583.185533
415.136691	2583.626634
415.516609	2583.561099
415.896466	2584.362643
416.276262	2582.799885
416.655997	2584.965061
417.035670	2586.316090
417.415283	2588.128385
417.794834	2586.306007
418.174324	2585.035637
418.553753	2587.498240
418.933121	2587.916656
419.312428	2587.725092
419.691674	2586.585792
420.070859	2588.309866
420.449983	2586.787438
420.829045	2587.276430
421.208047	2589.676019
421.586988	2586.114444
421.965867	2590.596029
422.344686	2589.560072
422.723444	2588.564444
423.102141	2590.991760
423.480777	2588.352716
423.859352	2589.645772
424.237866	2589.270206
424.616319	2587.972109
424.994712	2593.585434
425.373044	2592.436051
425.751314	2585.582602
426.129524	2584.660071
426.507673	2587.956985
426.885762	2586.298446
427.263789	2589.764239
427.641756	2591.957141
428.019662	2590.432192
428.397508	2591.082501
428.775292	2590.285998
429.153016	2590.800196
429.530679	2592.302460
429.908282	2590.696853
430.285824	2592.955289
430.663305	2593.673654
431.040726	2593.582913
431.418086	2592.425968
431.795385	2594.296236
432.172624	2592.844384
432.549802	2590.424630
432.926920	2592.970413
433.303977	2594.518047
433.680974	2594.717173
434.057910	2592.640217
434.434786	2596.090887
434.811601	2594.754981
435.188355	2595.221288
435.565050	2595.813624
435.941683	2597.396546
436.318257	2595.180959
436.694770	2595.490990
437.071222	2594.865887
437.447614	2595.337235
437.823946	2598.412338
438.200218	2594.618870
438.576429	2594.709611
438.952580	2596.905033
439.328670	2595.042327
439.704700	2596.153902
440.080670	2595.375043
440.456580	2597.381422
440.832429	2597.933429
441.208218	2596.461412
441.583947	2598.215733
441.959616	2597.492328
442.335224	2598.283789
442.710773	2599.783532
443.086261	2600.824531
443.461689	2597.459560
443.837057	2599.254211
444.212365	2598.508120
444.587612	2597.716659
444.962800	2597.086515
445.337927	2599.213882
445.712995	2594.293716
446.088002	2599.750765
446.462949	2599.874273
446.837837	2600.653131
447.212664	2598.563573
447.587431	2600.459047
447.962139	2600.390991
448.336786	2607.660335
448.711374	2604.607917
449.085901	2605.263267
449.460369	2604.575149
449.834776	2604.348297
450.209124	2603.788729
450.583412	2605.825355
450.957640	2607.304934
451.331808	2604.738987
451.705917	2602.810745
452.079965	2605.979110
452.453954	2603.602206
452.827883	2606.054728
453.201752	2604.986003
453.575562	2603.377875
453.949311	2605.459872
454.323001	2604.726384
454.696632	2604.023143
455.070202	2607.499018
455.443713	2605.971549
455.817164	2608.550099
456.190556	2607.239399
456.563888	2612.716612
456.937160	2610.314503
457.310373	2610.967332
457.683526	2609.109667
458.056619	2608.698813
458.429653	2609.787702
458.802628	2611.126128
459.175542	2611.002620
459.548398	2613.129987
459.921194	2612.784668
460.293930	2611.811725
460.666607	2616.416819
461.039224	2613.457662
461.411782	2616.530245
461.784280	2618.443363
462.156719	2617.230966
462.529099	2618.060236
462.901419	2617.165431
463.273680	2613.573609
463.645882	2612.255347
464.018024	2612.134359
464.390106	2611.063114
464.762130	2619.096193
465.134094	2618.244238
465.505999	2622.743468
465.877845	2627.819909
466.249631	2629.675054
466.621358	2630.993316
466.993026	2631.033645
467.364634	2633.070271
467.736184	2629.551546
468.107674	2627.172121
468.479105	2626.216822
468.850477	2629.773357
469.221790	2630.350569
469.593043	2628.296298
469.964238	2629.722945
470.335373	2629.589354
470.706449	2629.065074
471.077467	2630.138840
471.448425	2633.924747
471.819324	2639.515386
472.190164	2645.637868
472.560945	2642.038484
472.931667	2639.669142
473.302330	2639.805253
473.672934	2640.818525
474.043479	2642.691313
474.413965	2640.785757
474.784393	2644.914462
475.154761	2648.130718
475.525070	2649.648106
475.895321	2651.732623
476.265513	2657.267810
476.635645	2661.157060
477.005719	2663.539005
477.375734	2667.937412
477.745691	2670.200890
478.115588	2675.415963
478.485427	2683.325534
478.855207	2689.962213
479.224928	2703.961497
479.594591	2723.720300
479.964194	2731.387895
480.333739	2736.663462
480.703226	2740.802249
481.072653	2747.779206
481.442022	2760.893768
481.811333	2779.404885
482.180584	2785.819753
482.549777	2795.599592
482.918912	2797.444654
483.287988	2819.471976
483.657005	2834.827330
484.025964	2845.058352
484.394864	2859.718027
484.763706	2872.106663
485.132489	2884.623848
485.501213	2902.688823
485.869879	2929.701846
486.238487	2950.577264
486.607036	2978.023826
486.975527	2994.505878
487.343959	3033.521889
487.712333	3056.628017
488.080648	3084.860999
488.448905	3125.575878
488.817104	3157.982936
489.185244	3215.023592
489.553326	3258.190992
489.921350	3332.875686
490.289315	3476.067141
490.657222	3606.166719
491.025070	3682.015919
491.392861	3733.617170
491.760593	3764.348044
492.128267	3785.024337
492.495883	3797.332314
492.863440	3825.303156
493.230939	3843.277390
493.598380	3920.107095
493.965763	3970.705156
494.333088	4012.022453
494.700354	4081.499635
495.067563	4164.068694
495.434713	4230.256524
495.801805	4304.961383
496.168839	4390.781986
496.535815	4472.403307
496.902733	4577.244184
497.269593	4620.565340
497.636395	4748.840020
498.003139	4842.769319
498.369825	4937.404379
498.736453	5037.695615
499.103023	5115.435248
499.469535	5236.249021
499.835989	5369.262385
500.202385	5498.938506
500.568723	5539.678591
500.935003	5669.763046
501.301226	5748.737762
501.667390	5970.246062
502.033497	6166.294014
502.399546	6212.942331
502.765537	6307.506816
503.131470	6475.034440
503.497345	6633.908924
503.863163	6623.287213
504.228923	6866.790068
504.594625	7052.085239
504.960269	7076.141625
505.325856	7331.528999
505.691385	7363.769699
506.056856	7612.790096
506.422270	7793.641490
506.787625	7821.705594
507.152924	8109.789892
507.518164	8233.973676
507.883347	8326.534302
508.248472	8397.480980
508.613540	8768.938401
508.978550	8906.491325
509.343503	9056.105210
509.708398	9301.727869
510.073236	9500.238425
510.438016	9729.996573
510.802738	9821.632148
511.167403	10062.092665
511.532010	10126.891657
511.896561	10568.826929
512.261053	10769.953844
512.625488	10869.718279
512.989866	11006.504948
513.354186	11104.270565
513.718449	11361.379493
514.082655	11652.463278
514.446803	11770.428798
514.810894	12112.670212
515.174927	12085.624422
515.538904	12282.541974
515.902822	12670.171416
516.266684	12789.198100
516.630488	12901.283114
516.994235	13109.906225
517.357925	13409.703644
517.721558	13706.362945
518.085133	13938.321557
518.448651	14084.167179
518.812112	14155.847346
519.175516	14383.578950
519.538863	14706.225399
519.902152	14755.477472
520.265385	15120.136897
520.628560	15183.584860
520.991678	15389.881478
521.354739	15616.095695
521.717743	15853.649988
522.080690	15892.348405
522.443580	16308.097404
522.806413	16456.834128
523.169189	16724.935292
523.531908	16905.209474
523.894569	16883.156947
524.257174	17105.844877
524.619722	17402.441163
524.982213	17365.882716
525.344647	17640.010580
525.707025	17861.284466
526.069345	18065.536896
526.431608	18212.461325
526.793815	18549.470022
527.155964	18275.526160
527.518057	18590.535261
527.880093	18723.626763
528.242072	18983.120158
528.603995	18946.644889
528.965860	18967.694227
529.327669	19214.519202
529.689421	19322.500717
530.051117	19341.566361
530.412755	19680.450366
530.774337	19628.554208
531.135862	19685.897333
531.497331	19988.868159
531.858743	19774.593914
532.220098	20316.928807
532.581396	20145.965636
532.942638	20302.390119
533.303824	20467.286262
533.664953	20604.937488
534.026025	20478.908642
534.387040	20766.627456
534.747999	20987.823205
535.108902	21214.924665
535.469748	20927.803227
535.830537	21218.902135
536.191270	21389.855224
536.551947	21451.236313
536.912567	21255.299266
537.273131	21601.132502
537.633638	21467.680557
537.994089	21771.518461
538.354483	21474.344962
538.714821	21992.255465
539.075103	22140.510758
539.435328	22035.821116
539.795497	21726.669836
540.155609	22188.058921
540.515665	22525.745653
540.875665	21918.621851
541.235609	22247.347932
541.595496	22333.733144
541.955328	22706.992777
542.315102	22712.790104
542.674821	22414.885638
543.034483	22352.493798
543.394090	22569.215522
543.753640	22437.195265
544.113134	23088.966046
544.472571	22797.680615
544.831953	23128.985245
545.191278	22799.402169
545.550548	22822.074758
545.909761	23052.460530
546.268918	23318.832579
546.628019	23331.813550
546.987064	23126.384010
547.346053	22946.256021
547.704986	23115.543009
548.063863	23312.609274
548.422684	23313.390653
548.781449	22951.803811
549.140158	23378.855077
549.498811	23020.524820
549.857408	22784.487915
550.215949	23264.151183
550.574434	22970.163693
550.932864	23218.601837
551.291237	23373.760991
551.649555	23289.145224
552.007817	23373.208985
552.366022	23270.016565
552.724173	23348.958514
553.082267	23303.877996
553.440305	23785.766933
553.798288	23107.383901
554.156215	23651.863805
554.514086	23734.289191
554.871902	23132.992963
555.229661	23443.749850
555.587365	23328.761131
555.945014	23170.484024
556.302606	23464.869764
556.660143	23396.728488
557.017625	23673.248379
557.375050	23247.659048
557.732421	23635.384273
558.089735	23455.594041
558.446994	23539.224263
558.804197	23558.970463
559.161345	23550.899575
559.518437	23289.356952
559.875474	23520.713146
560.232455	23687.048538
560.589381	23545.162742
560.946251	23506.360981
561.303065	23858.349466
561.659825	23939.020531
562.016528	23556.575915
562.373177	23302.131236
562.729770	23656.541995
563.086307	23541.417165
563.442789	23724.670669
563.799216	23544.598133
564.155587	23563.777203
564.511904	23547.595099
564.868164	23482.813752
565.224370	23487.096212
565.580520	23378.696281
565.936615	23522.328836
566.292654	23184.977341
566.648638	23518.661397
567.004567	23345.464994
567.360441	23300.296256
567.716260	23026.291900
568.072023	23361.042160
568.427732	23117.705664
568.783385	22916.495570
569.138982	23128.287046
569.494525	23181.718235
569.850013	22923.054111
570.205445	23025.598742
570.560823	22833.283764
570.916145	22609.206996
571.271412	22771.295215
571.626625	22547.432697
571.981782	22643.554898
572.336884	22451.570115
572.691931	22596.215942
573.046923	22328.616373
573.401860	22212.720246
573.756743	22203.094162
574.111570	22121.180454
574.466342	22066.786404
574.821059	22159.273933
575.175722	21867.751567
575.530330	21851.501408
575.884882	21874.736086
576.239380	21789.540586
576.593823	21667.166577
576.948211	21657.351450
577.302544	21502.986278
577.656823	21374.078933
578.011047	21471.237091
578.365216	21349.175633
578.719330	21221.578988
579.073389	21128.864607
579.427394	21281.813215
579.781344	21065.038558
580.135239	20941.023653
580.489080	20919.271074
580.842866	20685.117040
581.196597	20866.591017
581.550273	20852.221207
581.903895	20742.177860
582.257463	21059.866334
582.610975	20580.402192
582.964434	20880.242461
583.317837	20608.194073
583.671186	20696.668844
584.024481	20658.424130
584.377721	20441.778023
584.730906	20484.895012
585.084037	20526.998729
585.437113	20424.844787
585.790135	20618.067173
586.143103	20092.819272
586.496016	20102.851168
586.848874	20341.295224
587.201679	20303.799122
587.554428	19957.164342
587.907124	20279.011768
588.259765	20071.684234
588.612352	20155.264044
588.964884	19717.132322
589.317362	19888.317304
589.669786	19943.928793
590.022155	19993.727831
590.374470	20162.634211
590.726731	19983.937910
591.078937	19717.298680
591.431090	19826.321194
591.783188	19575.664942
592.135232	19551.054029
592.487222	19651.093207
592.839157	19680.692342
593.191038	19557.947807
593.542866	19451.327403
593.894639	19173.983283
594.246358	19392.658455
594.598022	19302.378951
594.949633	19063.927333
595.301190	19001.593466
595.652692	19170.010854
596.004141	19422.965872
596.355535	18748.421679
596.706876	18765.581766
597.058162	18653.650507
597.409395	18868.796871
597.760573	18973.100864
598.111698	18743.975381
598.462768	18679.428447
598.813785	18633.579153
599.164748	18471.924472
599.515657	18484.247573
599.866511	18290.326988
600.217312	18637.662487
600.568060	18175.497065
600.918753	18489.402153
601.269392	18396.798677
601.619978	18169.203184
601.970510	18375.151963
602.320988	18320.831009
602.671412	18546.936842
603.021783	18429.447710
603.372100	18177.521088
603.722363	18299.950550
604.072572	18242.831757
604.422728	18376.354278
604.772830	18143.521026
605.122878	18083.543898
605.472872	18088.905165
605.822813	18070.598215
606.172701	18020.973096
606.522534	18237.069718
606.872314	18261.857071
607.222041	18088.287624
607.571714	18303.980953
607.921333	18139.246127
608.270899	18203.672073
608.620411	18399.949398
608.969870	18164.963574
609.319276	18170.665119
609.668627	18197.373152
610.017926	18326.724118
610.367171	18449.488817
610.716362	18483.927460
611.065500	18313.402869
611.414585	18428.951157
611.763616	18418.805834
612.112594	18374.864617
612.461518	18339.599225
612.810389	18544.234783
613.159207	18392.138131
613.507971	18287.423283
613.856682	18568.732270
614.205340	18505.667436
614.553945	18650.310742
614.902496	18379.784783
615.250994	18641.037540
615.599439	18564.190191
615.947830	18562.624913
616.296169	18598.601107
616.644454	18578.267613
616.992686	18542.354433
617.340864	18747.277337
617.688990	18517.292337
618.037063	18695.444193
618.385082	18537.441828
618.733048	18818.750816
619.080961	18684.129323
619.428821	18720.229026
619.776628	18628.162433
620.124382	18538.024082
620.472083	18572.432477
620.819731	18600.115974
621.167326	18295.673131
621.514868	18328.584304
621.862357	18080.005008
622.209793	18102.828832
622.557176	17939.228266
622.904506	17765.232841
623.251783	17666.378335
623.599007	17445.318698
623.946179	17389.682003
624.293297	17330.471131
624.640363	17086.718739
624.987376	17110.828058
625.334336	16905.980771
625.681243	16744.767192
626.028097	16746.564363
626.374899	16683.756627
626.721647	16552.101853
627.068343	16379.399484
627.414987	16311.638815
627.761577	16285.253416
628.108115	16330.112123
628.454600	16049.105605
628.801032	16148.970863
629.147412	16088.134218
629.493739	16107.530057
629.840014	15911.000675
630.186236	16014.795512
630.532405	15778.541837
630.878521	15979.845192
631.224585	15866.827564
631.570597	15684.617579
631.916556	15731.843108
632.262462	15702.112903
632.608316	15626.026768
632.954117	15560.423713
633.299866	15557.136880
633.645562	15470.126565
633.991206	15235.506224
634.336797	15098.777529
634.682336	15072.618981
635.027823	14971.082581
635.373257	14848.612790
635.718639	14746.297531
636.063968	14693.738461
636.409245	14447.094968
636.754470	14478.881964
637.099642	14321.098889
637.444762	14097.942132
637.789829	14141.510304
638.134845	13979.989214
638.479808	13999.730373
638.824719	13958.491214
639.169577	13801.335763
