Dividing Wavelength (nm)	Counts (n)	Blue Motor Position (mm): 18.500000	Red Motor Position (mm): 0.000000	
326.493990	2181.594615
326.888308	2181.594615
327.282561	2181.594615
327.676750	2138.202883
328.070874	2137.802112
328.464933	2136.040228
328.858929	2139.284211
329.252859	2145.217649
329.646726	2154.916829
330.040528	2167.716318
330.434265	2177.622186
330.827938	2196.259332
331.221547	2214.205839
331.615091	2230.944991
332.008571	2249.660274
332.401986	2264.950094
332.795338	2288.855245
333.188625	2305.508697
333.581847	2322.661223
333.975006	2340.123780
334.368100	2361.520958
334.761129	2377.594677
335.154095	2395.997409
335.546996	2419.859710
335.939833	2447.767538
336.332606	2464.728500
336.725315	2477.364152
337.117960	2490.176245
337.510540	2501.029849
337.903056	2511.820439
338.295508	2522.958868
338.687896	2529.474560
339.080220	2538.790612
339.472480	2544.895449
339.864676	2550.833928
340.256807	2554.929866
340.648875	2559.585372
341.040879	2561.591751
341.432818	2563.162070
341.824694	2568.893862
342.216506	2572.273956
342.608253	2570.338153
342.999937	2570.111301
343.391557	2568.714901
343.783113	2570.481826
344.174605	2568.389747
344.566033	2567.197514
344.957397	2565.357493
345.348697	2565.670044
345.739934	2561.317008
346.131106	2560.492779
346.522215	2558.995557
346.913260	2556.303580
347.304241	2555.554969
347.695159	2553.359547
348.086012	2551.764021
348.476802	2549.568599
348.867528	2546.465769
349.258191	2543.156251
349.648789	2543.055428
350.039324	2540.570139
350.429796	2543.667928
350.820203	2540.655839
351.210548	2539.564429
351.600828	2540.572660
351.991045	2537.963863
352.381198	2534.508152
352.771288	2536.806918
353.161314	2536.542257
353.551276	2533.313398
353.941175	2533.615868
354.331010	2534.493028
354.720782	2532.726104
355.110490	2533.240302
355.500135	2533.404139
355.889717	2533.570497
356.279235	2535.569315
356.668689	2536.388502
357.058080	2533.484797
357.447408	2536.111239
357.836672	2534.114942
358.225873	2534.974458
358.615010	2533.257946
359.004084	2537.200128
359.393095	2538.291538
359.782043	2537.361445
360.170927	2537.888245
360.559748	2538.417567
360.948505	2537.248019
361.337199	2540.953267
361.725830	2541.124666
362.114398	2539.173740
362.502903	2540.877650
362.891344	2539.216589
363.279722	2539.725746
363.668037	2539.675334
364.056289	2541.558205
364.444478	2542.216076
364.832603	2541.215407
365.220665	2544.230017
365.608665	2542.959646
365.996601	2543.768751
366.384474	2548.978784
366.772284	2546.153217
367.160031	2544.971067
367.547715	2546.135573
367.935336	2549.165307
368.322893	2544.310675
368.710388	2544.857641
369.097820	2545.293700
369.485189	2542.710109
369.872495	2549.734957
370.259738	2547.658002
370.646918	2546.599359
371.034035	2548.762014
371.421090	2547.831921
371.808081	2550.251675
372.195010	2550.907025
372.581875	2550.826367
372.968678	2550.334854
373.355418	2550.977601
373.742096	2551.403579
374.128710	2550.226469
374.515262	2551.350647
374.901751	2553.682180
375.288177	2552.772252
375.674540	2552.142108
376.060841	2550.763352
376.447079	2552.888199
376.833254	2551.085986
377.219367	2552.363919
377.605417	2554.614794
377.991404	2552.192519
378.377329	2555.630586
378.763191	2552.300904
379.148991	2553.044474
379.534727	2551.796789
379.920402	2554.476162
380.306013	2550.801161
380.691563	2555.726368
381.077049	2553.117571
381.462474	2555.373487
381.847835	2554.140925
382.233134	2557.778118
382.618371	2555.156718
383.003545	2555.537325
383.388657	2552.124464
383.773706	2555.834753
384.158693	2557.337017
384.543618	2558.652758
384.928480	2556.832902
385.313280	2556.628735
385.698017	2558.423386
386.082692	2555.575134
386.467305	2556.729558
386.851856	2561.027142
387.236344	2559.136709
387.620770	2556.122099
388.005133	2556.532953
388.389435	2555.801986
388.773674	2555.139074
389.157851	2560.727193
389.541965	2558.977912
389.926018	2559.141750
390.310008	2558.841801
390.693936	2560.122254
391.077802	2560.175187
391.461606	2561.586710
391.845348	2561.120403
392.229027	2562.037893
392.612645	2561.032183
392.996200	2560.810372
393.379694	2561.692574
393.763125	2562.627708
394.146494	2563.015877
394.529801	2564.119889
394.913047	2562.892368
395.296230	2561.800959
395.679351	2561.291802
396.062410	2562.496638
396.445408	2565.390260
396.828343	2564.699622
397.211217	2562.499158
397.594028	2564.833213
397.976778	2562.110990
398.359466	2563.683830
398.742092	2566.829510
399.124656	2566.068295
399.507158	2564.560990
399.889598	2568.157854
400.271977	2564.727348
400.654294	2565.239026
401.036549	2567.449572
401.418742	2564.750034
401.800874	2565.934705
402.182944	2566.247256
402.564952	2565.556618
402.946898	2567.401681
403.328783	2566.458985
403.710606	2569.098029
404.092367	2566.653069
404.474067	2567.361351
404.855705	2567.232802
405.237282	2566.637946
405.618797	2566.897565
406.000250	2572.397464
406.381642	2569.483677
406.762972	2565.947308
407.144240	2562.216854
407.525447	2565.009653
407.906593	2568.518296
408.287677	2568.450241
408.668700	2569.929819
409.049661	2569.806311
409.430560	2571.454768
409.811399	2570.743966
410.192176	2570.912844
410.572891	2570.315468
410.953545	2571.744635
411.334138	2571.522824
411.714669	2570.096177
412.095139	2571.192628
412.475547	2573.199007
412.855894	2571.220355
413.236180	2571.805128
413.616405	2573.992989
413.996568	2570.635581
414.376670	2570.970817
414.756711	2572.195818
415.136691	2572.387382
415.516609	2571.858061
415.896466	2574.918041
416.276262	2575.404512
416.655997	2574.056004
417.035670	2572.581466
417.415283	2574.519790
417.794834	2571.497618
418.174324	2574.106415
418.553753	2575.825449
418.933121	2573.801425
419.312428	2574.096333
419.691674	2575.404512
420.070859	2573.042732
420.449983	2574.550037
420.829045	2572.765468
421.208047	2573.015005
421.586988	2575.780078
421.965867	2575.916189
422.344686	2577.471385
422.723444	2577.781416
423.102141	2574.071127
423.480777	2577.514235
423.859352	2578.772003
424.237866	2577.133628
424.616319	2576.717733
424.994712	2578.303176
425.373044	2576.747980
425.751314	2573.814028
426.129524	2574.716395
426.507673	2574.802094
426.885762	2573.267063
427.263789	2574.577763
427.641756	2575.485171
428.019662	2579.147569
428.397508	2578.769482
428.775292	2579.381983
429.153016	2577.060531
429.530679	2579.913824
429.908282	2577.410892
430.285824	2579.558423
430.663305	2580.365008
431.040726	2579.084555
431.418086	2578.686303
431.795385	2580.317117
432.172624	2579.999524
432.549802	2580.745615
432.926920	2580.415419
433.303977	2578.953485
433.680974	2578.623289
434.057910	2579.024061
434.434786	2579.414750
434.811601	2579.679411
435.188355	2577.020202
435.565050	2577.569688
435.941683	2578.703947
436.318257	2583.982036
436.694770	2581.920204
437.071222	2582.290728
437.447614	2582.386510
437.823946	2580.677559
438.200218	2579.210583
438.576429	2582.358784
438.952580	2580.599421
439.328670	2580.370049
439.704700	2581.146387
440.080670	2583.775348
440.456580	2582.656212
440.832429	2583.997159
441.208218	2584.218970
441.583947	2584.672674
441.959616	2583.777869
442.335224	2583.092272
442.710773	2582.580595
443.086261	2585.065884
443.461689	2584.380287
443.837057	2586.197623
444.212365	2585.181830
444.587612	2582.104206
444.962800	2579.860892
445.337927	2582.404154
445.712995	2580.039853
446.088002	2582.656212
446.462949	2585.814495
446.837837	2585.368353
447.212664	2592.425968
447.587431	2587.730133
447.962139	2585.801892
448.336786	2587.316759
448.711374	2590.626276
449.085901	2588.685432
449.460369	2586.711820
449.834776	2587.054619
450.209124	2589.073601
450.583412	2588.720720
450.957640	2588.052767
451.331808	2590.616194
451.705917	2586.134608
452.079965	2589.663416
452.453954	2587.825915
452.827883	2589.008066
453.201752	2588.143508
453.575562	2591.521081
453.949311	2588.166193
454.323001	2590.374219
454.696632	2589.754157
455.070202	2590.417068
455.443713	2592.383118
455.817164	2593.386308
456.190556	2591.853797
456.563888	2591.720207
456.937160	2593.993767
457.310373	2591.803386
457.683526	2590.099476
458.056619	2592.446133
458.429653	2589.650813
458.802628	2592.410845
459.175542	2593.608119
459.548398	2595.049889
459.921194	2593.925712
460.293930	2595.370002
460.666607	2591.795824
461.039224	2597.061309
461.411782	2599.881835
461.784280	2596.209354
462.156719	2595.922008
462.529099	2599.690271
462.901419	2596.660537
463.273680	2595.385126
463.645882	2592.642738
464.018024	2592.269692
464.390106	2590.638879
464.762130	2597.467122
465.134094	2598.167843
465.505999	2601.295878
465.877845	2602.301589
466.249631	2605.273349
466.621358	2606.573967
466.993026	2604.272680
467.364634	2607.438524
467.736184	2601.265632
468.107674	2600.995930
468.479105	2599.418049
468.850477	2604.277721
469.221790	2605.106991
469.593043	2602.278903
469.964238	2604.907865
470.335373	2603.655138
470.706449	2600.862339
471.077467	2603.370313
471.448425	2604.802001
471.819324	2605.873246
472.190164	2609.770058
472.560945	2609.581015
472.931667	2607.425922
473.302330	2603.347628
473.672934	2602.959459
474.043479	2605.868205
474.413965	2604.600355
474.784393	2603.781167
475.154761	2606.190839
475.525070	2609.606221
475.895321	2605.616147
476.265513	2605.626230
476.635645	2606.226127
477.005719	2608.189656
477.375734	2608.058586
477.745691	2608.209821
478.115588	2609.069338
478.485427	2609.306272
478.855207	2611.453803
479.224928	2613.475306
479.594591	2617.339351
479.964194	2615.879937
480.333739	2618.362705
480.703226	2617.664505
481.072653	2619.156687
481.442022	2620.593415
481.811333	2619.310442
482.180584	2619.691049
482.549777	2618.196347
482.918912	2617.639299
483.287988	2623.915536
483.657005	2620.517798
484.025964	2623.955865
484.394864	2624.485186
484.763706	2622.783797
485.132489	2622.410751
485.501213	2623.771863
485.869879	2623.272789
486.238487	2625.460649
486.607036	2626.695732
486.975527	2628.646659
487.343959	2627.232615
487.712333	2627.456946
488.080648	2630.484159
488.448905	2631.580610
488.817104	2630.632873
489.185244	2632.974489
489.553326	2633.713018
489.921350	2637.004892
490.289315	2642.547640
490.657222	2646.835142
491.025070	2646.966212
491.392861	2649.438898
491.760593	2650.661377
492.128267	2652.927376
492.495883	2647.987045
492.863440	2647.288846
493.230939	2647.127529
493.598380	2650.555513
493.965763	2650.961326
494.333088	2650.442087
494.700354	2654.112047
495.067563	2654.822850
495.434713	2656.947696
495.801805	2660.095897
496.168839	2660.753767
496.535815	2662.044303
496.902733	2668.938081
497.269593	2671.504028
497.636395	2676.504853
498.003139	2681.107426
498.369825	2682.181192
498.736453	2686.193950
499.103023	2691.426668
499.469535	2696.462781
499.835989	2702.446630
500.202385	2704.107691
500.568723	2706.782023
500.935003	2717.378528
501.301226	2720.773745
501.667390	2738.498442
502.033497	2746.448342
502.399546	2753.606780
502.765537	2759.988881
503.131470	2770.643360
503.497345	2779.588887
503.863163	2786.593570
504.228923	2800.192083
504.594625	2817.853765
504.960269	2824.649241
505.325856	2839.634071
505.691385	2852.680577
506.056856	2871.768906
506.422270	2888.717265
506.787625	2900.508524
507.152924	2922.825712
507.518164	2942.355142
507.883347	2956.752677
508.248472	2976.839155
508.613540	3011.020698
508.978550	3031.502907
509.343503	3062.808472
509.708398	3089.589602
510.073236	3119.891978
510.438016	3156.417658
510.802738	3177.333405
511.167403	3220.170610
511.532010	3239.450503
511.896561	3304.004998
512.261053	3339.761903
512.625488	3376.864795
512.989866	3406.151378
513.354186	3440.088426
513.718449	3490.300839
514.082655	3548.594221
514.446803	3592.520315
514.810894	3659.103875
515.174927	3684.544058
515.538904	3739.795104
515.902822	3823.069925
516.266684	3868.483159
516.630488	3918.559461
516.994235	3973.170280
517.357925	4051.456879
517.721558	4134.777070
518.085133	4203.220816
518.448651	4268.244138
518.812112	4317.629802
519.175516	4397.317842
519.538863	4494.944827
519.902152	4545.333680
520.265385	4653.353004
520.628560	4708.263772
520.991678	4798.137463
521.354739	4887.093664
521.717743	4982.242922
522.080690	5037.025141
522.443580	5176.148384
522.806413	5246.117079
523.169189	5370.910843
523.531908	5441.429023
523.894569	5517.444582
524.257174	5616.110045
524.619722	5743.628552
524.982213	5792.053876
525.344647	5918.768319
525.707025	6029.177150
526.069345	6145.184182
526.431608	6251.910451
526.793815	6397.365383
527.155964	6396.102574
527.518057	6542.238062
527.880093	6647.104145
528.242072	6755.922492
528.603995	6830.276990
528.965860	6911.951244
529.327669	7075.367808
529.689421	7154.781104
530.051117	7239.356542
530.412755	7422.297495
530.774337	7469.180226
531.135862	7577.680980
531.497331	7741.069817
531.858743	7765.658045
532.220098	8031.982203
532.581396	8033.918006
532.942638	8207.857978
533.303824	8322.856780
533.664953	8470.365983
534.026025	8537.151189
534.387040	8688.370681
534.747999	8883.332264
535.108902	9028.207464
535.469748	9032.565542
535.830537	9230.387980
536.191270	9369.480977
536.551947	9525.570223
536.912567	9513.242082
537.273131	9748.903421
537.633638	9790.893712
537.994089	10035.452688
538.354483	10005.236012
538.714821	10313.991561
539.075103	10503.337300
539.435328	10562.079345
539.795497	10538.549759
540.155609	10830.543473
540.515665	11063.258257
540.875665	10929.287073
541.235609	11153.104222
541.595496	11318.045735
541.955328	11579.016187
542.315102	11687.511900
542.674821	11680.494614
543.034483	11752.197466
543.394090	11938.803337
543.753640	12000.398675
544.113134	12395.872153
544.472571	12398.980025
544.831953	12709.106768
545.191278	12640.617652
545.550548	12801.175881
545.909761	12973.558137
546.268918	13265.952622
546.628019	13383.605591
546.987064	13449.319552
547.346053	13470.585659
547.704986	13642.698213
548.063863	13884.401376
548.422684	13962.123365
548.781449	13938.525724
549.140158	14260.514303
549.498811	14237.506476
549.857408	14190.444785
550.215949	14575.689762
550.574434	14525.787380
550.932864	14794.175890
551.291237	14981.795033
551.649555	15083.154993
552.007817	15239.685340
552.366022	15321.583926
552.724173	15446.954901
553.082267	15555.889195
553.440305	15961.318952
553.798288	15669.920095
554.156215	16124.438087
554.514086	16296.079293
554.871902	16037.692432
555.229661	16340.781725
555.587365	16395.700055
555.945014	16395.521094
556.302606	16731.624903
556.660143	16762.010458
557.017625	17086.363338
557.375050	16912.788849
557.732421	17266.957633
558.089735	17295.672046
558.446994	17433.219928
558.804197	17595.030884
559.161345	17699.435701
559.518437	17576.040858
559.875474	17903.569664
560.232455	18117.957335
560.589381	18146.127302
560.946251	18198.391465
561.303065	18590.845292
561.659825	18746.780783
562.016528	18571.341068
562.373177	18499.353391
562.729770	18844.453139
563.086307	18913.065763
563.442789	19126.024266
563.799216	19096.326829
564.155587	19193.878197
564.511904	19303.460279
564.868164	19317.129367
565.224370	19459.710842
565.580520	19420.853628
565.936615	19655.075718
566.292654	19459.743610
566.648638	19850.309525
567.004567	19757.353168
567.360441	19822.830195
567.716260	19677.085396
568.072023	20052.560617
568.427732	19920.187479
568.783385	19817.295008
569.138982	20083.359546
569.494525	20219.054805
569.850013	20085.862479
570.205445	20247.098744
570.560823	20119.920515
570.916145	20027.919457
571.271412	20215.631862
571.626625	20106.286714
571.981782	20244.719319
572.336884	20129.949890
572.691931	20317.185906
573.046923	20129.995261
573.401860	20125.107862
573.756743	20190.867193
574.111570	20169.487660
574.466342	20157.315794
574.821059	20304.146961
575.175722	20078.489792
575.530330	20149.249948
575.884882	20220.630166
576.239380	20192.576144
576.593823	20140.422887
576.948211	20157.777059
577.302544	20062.842050
577.656823	19999.139510
578.011047	20131.094232
578.365216	20057.753005
578.719330	19985.104937
579.073389	19927.933212
579.427394	20118.753488
579.781344	19935.832700
580.135239	19886.416789
580.489080	19882.837570
580.842866	19689.544608
581.196597	19908.718854
581.550273	19900.390867
581.903895	19855.290185
582.257463	20173.427322
582.610975	19757.940463
582.964434	20065.193748
583.317837	19827.145423
583.671186	19936.735066
584.024481	19922.992881
584.377721	19746.870089
584.730906	19809.592125
585.084037	19873.387927
585.437113	19799.061155
585.790135	20016.556696
586.143103	19535.562564
586.496016	19547.880623
586.848874	19817.589916
587.201679	19781.223032
587.554428	19467.932964
587.907124	19802.905034
588.259765	19608.384552
588.612352	19713.474965
588.964884	19303.545978
589.317362	19495.079578
589.669786	19553.655265
590.022155	19625.537078
590.374470	19795.943201
590.726731	19642.981990
591.078937	19398.314630
591.431090	19518.848618
591.783188	19266.427963
592.135232	19254.183000
592.487222	19378.734788
592.839157	19424.115255
593.191038	19298.666142
593.542866	19203.312717
593.894639	18942.687583
594.246358	19169.209311
594.598022	19091.845243
594.949633	18855.115179
595.301190	18809.089445
595.652692	18986.643924
596.004141	19239.147759
596.355535	18573.171006
596.706876	18596.718236
597.058162	18481.495103
597.409395	18715.762563
597.760573	18825.470674
598.111698	18601.678731
598.462768	18541.925935
598.813785	18508.850924
599.164748	18338.500254
599.515657	18379.608343
599.866511	18171.176796
600.217312	18537.739257
600.568060	18066.729129
600.918753	18384.029435
601.269392	18288.348335
601.619978	18060.803253
601.970510	18290.969735
602.320988	18224.948263
602.671412	18453.055434
603.021783	18349.658848
603.372100	18093.318695
603.722363	18222.064723
604.072572	18161.606165
604.422728	18297.651784
604.772830	18061.619920
605.122878	18009.454060
605.472872	18010.696704
605.822813	18003.384511
606.172701	17951.984906
606.522534	18167.416095
606.872314	18191.013736
607.222041	18026.170526
607.571714	18242.486437
607.921333	18069.474038
608.270899	18136.639851
608.620411	18339.914297
608.969870	18099.189119
609.319276	18109.883927
609.668627	18143.168145
610.017926	18268.206404
610.367171	18384.644455
610.716362	18427.544675
611.065500	18255.172501
611.414585	18390.376247
611.763616	18359.673100
612.112594	18313.957396
612.461518	18280.826933
612.810389	18480.189444
613.159207	18327.071958
613.507971	18226.558912
613.856682	18522.540178
614.205340	18468.226786
614.553945	18604.658053
614.902496	18346.104834
615.250994	18592.922247
615.599439	18529.086116
615.947830	18512.621707
616.296169	18537.928300
616.644454	18526.847844
616.992686	18482.314291
617.340864	18700.225727
617.688990	18471.783320
618.037063	18635.318351
618.385082	18482.226070
618.733048	18771.081665
619.080961	18626.241753
619.428821	18691.718780
619.776628	18567.905521
620.124382	18492.515065
620.472083	18522.336011
620.819731	18552.104024
621.167326	18249.077746
621.514868	18298.970046
621.862357	18041.445222
622.209793	18058.368376
622.557176	17894.044404
622.904506	17727.104074
623.251783	17618.121890
623.599007	17403.023417
623.946179	17343.565528
624.293297	17290.683824
624.640363	17055.317392
624.987376	17066.758291
625.334336	16858.667022
625.681243	16712.418107
626.028097	16706.010801
626.374899	16647.109959
626.721647	16512.659866
627.068343	16334.918863
627.414987	16267.775735
627.761577	16252.342243
628.108115	16299.043492
628.454600	16004.209089
628.801032	16107.409070
629.147412	16037.400046
629.493739	16068.209057
629.840014	15872.272010
630.186236	15975.930736
630.532405	15733.975516
630.878521	15933.582523
631.224585	15823.468600
631.570597	15649.705068
631.916556	15682.762434
632.262462	15661.788714
632.608316	15581.624285
632.954117	15519.615572
633.299866	15517.074831
633.645562	15444.388954
633.991206	15198.771336
634.336797	15068.444906
634.682336	15032.531726
635.027823	14922.921918
635.373257	14811.426718
635.718639	14703.914030
636.063968	14656.716227
636.409245	14414.045163
636.754470	14430.375981
637.099642	14282.821408
637.444762	14058.802614
637.789829	14107.878246
638.134845	13947.249441
638.479808	13971.018481
638.824719	13920.039813
639.169577	13771.623203
639.514383	13823.259741
639.859137	13635.680927
640.203839	13715.668915
