Dividing Wavelength (nm)	Counts (n)	Blue Motor Position (mm): 13.100000	Red Motor Position (mm): 0.000000	
326.493990	2167.466781
326.888308	2167.466781
327.282561	2167.466781
327.676750	2125.801645
328.070874	2122.013218
328.464933	2124.042282
328.858929	2125.751233
329.252859	2132.037552
329.646726	2140.269756
330.040528	2153.286016
330.434265	2164.184990
330.827938	2184.644513
331.221547	2201.139168
331.615091	2216.393700
332.008571	2236.921278
332.401986	2253.912488
332.795338	2275.438214
333.188625	2291.786676
333.581847	2309.234110
333.975006	2329.431493
334.368100	2345.323730
334.761129	2364.953983
335.154095	2380.359749
335.546996	2401.615775
335.939833	2425.967068
336.332606	2445.136056
336.725315	2458.094342
337.117960	2469.290744
337.510540	2481.271047
337.903056	2488.139619
338.295508	2498.894920
338.687896	2509.395644
339.080220	2514.093999
339.472480	2524.022552
339.864676	2527.531195
340.256807	2533.010929
340.648875	2536.874973
341.040879	2540.446631
341.432818	2544.167002
341.824694	2544.923176
342.216506	2546.972405
342.608253	2545.553320
342.999937	2548.051212
343.391557	2547.315203
343.783113	2547.710934
344.174605	2546.339740
344.566033	2543.383103
344.957397	2545.195398
345.348697	2542.931920
345.739934	2544.643392
346.131106	2541.296065
346.522215	2539.032587
346.913260	2538.944367
347.304241	2535.690302
347.695159	2531.675023
348.086012	2529.819879
348.476802	2529.204858
348.867528	2523.089938
349.258191	2520.972654
349.648789	2519.805627
350.039324	2517.209432
350.429796	2519.117509
350.820203	2521.461646
351.210548	2517.774042
351.600828	2516.622138
351.991045	2515.651716
352.381198	2514.582991
352.771288	2515.946623
353.161314	2515.087107
353.551276	2514.361180
353.941175	2512.470748
354.331010	2512.879081
354.720782	2511.026457
355.110490	2512.795902
355.500135	2511.636437
355.889717	2513.529390
356.279235	2511.636437
356.668689	2511.432270
357.058080	2513.173989
357.447408	2512.551406
357.836672	2511.623834
358.225873	2512.488392
358.615010	2513.032836
359.004084	2513.998217
359.393095	2517.272447
359.782043	2515.097189
360.170927	2515.752539
360.559748	2514.787158
360.948505	2518.005935
361.337199	2519.437622
361.725830	2519.684639
362.114398	2517.239679
362.502903	2519.304032
362.891344	2518.031140
363.279722	2522.621111
363.668037	2521.073477
364.056289	2519.626666
364.444478	2522.172448
364.832603	2521.559948
365.220665	2524.330062
365.608665	2521.406193
365.996601	2522.021214
366.384474	2524.801410
366.772284	2525.018180
367.160031	2523.594054
367.547715	2525.335772
367.935336	2521.963240
368.322893	2522.958868
368.710388	2522.396780
369.097820	2523.873838
369.485189	2520.173631
369.872495	2528.224353
370.259738	2524.355268
370.646918	2527.135464
371.034035	2528.544467
371.421090	2528.229395
371.808081	2526.961544
372.195010	2528.925074
372.581875	2528.312574
372.968678	2529.162008
373.355418	2529.739220
373.742096	2528.214271
374.128710	2530.286185
374.515262	2528.569672
374.901751	2528.176463
375.288177	2530.888603
375.674540	2529.071267
376.060841	2531.057482
376.447079	2529.242667
376.833254	2533.512524
377.219367	2532.287523
377.605417	2534.021680
377.991404	2532.572349
378.377329	2532.171577
378.763191	2531.841381
379.148991	2529.812317
379.534727	2530.374406
379.920402	2533.867925
380.306013	2531.024714
380.691563	2534.281300
381.077049	2532.693336
381.462474	2533.671320
381.847835	2533.283151
382.233134	2534.654345
382.618371	2532.771474
383.003545	2534.263656
383.388657	2533.056299
383.773706	2536.116280
384.158693	2537.043852
384.543618	2535.476053
384.928480	2534.493028
385.313280	2535.176105
385.698017	2535.806249
386.082692	2537.227854
386.467305	2534.876156
386.851856	2538.538554
387.236344	2535.712987
387.620770	2534.760209
388.005133	2533.439427
388.389435	2536.038142
388.773674	2531.115455
389.157851	2537.353883
389.541965	2539.874460
389.926018	2541.094419
390.310008	2537.389171
390.693936	2538.261291
391.077802	2539.821528
391.461606	2538.349511
391.845348	2538.962011
392.229027	2542.513504
392.612645	2539.569470
392.996200	2539.072917
393.379694	2538.936805
393.763125	2539.771116
394.146494	2538.546116
394.529801	2538.530992
394.913047	2540.456713
395.296230	2540.151723
395.679351	2539.629964
396.062410	2541.427135
396.445408	2542.952084
396.828343	2541.701878
397.211217	2543.761190
397.594028	2544.393854
397.976778	2541.774975
398.359466	2544.101467
398.742092	2542.606765
399.124656	2542.460572
399.507158	2544.434184
399.889598	2542.755479
400.271977	2540.837320
400.654294	2544.648433
401.036549	2542.395037
401.418742	2544.653474
401.800874	2542.664739
402.182944	2542.828576
402.564952	2540.638195
402.946898	2547.045501
403.328783	2545.344112
403.710606	2547.756304
404.092367	2544.608103
404.474067	2543.395706
404.855705	2544.429143
405.237282	2543.282280
405.618797	2544.224976
406.000250	2547.360573
406.381642	2547.962991
406.762972	2543.642722
407.144240	2541.117104
407.525447	2545.994421
407.906593	2544.477033
408.287677	2547.050543
408.668700	2546.448125
409.049661	2546.904349
409.430560	2546.390151
409.811399	2548.943496
410.192176	2547.781510
410.572891	2546.342260
410.953545	2545.961653
411.334138	2547.642878
411.714669	2547.516849
412.095139	2546.377548
412.475547	2548.270502
412.855894	2548.628424
413.236180	2548.242775
413.616405	2549.256047
413.996568	2549.364432
414.376670	2548.709082
414.756711	2552.066491
415.136691	2548.623383
415.516609	2554.052705
415.896466	2547.731098
416.276262	2552.021120
416.655997	2551.847200
417.035670	2547.214380
417.415283	2550.125646
417.794834	2551.968188
418.174324	2551.333003
418.553753	2551.867365
418.933121	2549.515667
419.312428	2553.271326
419.691674	2553.165462
420.070859	2549.472817
420.449983	2549.742519
420.829045	2549.520708
421.208047	2552.913404
421.586988	2548.000800
421.965867	2551.587581
422.344686	2551.907694
422.723444	2553.835936
423.102141	2554.123281
423.480777	2553.747715
423.859352	2552.492468
424.237866	2552.517674
424.616319	2552.144628
424.994712	2554.899619
425.373044	2555.000442
425.751314	2552.074052
426.129524	2547.597508
426.507673	2552.144628
426.885762	2550.130687
427.263789	2555.035730
427.641756	2551.965668
428.019662	2555.398693
428.397508	2554.481203
428.775292	2553.551110
429.153016	2554.423230
429.530679	2555.479352
429.908282	2553.452808
430.285824	2556.792572
430.663305	2556.462377
431.040726	2553.538507
431.418086	2555.597819
431.795385	2554.125802
432.172624	2553.019269
432.549802	2556.810216
432.926920	2554.609753
433.303977	2555.917932
433.680974	2555.454146
434.057910	2556.127140
434.434786	2551.476676
434.811601	2554.970195
435.188355	2556.311142
435.565050	2554.829043
435.941683	2554.844166
436.318257	2557.135371
436.694770	2558.859445
437.071222	2557.742830
437.447614	2554.440874
437.823946	2555.295350
438.200218	2554.592109
438.576429	2556.958930
438.952580	2558.148643
439.328670	2556.333827
439.704700	2556.318704
440.080670	2555.706204
440.456580	2554.690411
440.832429	2555.922973
441.208218	2557.221070
441.583947	2555.542366
441.959616	2559.444219
442.335224	2557.654610
442.710773	2559.731565
443.086261	2557.886503
443.461689	2556.225442
443.837057	2558.330124
444.212365	2559.444219
444.587612	2556.966492
444.962800	2551.990873
445.337927	2555.204609
445.712995	2553.604042
446.088002	2557.059753
446.462949	2558.113355
446.837837	2558.176369
447.212664	2561.092677
447.587431	2559.688715
447.962139	2557.221070
448.336786	2560.268448
448.711374	2562.090825
449.085901	2559.819785
449.460369	2559.557645
449.834776	2560.790207
450.209124	2559.819785
450.583412	2559.943293
450.957640	2560.351627
451.331808	2560.659137
451.705917	2560.616287
452.079965	2561.410269
452.453954	2561.022100
452.827883	2559.691236
453.201752	2560.510423
453.575562	2560.704508
453.949311	2560.195351
454.323001	2562.012687
454.696632	2560.916236
455.070202	2562.660475
455.443713	2560.281051
455.817164	2559.608057
456.190556	2560.873386
456.563888	2563.701474
456.937160	2560.268448
457.310373	2563.656103
457.683526	2563.199879
458.056619	2560.785166
458.429653	2561.218705
458.802628	2560.107131
459.175542	2560.870866
459.548398	2563.600651
459.921194	2561.382543
460.293930	2563.885476
460.666607	2563.799776
461.039224	2562.330280
461.411782	2563.393963
461.784280	2562.146278
462.156719	2562.060578
462.529099	2566.930333
462.901419	2562.650393
463.273680	2563.119220
463.645882	2559.608057
464.018024	2561.574107
464.390106	2558.317521
464.762130	2564.034190
465.134094	2566.708522
465.505999	2567.762123
465.877845	2565.733059
466.249631	2568.112483
466.621358	2564.155177
466.993026	2567.931002
467.364634	2570.252453
467.736184	2566.963100
468.107674	2570.207083
468.479105	2568.331773
468.850477	2568.188101
469.221790	2566.582493
469.593043	2570.275138
469.964238	2568.906465
470.335373	2567.386557
470.706449	2569.014850
471.077467	2568.084757
471.448425	2568.225909
471.819324	2572.246229
472.190164	2567.502504
472.560945	2570.159192
472.931667	2569.183728
473.302330	2568.692216
473.672934	2568.077195
474.043479	2570.207083
474.413965	2568.228430
474.784393	2570.345714
475.154761	2568.382185
475.525070	2569.161043
475.895321	2570.161712
476.265513	2569.720611
476.635645	2570.857392
477.005719	2568.422514
477.375734	2568.024263
477.745691	2571.984089
478.115588	2571.122052
478.485427	2571.253122
478.855207	2570.000395
479.224928	2574.355952
479.594591	2571.928637
479.964194	2573.554409
480.333739	2576.480799
480.703226	2573.118349
481.072653	2574.479461
481.442022	2573.882084
481.811333	2572.193297
482.180584	2572.697413
482.549777	2574.184553
482.918912	2567.933522
483.287988	2572.526013
483.657005	2573.231775
484.025964	2574.489543
484.394864	2571.782443
484.763706	2575.603638
485.132489	2575.969122
485.501213	2575.119687
485.869879	2574.418967
486.238487	2576.269070
486.607036	2576.032136
486.975527	2577.514235
487.343959	2576.989955
487.712333	2576.710171
488.080648	2575.031467
488.448905	2576.632033
488.817104	2575.737228
489.185244	2577.821746
489.553326	2574.887794
489.921350	2576.561457
490.289315	2577.912486
490.657222	2579.044225
491.025070	2580.506160
491.392861	2578.035995
491.760593	2579.724781
492.128267	2577.731005
492.495883	2577.453741
492.863440	2576.954667
493.230939	2574.953329
493.598380	2576.921900
493.965763	2578.913155
494.333088	2575.502815
494.700354	2577.915007
495.067563	2578.968608
495.434713	2577.975501
495.801805	2577.549523
496.168839	2575.628844
496.535815	2578.600604
496.902733	2580.279308
497.269593	2576.032136
497.636395	2577.693196
498.003139	2577.877198
498.369825	2576.110274
498.736453	2578.119174
499.103023	2576.848803
499.469535	2580.211252
499.835989	2576.836200
500.202385	2575.941395
500.568723	2576.415264
500.935003	2575.124728
501.301226	2574.935685
501.667390	2579.334092
502.033497	2579.823084
502.399546	2578.600604
502.765537	2579.361818
503.131470	2579.518094
503.497345	2578.643454
503.863163	2578.835017
504.228923	2583.069587
504.594625	2581.075810
504.960269	2580.181006
505.325856	2582.210070
505.691385	2582.104206
506.056856	2582.837694
506.422270	2582.545307
506.787625	2581.748804
507.152924	2582.068918
507.518164	2586.885740
507.883347	2585.519587
508.248472	2584.256778
508.613540	2584.624783
508.978550	2583.946748
509.343503	2582.474731
509.708398	2585.643096
510.073236	2586.202664
510.438016	2587.241142
510.802738	2585.655699
511.167403	2590.893458
511.532010	2586.583271
511.896561	2589.633169
512.261053	2587.178127
512.625488	2589.129054
512.989866	2585.517067
513.354186	2592.027717
513.718449	2592.599888
514.082655	2593.033427
514.446803	2594.911257
514.810894	2591.815989
515.174927	2595.092739
515.538904	2598.543408
515.902822	2598.114910
516.266684	2594.026535
516.630488	2593.454364
516.994235	2598.427462
517.357925	2599.549119
517.721558	2600.756475
518.085133	2598.974427
518.448651	2595.687595
518.812112	2595.617019
519.175516	2601.177411
519.538863	2599.503748
519.902152	2602.505755
520.265385	2605.585900
520.628560	2606.498349
520.991678	2604.287803
521.354739	2606.291662
521.717743	2605.679162
522.080690	2606.296703
522.443580	2612.663680
522.806413	2611.910028
523.169189	2610.251488
523.531908	2612.716612
523.894569	2611.617641
524.257174	2613.094699
524.619722	2612.711571
524.982213	2615.763990
525.344647	2613.876078
525.707025	2615.862292
526.069345	2620.545524
526.431608	2618.385390
526.793815	2619.496964
527.155964	2619.418827
527.518057	2619.176851
527.880093	2623.771863
528.242072	2622.027624
528.603995	2622.733385
528.965860	2623.449229
529.327669	2621.904115
529.689421	2626.574744
530.051117	2627.260341
530.412755	2624.918725
530.774337	2629.138171
531.135862	2625.395114
531.497331	2628.742441
531.858743	2630.590023
532.220098	2634.612864
532.581396	2632.692185
532.942638	2632.241001
533.303824	2635.726959
533.664953	2636.089922
534.026025	2633.274438
534.387040	2639.848102
534.747999	2637.955149
535.108902	2637.080509
535.469748	2638.393730
535.830537	2642.109060
536.191270	2639.671662
536.551947	2638.673514
536.912567	2636.044552
537.273131	2640.901704
537.633638	2641.867085
537.994089	2645.108547
538.354483	2645.491674
538.714821	2649.315389
539.075103	2647.644247
539.435328	2648.246665
539.795497	2648.839000
540.155609	2649.002838
540.515665	2651.452839
540.875665	2653.257572
541.235609	2652.740853
541.595496	2653.991060
541.955328	2650.961326
542.315102	2658.187820
542.674821	2655.291677
543.034483	2658.618839
543.394090	2659.332162
543.753640	2661.038593
544.113134	2661.683860
544.472571	2662.054385
544.831953	2663.735610
545.191278	2664.814417
545.550548	2666.455312
545.909761	2667.087977
546.268918	2672.298010
546.628019	2672.938236
546.987064	2672.184584
547.346053	2674.995027
547.704986	2672.524862
548.063863	2677.248423
548.422684	2678.370080
548.781449	2675.841941
549.140158	2680.222704
549.498811	2679.945440
549.857408	2679.552230
550.215949	2684.900894
550.574434	2686.869465
550.932864	2688.986750
551.291237	2690.867100
551.649555	2691.961030
552.007817	2693.140660
552.366022	2695.121834
552.724173	2692.061853
553.082267	2697.279448
553.440305	2699.149716
553.798288	2703.167515
554.156215	2704.289172
554.514086	2705.294882
554.871902	2702.068544
555.229661	2707.094574
555.587365	2706.419060
555.945014	2715.465410
556.302606	2714.926007
556.660143	2721.058570
557.017625	2724.804148
557.375050	2727.307081
557.732421	2726.245918
558.089735	2731.564335
558.446994	2732.650704
558.804197	2740.353587
559.161345	2741.749986
559.518437	2738.863926
559.875474	2747.000348
560.232455	2750.035123
560.589381	2752.086872
560.946251	2755.721544
561.303065	2760.041813
561.659825	2767.578338
562.016528	2767.727052
562.373177	2771.238216
562.729770	2774.252826
563.086307	2779.205759
563.442789	2786.134825
563.799216	2791.228911
564.155587	2792.796710
564.511904	2804.121662
564.868164	2803.604944
565.224370	2811.511994
565.580520	2810.760862
565.936615	2823.081442
566.292654	2822.254693
566.648638	2833.680468
567.004567	2835.797752
567.360441	2844.196315
567.716260	2843.329236
568.072023	2859.350023
568.427732	2863.098121
568.783385	2867.398225
569.138982	2879.481871
569.494525	2887.154507
569.850013	2896.089953
570.205445	2902.197310
570.560823	2906.467168
570.916145	2916.766245
571.271412	2923.481062
571.626625	2939.418670
571.981782	2948.454938
572.336884	2949.231276
572.691931	2964.122844
573.046923	2960.036989
573.401860	2976.483753
573.756743	2996.424038
574.111570	3004.875532
574.466342	3013.644619
574.821059	3029.065509
575.175722	3030.396373
575.530330	3046.354146
575.884882	3058.891495
576.239380	3077.142993
576.593823	3085.909559
576.948211	3093.698142
577.302544	3104.246757
577.656823	3109.466871
578.011047	3130.460757
578.365216	3141.510966
578.719330	3160.019562
579.073389	3172.483815
579.427394	3203.444061
579.781344	3198.954914
580.135239	3222.063563
580.489080	3232.032445
580.842866	3241.943353
581.196597	3285.521608
581.550273	3287.838018
581.903895	3316.375990
582.257463	3343.275587
582.610975	3348.999817
582.964434	3380.958212
583.317837	3396.752147
583.671186	3425.829522
584.024481	3455.015282
584.377721	3455.637865
584.730906	3481.161227
585.084037	3511.498891
585.437113	3524.810057
585.790135	3558.114440
586.143103	3566.676840
586.496016	3577.469950
586.848874	3627.417703
587.201679	3644.192142
587.554428	3655.333092
587.907124	3703.912171
588.259765	3721.359605
588.612352	3769.686626
588.964884	3769.845422
589.317362	3800.782983
589.669786	3836.670958
590.022155	3868.725134
590.374470	3913.324222
590.726731	3931.731996
591.078937	3947.939305
591.431090	3982.660252
591.783188	3992.243486
592.135232	4014.820293
592.487222	4069.037903
592.839157	4093.979012
593.191038	4128.304228
593.542866	4135.389570
593.894639	4160.295391
594.246358	4214.218093
594.598022	4232.056216
594.949633	4246.665479
595.301190	4268.478552
595.652692	4325.572140
596.004141	4375.028380
596.355535	4348.353114
596.706876	4382.849730
597.058162	4411.599430
597.409395	4454.285401
597.760573	4511.003422
598.111698	4527.694683
598.462768	4559.542172
598.813785	4588.198611
599.164748	4603.687557
599.515657	4645.012415
599.866511	4655.495495
600.217312	4732.642792
600.568060	4713.670410
600.918753	4796.332730
601.269392	4834.295139
601.619978	4837.592054
601.970510	4919.110032
602.320988	4942.309422
602.671412	5014.844064
603.021783	5034.391138
603.372100	5044.629722
603.722363	5111.346872
604.072572	5150.609899
604.422728	5192.554820
604.772830	5226.786775
605.122878	5233.879678
605.472872	5302.459535
605.822813	5346.715825
606.172701	5386.823245
606.522534	5462.226303
606.872314	5510.376884
607.222041	5511.375033
607.571714	5604.223004
607.921333	5634.595956
608.270899	5697.842272
608.620411	5791.501870
608.969870	5765.383652
609.319276	5829.383620
609.668627	5896.607407
610.017926	5971.203881
610.367171	6041.646444
610.716362	6128.485360
611.065500	6118.372806
611.414585	6202.751639
611.763616	6254.776347
612.112594	6305.694521
612.461518	6333.430949
612.810389	6440.184944
613.159207	6438.428102
613.507971	6478.079297
613.856682	6633.845910
614.205340	6665.829511
614.553945	6784.258817
614.902496	6734.225365
615.250994	6886.168263
615.599439	6914.038282
615.947830	6965.654656
616.296169	7015.773808
616.644454	7086.405414
616.992686	7108.558765
617.340864	7240.223621
617.688990	7240.921821
618.037063	7370.897890
618.385082	7385.371043
618.733048	7509.461566
619.080961	7525.510079
619.428821	7617.238914
619.776628	7661.285996
620.124382	7674.085486
620.472083	7756.168073
620.819731	7834.714291
621.167326	7774.827904
621.514868	7836.181267
621.862357	7820.145357
622.209793	7879.328503
622.557176	7877.382617
622.904506	7845.285591
623.251783	7875.693831
623.599007	7876.591156
623.946179	7908.252123
624.293297	7938.103315
624.640363	7911.821260
624.987376	7947.900798
625.334336	7915.140860
625.681243	7922.639576
626.028097	7958.734237
626.374899	8030.928602
626.721647	7988.408990
627.068343	7987.335224
627.414987	8007.015888
627.761577	8079.999193
628.108115	8154.106675
628.454600	8072.523162
628.801032	8137.007082
629.147412	8171.997730
629.493739	8224.632418
629.840014	8219.548414
630.186236	8290.953838
630.532405	8244.650840
630.878521	8378.599338
631.224585	8377.787713
631.570597	8376.595480
631.916556	8404.621775
632.262462	8443.421015
632.608316	8487.140422
632.954117	8497.893203
633.299866	8546.409268
633.645562	8560.907626
633.991206	8489.038416
634.336797	8446.092827
634.682336	8507.534410
635.027823	8487.309301
635.373257	8501.792536
635.718639	8468.523441
636.063968	8488.867017
636.409245	8427.319570
636.754470	8476.851427
637.099642	8446.929658
637.444762	8366.659366
637.789829	8447.244730
638.134845	8410.237620
638.479808	8455.867624
638.824719	8475.112229
639.169577	8435.566898
639.514383	8502.783122
639.859137	8452.111964
640.203839	8538.678658
640.548489	8480.486099
640.893086	8540.548926
641.237632	8467.873132
641.582125	8623.470866
641.926566	8567.791322
642.270955	8605.973021
642.615292	8620.539435
642.959576	8659.522678
643.303809	8737.179132
643.647990	8712.550575
643.992118	8806.517683
644.336195	8691.695322
