Dividing Wavelength (nm)	Counts (n)	Blue Motor Position (mm): 45.700000	Red Motor Position (mm): 0.000000	
326.493990	2267.518562
326.888308	2267.518562
327.282561	2267.518562
327.676750	2230.072871
328.070874	2227.796790
328.464933	2229.175546
328.858929	2229.639332
329.252859	2234.816597
329.646726	2242.516959
330.040528	2258.459608
330.434265	2271.914448
330.827938	2289.384567
331.221547	2305.972483
331.615091	2321.968064
332.008571	2340.511949
332.401986	2360.240504
332.795338	2377.773638
333.188625	2402.452606
333.581847	2420.825091
333.975006	2437.423090
334.368100	2458.807665
334.761129	2475.561940
335.154095	2491.217243
335.546996	2518.734381
335.939833	2560.298695
336.332606	2576.407702
336.725315	2586.452201
337.117960	2601.558018
337.510540	2609.417177
337.903056	2622.642644
338.295508	2631.338635
338.687896	2639.336425
339.080220	2646.278094
339.472480	2656.400731
339.864676	2658.749909
340.256807	2664.204437
340.648875	2667.329953
341.040879	2669.260715
341.432818	2676.525017
341.824694	2673.248267
342.216506	2675.859585
342.608253	2676.451921
342.999937	2678.365038
343.391557	2676.131807
343.783113	2677.896211
344.174605	2675.509225
344.566033	2674.034687
344.957397	2674.412774
345.348697	2672.497135
345.739934	2671.254491
346.131106	2670.163081
346.522215	2670.163081
346.913260	2666.662000
347.304241	2663.816268
347.695159	2662.311484
348.086012	2660.673109
348.476802	2660.090856
348.867528	2654.051553
349.258191	2652.332520
349.648789	2652.145997
350.039324	2649.479227
350.429796	2652.342602
350.820203	2653.139105
351.210548	2650.878147
351.600828	2648.682725
351.991045	2647.815646
352.381198	2645.731129
352.771288	2650.555513
353.161314	2648.546613
353.551276	2646.172230
353.941175	2645.796664
354.331010	2645.368166
354.720782	2645.617703
355.110490	2647.074597
355.500135	2644.533855
355.889717	2645.763897
356.279235	2647.913949
356.668689	2648.521408
357.058080	2644.271715
357.447408	2645.584936
357.836672	2644.788433
358.225873	2647.200625
358.615010	2647.624082
359.004084	2648.203815
359.393095	2648.234062
359.782043	2651.104999
360.170927	2651.430153
360.559748	2650.794968
360.948505	2652.493837
361.337199	2654.230514
361.725830	2653.557520
362.114398	2653.040802
362.502903	2654.550628
362.891344	2654.911070
363.279722	2655.629435
363.668037	2654.008704
364.056289	2656.504075
364.444478	2656.350320
364.832603	2657.396359
365.220665	2660.267296
365.608665	2658.986843
365.996601	2660.191679
366.384474	2659.241421
366.772284	2662.989519
367.160031	2659.538849
367.547715	2661.948521
367.935336	2662.571103
368.322893	2661.217554
368.710388	2660.625218
369.097820	2661.013387
369.485189	2659.170845
369.872495	2663.102945
370.259738	2663.150836
370.646918	2665.794921
371.034035	2669.066630
371.421090	2666.359531
371.808081	2666.546053
372.195010	2668.779284
372.581875	2673.954029
372.968678	2669.346414
373.355418	2672.945798
373.742096	2676.688855
374.128710	2680.557940
374.515262	2687.239990
374.901751	2691.398942
375.288177	2701.130889
375.674540	2709.567260
376.060841	2721.340875
376.447079	2733.273286
376.833254	2752.843045
377.219367	2767.711929
377.605417	2789.693880
377.991404	2811.910245
378.377329	2842.739421
378.763191	2864.207175
379.148991	2898.255128
379.534727	2937.697116
379.920402	2970.507466
380.306013	2999.501662
380.691563	3054.450239
381.077049	3081.831266
381.462474	3124.575209
381.847835	3182.392203
382.233134	3227.419789
382.618371	3263.708535
383.003545	3329.084739
383.388657	3360.907022
383.773706	3428.105603
384.158693	3467.537508
384.543618	3510.888911
384.928480	3570.583734
385.313280	3632.920122
385.698017	3666.595030
386.082692	3758.346550
386.467305	3769.643776
386.851856	3812.952329
387.236344	3901.233015
387.620770	3933.234260
388.005133	3990.514370
388.389435	4041.510682
388.773674	4058.315369
389.157851	4136.347389
389.541965	4206.298440
389.926018	4172.253008
390.310008	4277.381230
390.693936	4336.597143
391.077802	4373.168194
391.461606	4372.469994
391.845348	4441.269141
392.229027	4503.892875
392.612645	4503.552597
392.996200	4608.091004
393.379694	4670.049306
393.763125	4775.805152
394.146494	4797.242658
394.529801	4860.645250
394.913047	4946.791008
395.296230	4887.421339
395.679351	4999.584492
396.062410	5053.207245
396.445408	5026.960478
396.828343	5087.328295
397.211217	5140.913240
397.594028	5022.211711
397.976778	5141.913909
398.359466	5189.507442
398.742092	5211.638108
399.124656	5133.452332
399.507158	5251.475826
399.889598	5314.649045
400.271977	5436.650009
400.654294	5429.491571
401.036549	5475.456812
401.418742	5395.617538
401.800874	5606.010093
402.182944	5660.535213
402.564952	5764.022540
402.946898	5821.216951
403.328783	5661.165358
403.710606	5685.919944
404.092367	6006.428943
404.474067	6028.133631
404.855705	5927.030770
405.237282	5858.579463
405.618797	6118.619822
406.000250	6092.799032
406.381642	6299.481299
406.762972	6318.367982
407.144240	6374.528956
407.525447	6359.765937
407.906593	6377.924173
408.287677	6539.183123
408.668700	6453.677592
409.049661	6566.115488
409.430560	6595.039108
409.811399	6454.373271
410.192176	6727.755044
410.572891	6744.123671
410.953545	6935.833711
411.334138	6658.971021
411.714669	6836.550706
412.095139	6629.394571
412.475547	6871.894236
412.855894	6942.286388
413.236180	7132.751262
413.616405	6792.841382
413.996568	7006.843404
414.376670	7064.511683
414.756711	6950.337110
415.136691	7056.110600
415.516609	7256.861949
415.896466	7239.144814
416.276262	7441.716020
416.655997	7431.472395
417.035670	7610.146011
417.415283	7951.195192
417.794834	8012.500664
418.174324	7871.292903
418.553753	7793.407077
418.933121	8093.297757
419.312428	8196.558232
419.691674	7972.773851
420.070859	8456.422151
420.449983	8137.775858
420.829045	8499.314808
421.208047	8267.449458
421.586988	8576.638547
421.965867	8605.761293
422.344686	8693.555507
422.723444	8766.609388
423.102141	8106.069520
423.480777	8867.419862
423.859352	8398.572390
424.237866	9011.097788
424.616319	8878.825473
424.994712	9299.426582
425.373044	8843.250050
425.751314	9324.919697
426.129524	9204.552067
426.507673	9293.472980
426.885762	9447.530641
427.263789	9367.736737
427.641756	9307.875556
428.019662	9388.954954
428.397508	9658.588629
428.775292	9320.294439
429.153016	9715.969563
429.530679	9540.837358
429.908282	9556.943844
430.285824	9280.580229
430.663305	9966.540115
431.040726	9421.699769
431.418086	9401.008353
431.795385	9731.357685
432.172624	9828.069701
432.549802	9731.287109
432.926920	9806.579262
433.303977	9674.004478
433.680974	9885.937106
434.057910	9989.038784
434.434786	10055.634947
434.811601	9874.513851
435.188355	10444.494432
435.565050	10184.796871
435.941683	10102.764695
436.318257	10584.610782
436.694770	10753.277707
437.071222	10812.249125
437.447614	10631.128029
437.823946	10561.000538
438.200218	10652.913376
438.576429	10495.702472
438.952580	10741.299926
439.328670	10770.273958
439.704700	10568.915150
440.080670	10552.871677
440.456580	11084.673079
440.832429	10860.760149
441.208218	10470.489141
441.583947	10766.389749
441.959616	10940.460791
442.335224	10759.112843
442.710773	10863.379028
443.086261	11096.502147
443.461689	10356.493529
443.837057	11052.192925
444.212365	11289.212855
444.587612	10924.949161
444.962800	11135.742488
445.337927	10880.007274
445.712995	10553.400999
446.088002	11590.578073
446.462949	11285.051383
446.837837	11247.943449
447.212664	11189.468585
447.587431	11764.825556
447.962139	12523.753623
448.336786	14814.201873
448.711374	15309.356607
449.085901	13119.852422
449.460369	12773.089093
449.834776	12207.315355
450.209124	13142.509888
450.583412	13559.526737
450.957640	14489.952337
451.331808	13544.322617
451.705917	12612.389711
452.079965	11854.699247
452.453954	12774.049433
452.827883	12424.483222
453.201752	12715.118344
453.575562	12262.773089
453.949311	12679.600895
454.323001	12665.281497
454.696632	12900.279925
455.070202	13169.285976
455.443713	13365.898538
455.817164	13863.200803
456.190556	13837.306917
456.563888	14191.783211
456.937160	14335.342670
457.310373	13696.827603
457.683526	13805.149396
458.056619	13326.454030
458.429653	13542.482596
458.802628	12905.240420
459.175542	13313.014314
459.548398	14257.111524
459.921194	14625.904695
460.293930	14700.019739
460.666607	15541.075764
461.039224	16600.960716
461.411782	17324.358732
461.784280	17108.604909
462.156719	17219.664048
462.529099	16891.142135
462.901419	15847.777044
463.273680	15604.148161
463.645882	15511.829510
464.018024	15232.531943
464.390106	15457.304390
464.762130	16173.612022
465.134094	16967.588712
465.505999	19024.092136
465.877845	22301.694091
466.249631	25112.243224
466.621358	24729.768361
466.993026	23305.483603
467.364634	22719.729253
467.736184	21243.906258
468.107674	20455.280754
468.479105	20579.444373
468.850477	20038.125273
469.221790	19630.986565
469.593043	18951.244942
469.964238	18369.352115
470.335373	18008.859204
470.706449	18516.626904
471.077467	18103.448894
471.448425	19970.654470
471.819324	24128.215034
472.190164	25953.808406
472.560945	22278.159464
472.931667	19980.245265
473.302330	19375.193378
473.672934	19001.061624
474.043479	19223.668896
474.413965	19035.553199
474.784393	18628.316188
475.154761	19393.550739
475.525070	19313.121650
475.895321	19044.536535
476.265513	19642.044336
476.635645	20231.660210
477.005719	19997.266721
477.375734	20182.113230
477.745691	20657.128554
478.115588	21201.011080
478.485427	21772.118358
478.855207	22870.061502
479.224928	24653.064685
479.594591	26888.375315
479.964194	26786.092824
480.333739	27039.481381
480.703226	26605.029701
481.072653	26324.615518
481.442022	26949.963091
481.811333	27870.760088
482.180584	27759.401000
482.549777	26803.736862
482.918912	26478.713509
483.287988	26611.661339
483.657005	26232.075057
484.025964	26027.051330
484.394864	25893.871607
484.763706	25547.549379
485.132489	25023.176118
485.501213	25191.270872
485.869879	25108.540497
486.238487	24953.209944
486.607036	25080.975467
486.975527	24835.161244
487.343959	25115.993843
487.712333	25030.805904
488.080648	24688.493914
488.448905	25208.753594
488.817104	24959.218999
489.185244	25676.829770
489.553326	25618.909433
489.921350	26670.287438
490.289315	29016.183339
490.657222	30728.048279
491.025070	31251.274678
491.392861	30973.519704
491.760593	30128.874377
492.128267	29210.234994
492.495883	28143.058013
492.863440	27296.948231
493.230939	26428.213750
493.598380	26250.024085
493.965763	25870.601641
494.333088	25364.913417
494.700354	25343.115467
495.067563	25187.391704
495.434713	24929.937457
495.801805	25120.074657
496.168839	24879.258737
496.535815	24746.663788
496.902733	24985.312011
497.269593	24679.934035
497.636395	24833.905997
498.003139	24759.067547
498.369825	24508.917932
498.736453	24721.047165
499.103023	24591.665952
499.469535	24590.191414
499.835989	24822.175232
500.202385	24841.351781
500.568723	24369.588001
500.935003	24554.570621
501.301226	24249.018725
501.667390	25090.427631
502.033497	25290.211078
502.399546	25025.336252
502.765537	24563.017074
503.131470	24936.175885
503.497345	25092.141623
503.863163	24328.840355
504.228923	24871.129877
504.594625	25118.015345
504.960269	24669.478682
505.325856	25166.077706
505.691385	24556.014912
506.056856	25168.794888
506.422270	25140.405630
506.787625	24669.816439
507.152924	25102.672593
507.518164	25138.585773
507.883347	24960.373423
508.248472	24632.829493
508.613540	25404.534365
508.978550	25208.042791
509.343503	25230.135648
509.708398	25425.901296
510.073236	25595.596617
510.438016	25808.988659
510.802738	25472.728574
511.167403	25712.682456
511.532010	25463.780526
511.896561	26214.161317
512.261053	26177.703692
512.625488	26013.823342
512.989866	25906.532465
513.354186	25727.659724
513.718449	25863.546546
514.082655	26243.289104
514.446803	25955.794621
514.810894	26452.701155
515.174927	25945.702231
515.538904	25975.941592
515.902822	26467.615409
516.266684	26225.753450
516.630488	26133.278524
516.994235	26081.410092
517.357925	26412.697079
517.721558	26566.495121
518.085133	26695.641921
518.448651	26563.566211
518.812112	26338.642529
519.175516	26576.892501
519.538863	26705.885545
519.902152	26502.303588
520.265385	26755.954285
520.628560	26570.643991
520.991678	26543.179784
521.354739	26604.321419
521.717743	26693.060850
522.080690	26468.903424
522.443580	26801.387684
522.806413	26777.187625
523.169189	26886.810036
523.531908	26925.793279
523.894569	26560.869193
524.257174	26666.967838
524.619722	26783.360518
524.982213	26508.521852
525.344647	26542.166512
525.707025	26700.481428
526.069345	26649.926217
526.431608	26632.892158
526.793815	26800.243343
527.155964	26296.715252
527.518057	26463.963093
527.880093	26372.040173
528.242072	26601.654648
528.603995	26321.817678
528.965860	26100.843740
529.327669	26153.324672
529.689421	26135.965459
530.051117	25983.568858
530.412755	26158.368347
530.774337	25935.340139
531.135862	25815.264895
531.497331	26006.501067
531.858743	25605.953667
532.220098	26051.455556
532.581396	25754.135864
532.942638	25648.639637
533.303824	25779.782734
533.664953	25763.121721
534.026025	25442.743791
534.387040	25673.709295
534.747999	25716.526336
535.108902	25879.985749
535.469748	25393.063220
535.830537	25532.403232
536.191270	25683.186665
536.551947	25511.303483
536.912567	25124.891479
537.273131	25582.590440
537.633638	25228.015843
537.994089	25466.459899
538.354483	24950.638955
538.714821	25470.946526
539.075103	25509.322310
539.435328	25274.079386
539.795497	24872.188519
540.155609	25213.923297
540.515665	25533.590424
540.875665	24748.493727
541.235609	25093.795122
541.595496	25014.878379
541.955328	25379.200047
542.315102	25311.983822
542.674821	24822.167670
543.034483	24697.426839
543.394090	24875.659353
543.753640	24684.241701
544.113134	25311.288143
544.472571	24886.956579
544.831953	25204.710588
545.191278	24857.183525
545.550548	24736.019392
545.909761	24926.932929
546.268918	25176.139849
546.628019	25139.707430
546.987064	24830.609082
547.346053	24561.580345
547.704986	24675.525546
548.063863	24828.375851
548.422684	24845.198181
548.781449	24343.268137
549.140158	24770.977273
549.498811	24341.213867
549.857408	24104.178813
550.215949	24490.462267
550.574434	24197.409912
550.932864	24373.588157
551.291237	24592.222999
551.649555	24411.172479
552.007817	24485.121165
552.366022	24331.043339
552.724173	24347.633776
553.082267	24320.898017
553.440305	24806.862727
553.798288	24032.763307
554.156215	24525.679768
554.514086	24657.334542
554.871902	24040.866962
555.229661	24324.285672
555.587365	24167.223483
555.945014	24085.261883
556.302606	24284.521051
556.660143	24279.527788
557.017625	24509.565720
557.375050	24025.791391
557.732421	24410.948148
558.089735	24238.845676
558.446994	24296.163595
558.804197	24329.999820
559.161345	24224.473347
559.518437	24032.609552
559.875474	24179.624721
560.232455	24362.401836
560.589381	24175.795965
560.946251	24197.162896
561.303065	24483.266020
561.659825	24581.437450
562.016528	24188.177039
562.373177	23916.627725
562.729770	24280.205823
563.086307	24113.320945
563.442789	24287.880980
563.799216	24137.586539
564.155587	24134.549244
564.511904	24107.611839
564.868164	24075.376180
565.224370	24033.930334
565.580520	23974.132167
565.936615	24087.600978
566.292654	23796.746566
566.648638	24029.398337
567.004567	23863.415826
567.360441	23801.069356
567.716260	23524.894783
568.072023	23842.603422
568.427732	23628.913952
568.783385	23388.231623
569.138982	23635.628769
569.494525	23668.333254
569.850013	23426.793929
570.205445	23524.022664
570.560823	23349.094625
570.916145	23113.035035
571.271412	23304.641731
571.626625	23051.563205
571.981782	23149.094408
572.336884	22958.248926
572.691931	23107.270475
573.046923	22846.637780
573.401860	22720.127504
573.756743	22744.017532
574.111570	22642.556749
574.466342	22559.990211
574.821059	22640.920895
575.175722	22345.668076
575.530330	22315.867295
575.884882	22318.309734
576.239380	22231.669943
576.593823	22133.012042
576.948211	22107.370213
577.302544	21963.639355
577.656823	21811.855254
578.011047	21924.346081
578.365216	21801.208337
578.719330	21668.106752
579.073389	21555.363867
579.427394	21721.421995
579.781344	21469.533181
580.135239	21358.587467
580.489080	21295.066408
580.842866	21074.107594
581.196597	21296.583796
581.550273	21244.680076
581.903895	21128.836881
582.257463	21436.362389
582.610975	20979.608645
582.964434	21306.920682
583.317837	20974.431380
583.671186	21056.594626
584.024481	21056.352650
584.377721	20808.574898
584.730906	20907.275649
585.084037	20878.621730
585.437113	20809.721760
585.790135	21014.448059
586.143103	20466.489759
586.496016	20486.185547
586.848874	20728.221426
587.201679	20648.369549
587.554428	20335.805407
587.907124	20679.276863
588.259765	20428.907957
588.612352	20503.852271
588.964884	20065.090405
589.317362	20245.122612
589.669786	20305.876077
590.022155	20305.926489
590.374470	20546.999507
590.726731	20291.783532
591.078937	20101.802608
591.431090	20174.659884
591.783188	19951.467838
592.135232	19904.796836
592.487222	19997.450723
592.839157	20006.282825
593.191038	19888.282016
593.542866	19786.354926
593.894639	19477.614500
594.246358	19699.150527
594.598022	19586.873948
594.949633	19347.676239
595.301190	19331.400874
595.652692	19499.969497
596.004141	19706.087154
596.355535	19053.106497
596.706876	19078.360157
597.058162	18965.224062
597.409395	19209.402430
597.760573	19252.635366
598.111698	19016.701804
598.462768	18977.058170
598.813785	18939.405792
599.164748	18743.292305
599.515657	18796.675603
599.866511	18595.982227
600.217312	18947.935424
600.568060	18459.422411
600.918753	18772.036964
601.269392	18664.990582
601.619978	18470.412126
601.970510	18650.386360
602.320988	18595.478112
602.671412	18804.837231
603.021783	18745.452439
603.372100	18442.753836
603.722363	18591.679603
604.072572	18544.537253
604.422728	18701.271767
604.772830	18440.097148
605.122878	18407.611952
605.472872	18375.013331
605.822813	18365.515797
606.172701	18357.550774
606.522534	18528.662659
606.872314	18549.371719
607.222041	18398.134583
607.571714	18620.424262
607.921333	18432.346374
608.270899	18513.037603
608.620411	18664.047887
608.969870	18461.985838
609.319276	18460.811249
609.668627	18489.482811
610.017926	18611.481255
610.367171	18734.934072
610.716362	18784.014745
611.065500	18590.225230
611.414585	18746.228777
611.763616	18727.543740
612.112594	18662.838010
612.461518	18631.781982
612.810389	18822.859356
613.159207	18675.977777
613.507971	18601.562785
613.856682	18839.913580
614.205340	18757.790663
614.553945	18924.375592
614.902496	18667.178443
615.250994	18870.190750
615.599439	18828.593669
615.947830	18818.914653
616.296169	18893.687568
616.644454	18844.067491
616.992686	18825.815993
617.340864	19039.984373
617.688990	18787.972051
618.037063	18956.906158
618.385082	18817.878696
618.733048	19097.466130
619.080961	18978.333582
619.428821	19013.845990
619.776628	18877.649137
620.124382	18814.712852
620.472083	18868.678404
620.819731	18876.038488
621.167326	18572.011541
621.514868	18611.118292
621.862357	18397.111229
622.209793	18391.523110
622.557176	18228.091423
622.904506	18064.921876
623.251783	17994.751535
623.599007	17739.318790
623.946179	17670.922935
624.293297	17608.037061
624.640363	17338.927666
624.987376	17368.446143
625.334336	17161.693300
625.681243	17014.680651
626.028097	17031.545831
626.374899	16938.299608
626.721647	16805.747509
627.068343	16649.617933
627.414987	16578.991368
627.761577	16550.324847
628.108115	16580.836430
628.454600	16302.877289
628.801032	16405.694143
629.147412	16350.425452
629.493739	16350.848909
629.840014	16162.665157
630.186236	16259.626710
630.532405	16017.028743
630.878521	16217.369238
631.224585	16129.955630
631.570597	15946.911334
631.916556	15965.825743
632.262462	15946.588700
632.608316	15870.794952
632.954117	15810.212886
633.299866	15797.322655
633.645562	15716.059255
633.991206	15474.935826
634.336797	15343.969169
634.682336	15325.248845
635.027823	15187.857238
635.373257	15056.734306
635.718639	14966.162415
636.063968	14921.780097
