Dividing Wavelength (nm)	Counts (n)	Blue Motor Position (mm): 14.700000	Red Motor Position (mm): 0.000000	
326.493990	2173.432987
326.888308	2173.432987
327.282561	2173.432987
327.676750	2132.380351
328.070874	2130.046296
328.464933	2128.617129
328.858929	2131.573766
329.252859	2139.092647
329.646726	2147.314769
330.040528	2157.865904
330.434265	2171.005671
330.827938	2191.233301
331.221547	2206.734849
331.615091	2224.333517
332.008571	2241.450755
332.401986	2260.859198
332.795338	2277.638678
333.188625	2298.698098
333.581847	2315.538073
333.975006	2334.422235
334.368100	2355.675740
334.761129	2372.992103
335.154095	2386.731768
335.546996	2412.855027
335.939833	2437.012236
336.332606	2450.436829
336.725315	2461.449230
337.117960	2476.996148
337.510540	2486.619711
337.903056	2499.895589
338.295508	2508.089985
338.687896	2520.070287
339.080220	2525.262676
339.472480	2532.342976
339.864676	2536.249870
340.256807	2541.177598
340.648875	2546.788403
341.040879	2549.061963
341.432818	2552.154711
341.824694	2554.176213
342.216506	2552.968857
342.608253	2555.078580
342.999937	2556.815258
343.391557	2557.236194
343.783113	2556.744681
344.174605	2552.595812
344.566033	2551.093548
344.957397	2553.919115
345.348697	2547.398382
345.739934	2551.582540
346.131106	2547.504246
346.522215	2549.389638
346.913260	2542.994934
347.304241	2543.501570
347.695159	2540.696168
348.086012	2537.953780
348.476802	2535.924716
348.867528	2534.374561
349.258191	2531.871628
349.648789	2528.206709
350.039324	2523.589013
350.429796	2530.364323
350.820203	2529.131761
351.210548	2526.943900
351.600828	2525.071112
351.991045	2526.467511
352.381198	2524.178828
352.771288	2524.211595
353.161314	2519.092303
353.551276	2523.044568
353.941175	2521.665812
354.331010	2520.783610
354.720782	2520.191275
355.110490	2521.479290
355.500135	2520.740761
355.889717	2521.756553
356.279235	2520.609691
356.668689	2524.670340
357.058080	2520.778569
357.447408	2524.776204
357.836672	2520.367715
358.225873	2524.166225
358.615010	2522.878210
359.004084	2525.179497
359.393095	2522.878210
359.782043	2526.361647
360.170927	2526.722090
360.559748	2525.731503
360.948505	2525.025741
361.337199	2526.250742
361.725830	2524.599764
362.114398	2527.866432
362.502903	2528.420958
362.891344	2528.383150
363.279722	2528.552028
363.668037	2526.873324
364.056289	2530.545805
364.444478	2530.308871
364.832603	2532.133768
365.220665	2529.875331
365.608665	2530.003881
365.996601	2531.286854
366.384474	2533.081505
366.772284	2531.818696
367.160031	2530.747451
367.547715	2533.736855
367.935336	2531.397760
368.322893	2533.013450
368.710388	2529.156967
369.097820	2530.064375
369.485189	2527.503468
369.872495	2533.303316
370.259738	2533.812473
370.646918	2537.800025
371.034035	2536.025539
371.421090	2534.326670
371.808081	2533.250384
372.195010	2535.947401
372.581875	2537.384130
372.968678	2537.800025
373.355418	2538.036959
373.742096	2537.071578
374.128710	2535.652494
374.515262	2539.435880
374.901751	2539.410674
375.288177	2538.447813
375.674540	2537.394212
376.060841	2541.643905
376.447079	2540.476878
376.833254	2540.880170
377.219367	2539.811446
377.605417	2539.791281
377.991404	2542.445448
378.377329	2540.991076
378.763191	2542.085006
379.148991	2542.311858
379.534727	2538.523431
379.920402	2540.549975
380.306013	2540.870088
380.691563	2543.143648
381.077049	2539.387989
381.462474	2540.416384
381.847835	2541.006199
382.233134	2540.343287
382.618371	2543.060469
383.003545	2543.425953
383.388657	2542.657177
383.773706	2546.299411
384.158693	2542.949564
384.543618	2545.031560
384.928480	2544.116591
385.313280	2544.167002
385.698017	2545.578526
386.082692	2547.330327
386.467305	2544.686241
386.851856	2545.752445
387.236344	2545.243289
387.620770	2540.975952
388.005133	2540.577701
388.389435	2543.042825
388.773674	2540.444110
389.157851	2545.961653
389.541965	2544.509801
389.926018	2547.663043
390.310008	2547.995759
390.693936	2547.962991
391.077802	2546.354863
391.461606	2549.997097
391.845348	2551.085986
392.229027	2549.067004
392.612645	2545.729760
392.996200	2545.293700
393.379694	2548.837632
393.763125	2547.988197
394.146494	2549.233362
394.529801	2549.379556
394.913047	2549.795451
395.296230	2551.900132
395.679351	2549.467776
396.062410	2549.094730
396.445408	2550.221428
396.828343	2552.227807
397.211217	2548.714123
397.594028	2551.585060
397.976778	2550.329813
398.359466	2551.237221
398.742092	2552.051367
399.124656	2553.561193
399.507158	2552.212684
399.889598	2550.521377
400.271977	2552.414330
400.654294	2550.758311
401.036549	2552.953734
401.418742	2551.252344
401.800874	2552.857952
402.182944	2553.435164
402.564952	2553.810730
402.946898	2554.597150
403.328783	2553.266285
403.710606	2553.863662
404.092367	2553.054557
404.474067	2554.574465
404.855705	2553.546069
405.237282	2553.301573
405.618797	2556.049002
406.000250	2556.336348
406.381642	2553.568754
406.762972	2553.876265
407.144240	2551.471634
407.525447	2552.537838
407.906593	2549.621531
408.287677	2556.406924
408.668700	2555.978426
409.049661	2556.865669
409.430560	2552.812581
409.811399	2556.164949
410.192176	2557.778118
410.572891	2560.470094
410.953545	2553.306614
411.334138	2558.501523
411.714669	2556.785011
412.095139	2558.372974
412.475547	2558.688046
412.855894	2557.319373
413.236180	2557.649568
413.616405	2558.446071
413.996568	2556.396842
414.376670	2559.038406
414.756711	2559.630742
415.136691	2560.966648
415.516609	2556.837943
415.896466	2556.800134
416.276262	2560.906154
416.655997	2558.526729
417.035670	2560.646534
417.415283	2559.358520
417.794834	2560.734755
418.174324	2559.706359
418.553753	2556.359033
418.933121	2561.017059
419.312428	2561.939590
419.691674	2561.770712
420.070859	2559.701318
420.449983	2559.716442
420.829045	2562.544529
421.208047	2560.855742
421.586988	2562.405897
421.965867	2560.775084
422.344686	2562.665517
422.723444	2562.753737
423.102141	2563.799776
423.480777	2559.577810
423.859352	2562.103428
424.237866	2562.239539
424.616319	2561.243911
424.994712	2567.000909
425.373044	2562.458829
425.751314	2559.071174
426.129524	2557.851215
426.507673	2563.761967
426.885762	2557.357182
427.263789	2560.255845
427.641756	2561.758109
428.019662	2564.230795
428.397508	2563.058727
428.775292	2562.373130
429.153016	2564.719787
429.530679	2564.223233
429.908282	2562.814231
430.285824	2567.147102
430.663305	2562.413459
431.040726	2564.389591
431.418086	2563.638459
431.795385	2564.185424
432.172624	2562.262224
432.549802	2565.773388
432.926920	2565.828841
433.303977	2567.310940
433.680974	2564.971844
434.057910	2566.063254
434.434786	2564.162739
434.811601	2565.894376
435.188355	2563.330949
435.565050	2565.937225
435.941683	2565.864129
436.318257	2562.289951
436.694770	2564.566032
437.071222	2564.046793
437.447614	2565.478480
437.823946	2568.573749
438.200218	2565.082750
438.576429	2562.320198
438.952580	2567.923440
439.328670	2567.588203
439.704700	2567.333625
440.080670	2564.654252
440.456580	2563.709035
440.832429	2568.818245
441.208218	2567.691547
441.583947	2566.080898
441.959616	2567.192473
442.335224	2566.065775
442.710773	2567.240364
443.086261	2568.412432
443.461689	2566.819427
443.837057	2567.631053
444.212365	2567.762123
444.587612	2565.692729
444.962800	2566.466547
445.337927	2565.400343
445.712995	2562.809189
446.088002	2566.406053
446.462949	2568.828327
446.837837	2566.343038
447.212664	2570.015519
447.587431	2569.531568
447.962139	2567.956207
448.336786	2569.831517
448.711374	2569.166084
449.085901	2570.466702
449.460369	2569.226578
449.834776	2568.712381
450.209124	2565.682647
450.583412	2572.130283
450.957640	2569.632391
451.331808	2570.494428
451.705917	2570.078533
452.079965	2571.202711
452.453954	2570.494428
452.827883	2573.521641
453.201752	2569.299675
453.575562	2569.589541
453.949311	2570.761610
454.323001	2571.921075
454.696632	2571.895869
455.070202	2573.201528
455.443713	2571.225396
455.817164	2570.885118
456.190556	2571.492577
456.563888	2572.019377
456.937160	2571.510221
457.310373	2574.144224
457.683526	2572.334450
458.056619	2572.233627
458.429653	2573.367886
458.802628	2572.359655
459.175542	2573.471230
459.548398	2575.033988
459.921194	2573.740932
460.293930	2574.857547
460.666607	2573.418298
461.039224	2573.761096
461.411782	2574.721436
461.784280	2576.440469
462.156719	2572.866291
462.529099	2574.522310
462.901419	2574.242526
463.273680	2575.056673
463.645882	2570.459140
464.018024	2572.962073
464.390106	2573.125911
464.762130	2575.986766
465.134094	2577.693196
465.505999	2576.453072
465.877845	2578.956005
466.249631	2580.927096
466.621358	2580.763259
466.993026	2580.269226
467.364634	2583.215780
467.736184	2580.196129
468.107674	2576.795871
468.479105	2578.983732
468.850477	2580.962384
469.221790	2577.975501
469.593043	2577.173957
469.964238	2578.013309
470.335373	2577.670511
470.706449	2580.165882
471.077467	2577.531879
471.448425	2581.295101
471.819324	2580.818712
472.190164	2583.571182
472.560945	2581.398444
472.931667	2582.636047
473.302330	2580.856520
473.672934	2579.134966
474.043479	2579.659246
474.413965	2580.785944
474.784393	2580.334761
475.154761	2583.044381
475.525070	2579.699575
475.895321	2582.212591
476.265513	2578.898032
476.635645	2580.967426
477.005719	2581.106057
477.375734	2582.275605
477.745691	2584.302149
478.115588	2585.138980
478.485427	2584.365163
478.855207	2582.313414
479.224928	2587.329362
479.594591	2587.483117
479.964194	2589.829774
480.333739	2585.713672
480.703226	2587.490679
481.072653	2588.372881
481.442022	2589.169383
481.811333	2588.037644
482.180584	2585.559917
482.549777	2584.816347
482.918912	2584.337437
483.287988	2589.950762
483.657005	2586.079156
484.025964	2585.186871
484.394864	2586.432036
484.763706	2587.626790
485.132489	2588.599732
485.501213	2590.165011
485.869879	2589.224836
486.238487	2587.599063
486.607036	2589.683581
486.975527	2586.774835
487.343959	2587.092427
487.712333	2589.492017
488.080648	2587.331882
488.448905	2587.778024
488.817104	2590.883375
489.185244	2589.519743
489.553326	2588.705597
489.921350	2589.557552
490.289315	2592.594847
490.657222	2594.941504
491.025070	2594.036617
491.392861	2595.977461
491.760593	2594.996957
492.128267	2595.183479
492.495883	2594.031576
492.863440	2590.533015
493.230939	2591.561410
493.598380	2595.632142
493.965763	2591.712645
494.333088	2592.274734
494.700354	2591.503437
495.067563	2588.435895
495.434713	2590.691811
495.801805	2594.545773
496.168839	2591.402614
496.535815	2592.826740
496.902733	2590.996801
497.269593	2592.448653
497.636395	2591.505958
498.003139	2595.483428
498.369825	2593.774477
498.736453	2591.879003
499.103023	2594.381936
499.469535	2593.673654
499.835989	2593.522419
500.202385	2591.226174
500.568723	2590.850608
500.935003	2592.037799
501.301226	2586.426995
501.667390	2595.591813
502.033497	2597.963676
502.399546	2594.145002
502.765537	2594.954107
503.131470	2597.822523
503.497345	2596.658017
503.863163	2596.826896
504.228923	2599.488625
504.594625	2594.921339
504.960269	2598.039293
505.325856	2599.745724
505.691385	2596.799169
506.056856	2599.501228
506.422270	2599.970055
506.787625	2600.751434
507.152924	2599.039962
507.518164	2599.818820
507.883347	2600.932915
508.248472	2599.919643
508.613540	2606.004316
508.978550	2604.983482
509.343503	2606.140427
509.708398	2604.514655
510.073236	2605.154882
510.438016	2604.900303
510.802738	2608.451796
511.167403	2608.212342
511.532010	2608.633278
511.896561	2610.891715
512.261053	2611.552106
512.625488	2610.992538
512.989866	2609.263422
513.354186	2613.208125
513.718449	2616.608383
514.082655	2615.259875
514.446803	2613.377004
514.810894	2616.288270
515.174927	2621.538632
515.538904	2621.228601
515.902822	2619.544855
516.266684	2620.681636
516.630488	2618.657612
516.994235	2619.154166
517.357925	2621.309259
517.721558	2626.226905
518.085133	2623.179527
518.448651	2623.240021
518.812112	2622.498972
519.175516	2625.027110
519.538863	2622.259517
519.902152	2630.206896
520.265385	2633.113121
520.628560	2632.288892
520.991678	2633.236629
521.354739	2633.617236
521.717743	2634.602782
522.080690	2634.222175
522.443580	2638.950777
522.806413	2642.580408
523.169189	2642.681231
523.531908	2641.824235
523.894569	2640.919348
524.257174	2644.150727
524.619722	2645.355563
524.982213	2648.584422
525.344647	2647.334216
525.707025	2649.370842
526.069345	2654.124650
526.431608	2652.428302
526.793815	2654.769918
527.155964	2655.163128
527.518057	2654.447284
527.880093	2659.707728
528.242072	2659.869045
528.603995	2662.588747
528.965860	2661.164622
529.327669	2660.751247
529.689421	2667.461023
530.051117	2669.696774
530.412755	2669.452278
530.774337	2672.630726
531.135862	2672.224913
531.497331	2675.163906
531.858743	2674.954698
532.220098	2680.187416
532.581396	2684.724454
532.942638	2682.561799
533.303824	2684.537931
533.664953	2688.147397
534.026025	2689.924404
534.387040	2692.744930
534.747999	2698.101156
535.108902	2700.420087
535.469748	2700.034438
535.830537	2704.480736
536.191270	2712.470965
536.551947	2706.298072
536.912567	2710.376365
537.273131	2715.740153
537.633638	2720.269630
537.994089	2722.775083
538.354483	2726.966803
538.714821	2735.912330
539.075103	2737.540623
539.435328	2742.196128
539.795497	2743.814339
540.155609	2751.262644
540.515665	2754.216760
540.875665	2754.486462
541.235609	2761.176073
541.595496	2769.196548
541.955328	2777.169133
542.315102	2784.778755
542.674821	2783.692386
543.034483	2789.129271
543.394090	2794.770322
543.753640	2803.892290
544.113134	2815.446614
544.472571	2817.679846
544.831953	2829.546722
545.191278	2835.409584
545.550548	2840.526355
545.909761	2846.600945
546.268918	2858.414889
546.628019	2867.488966
546.987064	2878.902138
547.346053	2884.260885
547.704986	2892.268758
548.063863	2904.879204
548.422684	2908.894483
548.781449	2918.288673
549.140158	2936.419183
549.498811	2942.024946
549.857408	2949.485854
550.215949	2968.226343
550.574434	2975.790595
550.932864	2991.408089
551.291237	3002.783453
551.649555	3019.449508
552.007817	3035.044317
552.366022	3046.724671
552.724173	3060.887792
553.082267	3074.781212
553.440305	3106.812704
553.798288	3104.024946
554.156215	3136.179946
554.514086	3153.214004
554.871902	3150.945485
555.229661	3177.051100
555.587365	3199.859801
555.945014	3215.086606
556.302606	3251.834097
556.660143	3265.782970
557.017625	3304.090698
557.375050	3314.972028
557.732421	3342.045545
558.089735	3367.422714
558.446994	3388.088924
558.804197	3421.431115
559.161345	3456.043678
559.518437	3455.602577
559.875474	3501.993795
560.232455	3525.165459
560.589381	3560.889595
560.946251	3580.088830
561.303065	3630.691932
561.659825	3669.274403
562.016528	3679.439890
562.373177	3703.949980
562.729770	3737.050196
563.086307	3787.804533
563.442789	3824.864575
563.799216	3860.109802
564.155587	3882.295921
564.511904	3933.844239
564.868164	3950.689255
565.224370	4005.279910
565.580520	4022.775234
565.936615	4086.500460
566.292654	4090.780400
566.648638	4171.098583
567.004567	4191.006100
567.360441	4233.936566
567.716260	4253.937344
568.072023	4334.734437
568.427732	4369.241135
568.783385	4392.208632
569.138982	4460.317141
569.494525	4521.904918
569.850013	4562.244231
570.205445	4609.106797
570.560823	4628.966422
570.916145	4680.484494
571.271412	4725.267584
571.626625	4785.280000
571.981782	4829.017051
572.336884	4859.369838
572.691931	4931.291980
573.046923	4938.828505
573.401860	5006.652189
573.756743	5074.196089
574.111570	5111.989619
574.466342	5148.321215
574.821059	5224.079675
575.175722	5236.874124
575.530330	5316.700795
575.884882	5368.138208
576.239380	5423.742135
576.593823	5465.606397
576.948211	5504.433364
577.302544	5536.454773
577.656823	5584.295323
578.011047	5671.338406
578.365216	5710.157811
578.719330	5770.029075
579.073389	5796.059073
579.427394	5910.936887
579.781344	5906.281381
580.135239	5979.471373
580.489080	6021.501993
580.842866	6034.256113
581.196597	6175.121075
581.550273	6191.835020
581.903895	6290.208096
582.257463	6393.950001
582.610975	6390.161574
582.964434	6510.947620
583.317837	6536.168513
583.671186	6621.568180
584.024481	6705.039605
584.377721	6693.437390
584.730906	6783.681605
585.084037	6874.593774
585.437113	6920.622029
585.790135	7018.846391
586.143103	6983.575958
586.496016	7032.991869
586.848874	7203.675256
587.201679	7234.912765
587.554428	7221.301650
587.907124	7382.174952
588.259765	7395.682723
588.612352	7518.744850
588.964884	7469.954043
589.317362	7588.017866
589.669786	7670.773447
590.022155	7756.518433
590.374470	7890.028352
590.726731	7919.322497
591.078937	7912.189264
591.431090	8006.897421
591.783188	7994.188672
592.135232	8041.643574
592.487222	8183.184051
592.839157	8241.787464
593.191038	8302.850961
593.542866	8311.864544
593.894639	8321.026841
594.246358	8459.068757
594.598022	8487.004311
594.949633	8492.075712
595.301190	8532.049541
595.652692	8663.164911
596.004141	8821.265578
596.355535	8652.581009
596.706876	8736.906910
597.058162	8774.647508
597.409395	8889.149756
597.760573	9021.235548
598.111698	9025.334007
598.462768	9059.326507
598.813785	9107.610678
599.164748	9114.224672
599.515657	9184.700003
599.866511	9183.754787
600.217312	9389.181806
600.568060	9263.793186
600.918753	9478.377462
601.269392	9523.097537
601.619978	9478.138007
601.970510	9673.190331
602.320988	9689.158186
602.671412	9856.330409
603.021783	9879.305468
603.372100	9834.320732
603.722363	9978.185180
604.072572	10024.220997
604.422728	10122.097520
604.772830	10131.698397
605.122878	10131.416093
605.472872	10226.144414
605.822813	10297.650661
606.172701	10347.066572
606.522534	10513.079330
606.872314	10590.410630
607.222041	10550.106605
607.571714	10731.474717
607.921333	10733.662578
608.270899	10833.946251
608.620411	11028.912876
608.969870	10923.547720
609.319276	11009.577531
609.668627	11118.907555
610.017926	11250.640467
610.367171	11371.290402
610.716362	11503.265289
611.065500	11431.534711
611.414585	11576.223388
611.763616	11644.896506
612.112594	11693.493229
612.461518	11712.546270
612.810389	11890.257025
613.159207	11844.697598
613.507971	11873.306146
613.856682	12145.450315
614.205340	12155.197386
614.553945	12322.440186
614.902496	12190.954291
615.250994	12458.816000
615.599439	12464.446969
615.947830	12509.323321
616.296169	12572.622569
616.644454	12654.163232
616.992686	12655.713387
617.340864	12874.365873
617.688990	12800.928865
618.037063	12985.528357
618.385082	12943.076800
618.733048	13170.813446
619.080961	13134.590235
619.428821	13242.133170
619.776628	13243.388417
620.124382	13236.597983
620.472083	13340.760824
620.819731	13420.554728
621.167326	13270.678704
621.514868	13353.416641
621.862357	13258.068257
622.209793	13325.707939
622.557176	13291.841468
622.904506	13207.203015
623.251783	13206.151934
623.599007	13146.441988
623.946179	13149.363336
624.293297	13165.369000
624.640363	13053.775498
624.987376	13103.738373
625.334336	12991.595386
625.681243	12948.624590
626.028097	12986.551711
626.374899	13025.781970
626.721647	12940.102520
627.068343	12848.761853
627.414987	12857.072195
627.761577	12913.092017
628.108115	13005.443435
628.454600	12796.918627
628.801032	12910.876430
629.147412	12903.430646
629.493739	12963.927013
629.840014	12862.756096
630.186236	12975.418323
630.532405	12830.159995
630.878521	13028.846992
631.224585	12969.857930
631.570597	12894.608627
631.916556	12928.386878
632.262462	12947.099641
632.608316	12928.162547
632.954117	12907.950040
633.299866	12951.785394
633.645562	12933.246550
633.991206	12753.753747
634.336797	12675.000842
634.682336	12703.324565
635.027823	12649.608550
635.373257	12612.392232
635.718639	12545.049978
636.063968	12534.680324
636.409245	12376.705686
636.754470	12433.446393
637.099642	12335.758914
637.444762	12172.670026
637.789829	12256.073395
638.134845	12146.070377
638.479808	12189.373889
638.824719	12189.172243
639.169577	12083.975965
639.514383	12148.323773
639.859137	12021.989937
640.203839	12121.610699
640.548489	12003.884633
640.893086	12034.875126
641.237632	11924.115935
641.582125	12095.126997
641.926566	11983.568783
642.270955	12001.464879
642.615292	12001.727019
642.959576	12023.255267
