Dividing Wavelength (nm)	Counts (n)	Blue Motor Position (mm): 6.200000	Red Motor Position (mm): 0.000000	
326.493990	2158.546460
326.888308	2158.546460
327.282561	2158.546460
327.676750	2118.638165
328.070874	2114.978288
328.464933	2113.990221
328.858929	2119.732096
329.252859	2120.939452
329.646726	2131.639301
330.040528	2141.401495
330.434265	2156.761891
330.827938	2173.634633
331.221547	2192.488548
331.615091	2211.055118
332.008571	2228.676471
332.401986	2247.502660
332.795338	2264.418252
333.188625	2284.040943
333.581847	2302.181536
333.975006	2322.131902
334.368100	2336.990703
334.761129	2354.728003
335.154095	2373.934799
335.546996	2390.263096
335.939833	2407.561816
336.332606	2418.496078
336.725315	2430.889755
337.117960	2448.974894
337.510540	2457.829681
337.903056	2468.978193
338.295508	2476.497074
338.687896	2488.573158
339.080220	2494.236894
339.472480	2501.261742
339.864676	2507.217865
340.256807	2513.075686
340.648875	2517.590039
341.040879	2517.501819
341.432818	2520.100534
341.824694	2526.946421
342.216506	2527.016997
342.608253	2526.008766
342.999937	2524.647655
343.391557	2525.156811
343.783113	2525.053468
344.174605	2526.104548
344.566033	2527.006915
344.957397	2525.025741
345.348697	2520.813857
345.739934	2519.629186
346.131106	2518.668846
346.522215	2517.811850
346.913260	2517.070801
347.304241	2511.147445
347.695159	2511.591066
348.086012	2506.832217
348.476802	2509.534276
348.867528	2505.196363
349.258191	2498.874756
349.648789	2499.086484
350.039324	2495.771926
350.429796	2498.753768
350.820203	2498.519354
351.210548	2498.335352
351.600828	2498.209323
351.991045	2495.154384
352.381198	2491.733961
352.771288	2493.531133
353.161314	2490.854280
353.551276	2492.807727
353.941175	2491.416369
354.331010	2491.975937
354.720782	2492.885865
355.110490	2492.908550
355.500135	2490.367809
355.889717	2490.017448
356.279235	2490.839157
356.668689	2491.227325
357.058080	2492.346462
357.447408	2492.343941
357.836672	2493.795793
358.225873	2492.177583
358.615010	2491.083653
359.004084	2493.606750
359.393095	2494.456184
359.782043	2493.100114
360.170927	2495.144302
360.559748	2495.101452
360.948505	2495.398880
361.337199	2495.068685
361.725830	2496.419714
362.114398	2497.619508
362.502903	2500.051865
362.891344	2499.194869
363.279722	2496.976761
363.668037	2499.474653
364.056289	2501.642349
364.444478	2501.481032
364.832603	2502.118738
365.220665	2498.821824
365.608665	2502.574963
365.996601	2504.972031
366.384474	2501.075219
366.772284	2504.059582
367.160031	2503.905827
367.547715	2502.123779
367.935336	2506.728873
368.322893	2504.576301
368.710388	2499.988851
369.097820	2504.672083
369.485189	2501.672596
369.872495	2504.601507
370.259738	2503.726866
370.646918	2505.380365
371.034035	2504.961949
371.421090	2506.302896
371.808081	2505.002278
372.195010	2507.099398
372.581875	2505.743328
372.968678	2509.993021
373.355418	2506.408760
373.742096	2507.326250
374.128710	2508.871364
374.515262	2508.331960
374.901751	2508.337002
375.288177	2506.559995
375.674540	2508.389934
376.060841	2508.684841
376.447079	2509.438494
376.833254	2511.487723
377.219367	2511.288597
377.605417	2512.919410
377.991404	2511.467558
378.377329	2510.171982
378.763191	2511.984276
379.148991	2510.396313
379.534727	2510.824811
379.920402	2513.922600
380.306013	2511.694410
380.691563	2510.534945
381.077049	2513.080727
381.462474	2510.479492
381.847835	2513.922600
382.233134	2512.778258
382.618371	2511.626354
383.003545	2514.192302
383.388657	2511.167609
383.773706	2513.123577
384.158693	2512.185922
384.543618	2514.956037
384.928480	2512.712723
385.313280	2514.449401
385.698017	2512.382527
386.082692	2515.997035
386.467305	2513.897394
386.851856	2515.997035
387.236344	2513.305059
387.620770	2514.091479
388.005133	2512.921931
388.389435	2511.999400
388.773674	2512.589215
389.157851	2516.198681
389.541965	2516.191119
389.926018	2517.249762
390.310008	2516.024761
390.693936	2519.578775
391.077802	2516.067611
391.461606	2517.393434
391.845348	2518.290760
392.229027	2519.079700
392.612645	2519.205729
392.996200	2518.689011
393.379694	2519.334279
393.763125	2518.419309
394.146494	2520.075328
394.529801	2520.987777
394.913047	2521.315452
395.296230	2521.151615
395.679351	2519.306552
396.062410	2519.077180
396.445408	2521.136491
396.828343	2522.174969
397.211217	2519.200688
397.594028	2517.738753
397.976778	2516.617097
398.359466	2520.312263
398.742092	2520.473579
399.124656	2522.008611
399.507158	2522.726975
399.889598	2520.589526
400.271977	2519.954341
400.654294	2520.549197
401.036549	2522.938704
401.418742	2524.236801
401.800874	2522.792510
402.182944	2522.018693
402.564952	2522.739578
402.946898	2523.757891
403.328783	2523.997346
403.710606	2523.488189
404.092367	2523.039527
404.474067	2523.505833
404.855705	2524.922398
405.237282	2521.570030
405.618797	2522.913498
406.000250	2522.457273
406.381642	2525.055988
406.762972	2522.227901
407.144240	2520.463497
407.525447	2522.162366
407.906593	2516.095337
408.287677	2523.914167
408.668700	2523.730165
409.049661	2524.035155
409.430560	2528.365506
409.811399	2524.430885
410.192176	2526.772501
410.572891	2525.993643
410.953545	2526.893489
411.334138	2526.084384
411.714669	2524.844260
412.095139	2526.074301
412.475547	2524.592202
412.855894	2525.217305
413.236180	2526.507841
413.616405	2529.164529
413.996568	2527.687471
414.376670	2530.099663
414.756711	2530.576052
415.136691	2526.827954
415.516609	2530.213089
415.896466	2528.778880
416.276262	2528.191586
416.655997	2527.566483
417.035670	2526.540608
417.415283	2529.797193
417.794834	2525.754188
418.174324	2530.976823
418.553753	2528.738551
418.933121	2531.196114
419.312428	2529.315763
419.691674	2529.714014
420.070859	2530.921371
420.449983	2528.862059
420.829045	2527.810979
421.208047	2531.843902
421.586988	2529.504807
421.965867	2531.334745
422.344686	2529.782070
422.723444	2529.608150
423.102141	2529.177132
423.480777	2532.975641
423.859352	2532.985723
424.237866	2532.007739
424.616319	2532.174098
424.994712	2532.393388
425.373044	2532.726104
425.751314	2527.793335
426.129524	2526.321318
426.507673	2530.371885
426.885762	2526.470032
427.263789	2530.908768
427.641756	2530.122348
428.019662	2533.394057
428.397508	2531.392719
428.775292	2531.682585
429.153016	2532.315250
429.530679	2534.233409
429.908282	2530.898686
430.285824	2531.375075
430.663305	2531.470857
431.040726	2533.489839
431.418086	2534.147709
431.795385	2531.947246
432.172624	2531.808614
432.549802	2534.200641
432.926920	2534.127545
433.303977	2531.574200
433.680974	2533.121834
434.057910	2530.785260
434.434786	2532.849612
434.811601	2536.305323
435.188355	2533.998995
435.565050	2531.143182
435.941683	2533.762061
436.318257	2535.138296
436.694770	2538.483102
437.071222	2533.918337
437.447614	2533.850281
437.823946	2537.109387
438.200218	2533.414221
438.576429	2536.222144
438.952580	2534.571166
439.328670	2535.725590
439.704700	2538.296579
440.080670	2538.021836
440.456580	2535.274407
440.832429	2535.985210
441.208218	2535.652494
441.583947	2538.092412
441.959616	2535.851619
442.335224	2537.742052
442.710773	2535.554191
443.086261	2537.961342
443.461689	2536.045704
443.837057	2537.023687
444.212365	2535.450847
444.587612	2533.709129
444.962800	2534.994623
445.337927	2534.485467
445.712995	2531.049920
446.088002	2536.701054
446.462949	2539.390509
446.837837	2534.528316
447.212664	2537.426980
447.587431	2536.726259
447.962139	2537.719367
448.336786	2539.226672
448.711374	2537.174922
449.085901	2538.299099
449.460369	2538.059645
449.834776	2538.266332
450.209124	2538.858667
450.583412	2536.998482
450.957640	2539.332536
451.331808	2537.255581
451.705917	2537.900848
452.079965	2540.018133
452.453954	2539.597197
452.827883	2538.031918
453.201752	2536.292720
453.575562	2538.218441
453.949311	2539.589635
454.323001	2540.350849
454.696632	2540.267670
455.070202	2540.413863
455.443713	2537.202648
455.817164	2538.430169
456.190556	2537.651311
456.563888	2539.420756
456.937160	2539.597197
457.310373	2540.060983
457.683526	2539.357742
458.056619	2539.594676
458.429653	2538.619213
458.802628	2540.350849
459.175542	2537.638708
459.548398	2539.435880
459.921194	2538.336908
460.293930	2539.335057
460.666607	2539.272042
461.039224	2539.511497
461.411782	2540.570139
461.784280	2538.556198
462.156719	2541.749769
462.529099	2538.251208
462.901419	2539.982845
463.273680	2535.667617
463.645882	2536.383461
464.018024	2538.460416
464.390106	2535.675179
464.762130	2542.999975
465.134094	2540.900335
465.505999	2541.830428
465.877845	2543.975439
466.249631	2540.764224
466.621358	2541.366642
466.993026	2540.378575
467.364634	2547.582384
467.736184	2541.089378
468.107674	2543.496529
468.479105	2542.034594
468.850477	2542.584080
469.221790	2542.778165
469.593043	2540.585263
469.964238	2539.738349
470.335373	2543.302445
470.706449	2540.857485
471.077467	2540.867567
471.448425	2542.866385
471.819324	2543.325130
472.190164	2544.295552
472.560945	2542.755479
472.931667	2543.380582
473.302330	2542.495860
473.672934	2542.581560
474.043479	2544.212373
474.413965	2540.605427
474.784393	2540.998637
475.154761	2542.997455
475.525070	2541.409491
475.895321	2545.323947
476.265513	2542.377393
476.635645	2541.278421
477.005719	2544.535007
477.375734	2542.790767
477.745691	2543.375541
478.115588	2540.940664
478.485427	2542.808412
478.855207	2542.616848
479.224928	2544.109029
479.594591	2544.358566
479.964194	2542.074924
480.333739	2542.707588
480.703226	2543.584749
481.072653	2541.548123
481.442022	2541.285983
481.811333	2539.745911
482.180584	2538.654501
482.549777	2541.961498
482.918912	2537.348842
483.287988	2542.400078
483.657005	2541.908566
484.025964	2542.848741
484.394864	2542.823535
484.763706	2545.591128
485.132489	2542.992414
485.501213	2543.332692
485.869879	2543.136087
486.238487	2543.700696
486.607036	2540.759183
486.975527	2545.825542
487.343959	2542.483257
487.712333	2544.121632
488.080648	2541.359080
488.448905	2544.295552
488.817104	2545.059287
489.185244	2544.519883
489.553326	2544.855120
489.921350	2545.301262
490.289315	2546.120450
490.657222	2544.492157
491.025070	2547.020296
491.392861	2546.115408
491.760593	2543.975439
492.128267	2545.722198
492.495883	2543.730943
492.863440	2545.200439
493.230939	2544.847558
493.598380	2547.879812
493.965763	2544.492157
494.333088	2545.961653
494.700354	2545.961653
495.067563	2544.938299
495.434713	2545.770089
495.801805	2546.886705
496.168839	2543.942671
496.535815	2547.514329
496.902733	2546.170861
497.269593	2543.554502
497.636395	2545.152548
498.003139	2546.881664
498.369825	2545.891077
498.736453	2545.989380
499.103023	2548.071376
499.469535	2546.453166
499.835989	2545.029040
500.202385	2541.570808
500.568723	2541.901004
500.935003	2543.952753
501.301226	2540.083668
501.667390	2548.106664
502.033497	2549.374514
502.399546	2545.263453
502.765537	2548.583053
503.131470	2547.443753
503.497345	2546.191026
503.863163	2546.798485
504.228923	2546.072559
504.594625	2547.552137
504.960269	2544.527445
505.325856	2545.651622
505.691385	2545.240768
506.056856	2547.773948
506.422270	2548.542724
506.787625	2547.410985
507.152924	2546.811088
507.518164	2544.736653
507.883347	2545.659184
508.248472	2544.494677
508.613540	2547.940306
508.978550	2547.292518
509.343503	2548.434339
509.708398	2545.197918
510.073236	2548.159596
510.438016	2546.511139
510.802738	2547.247147
511.167403	2546.049873
511.532010	2546.785882
511.896561	2546.382590
512.261053	2545.626417
512.625488	2545.041643
512.989866	2548.330996
513.354186	2548.204967
513.718449	2546.682538
514.082655	2545.192877
514.446803	2544.313196
514.810894	2548.245296
515.174927	2550.521377
515.538904	2545.071890
515.902822	2546.138094
516.266684	2546.692621
516.630488	2548.386448
516.994235	2546.478372
517.357925	2546.707744
517.721558	2548.706562
518.085133	2547.955430
518.448651	2546.758156
518.812112	2542.876467
519.175516	2543.516694
519.538863	2540.602907
519.902152	2546.480892
520.265385	2547.652960
520.628560	2551.398538
520.991678	2547.378217
521.354739	2547.529452
521.717743	2548.547765
522.080690	2547.373176
522.443580	2544.603062
522.806413	2548.646068
523.169189	2547.592467
523.531908	2547.095913
523.894569	2547.733619
524.257174	2547.892415
524.619722	2548.653629
524.982213	2545.467620
525.344647	2547.768907
525.707025	2548.396531
526.069345	2548.832590
526.431608	2548.827549
526.793815	2547.418547
527.155964	2550.201264
527.518057	2547.375697
527.880093	2547.098433
528.242072	2548.754452
528.603995	2548.008362
528.965860	2546.982487
529.327669	2547.957950
529.689421	2549.989535
530.051117	2549.094730
530.412755	2548.779658
530.774337	2548.966181
531.135862	2545.734801
531.497331	2548.457024
531.858743	2547.158927
532.220098	2545.981818
532.581396	2547.869730
532.942638	2549.399720
533.303824	2547.080789
533.664953	2550.017262
534.026025	2548.976263
534.387040	2548.333516
534.747999	2549.059442
535.108902	2546.954761
535.469748	2552.028682
535.830537	2548.996428
536.191270	2547.506767
536.551947	2547.287477
536.912567	2544.159441
537.273131	2547.365615
537.633638	2541.608617
537.994089	2546.851417
538.354483	2547.950388
538.714821	2549.210677
539.075103	2547.307641
539.435328	2548.262940
539.795497	2549.414844
540.155609	2549.629093
540.515665	2550.458363
540.875665	2547.630275
541.235609	2551.640513
541.595496	2549.089689
541.955328	2545.389482
542.315102	2549.092210
542.674821	2548.832590
543.034483	2551.060780
543.394090	2548.610780
543.753640	2550.357539
544.113134	2549.576161
544.472571	2549.475338
544.831953	2551.239741
545.191278	2550.082797
545.550548	2549.177909
545.909761	2550.450801
546.268918	2549.800492
546.628019	2547.889895
546.987064	2550.105482
547.346053	2551.070863
547.704986	2550.312169
548.063863	2551.774104
548.422684	2550.760832
548.781449	2548.832590
549.140158	2548.872920
549.498811	2552.580688
549.857408	2549.384597
550.215949	2550.206305
550.574434	2550.344937
550.932864	2552.875596
551.291237	2549.924000
551.649555	2551.426264
552.007817	2554.002294
552.366022	2552.338713
552.724173	2550.889381
553.082267	2552.832746
553.440305	2552.799978
553.798288	2552.479865
554.156215	2553.490617
554.514086	2551.517005
554.871902	2549.243444
555.229661	2548.973743
555.587365	2546.551468
555.945014	2554.942469
556.302606	2555.459187
556.660143	2551.985832
557.017625	2553.997253
557.375050	2554.009855
557.732421	2553.604043
558.089735	2554.108158
558.446994	2554.803837
558.804197	2552.832746
559.161345	2554.463559
559.518437	2555.106306
559.875474	2553.513302
560.232455	2553.147818
560.589381	2552.530277
560.946251	2553.021789
561.303065	2554.632438
561.659825	2553.094886
562.016528	2555.459187
562.373177	2556.220401
562.729770	2554.937428
563.086307	2554.670247
563.442789	2555.784342
563.799216	2554.355174
564.155587	2556.008673
564.511904	2557.291647
564.868164	2556.109496
565.224370	2554.294681
565.580520	2558.209137
565.936615	2556.348951
566.292654	2553.916594
566.648638	2555.945658
567.004567	2557.268961
567.360441	2556.313663
567.716260	2556.888354
568.072023	2554.448436
568.427732	2556.923642
568.783385	2555.252500
569.138982	2554.914742
569.494525	2553.510781
569.850013	2554.960113
570.205445	2555.935576
570.560823	2554.899619
570.916145	2554.430792
571.271412	2556.089331
571.626625	2554.985319
571.981782	2553.241079
572.336884	2553.107489
572.691931	2549.765204
573.046923	2552.452139
573.401860	2550.954916
573.756743	2554.143446
574.111570	2555.965823
574.466342	2556.928683
574.821059	2553.301573
575.175722	2557.546225
575.530330	2557.684857
575.884882	2552.812581
576.239380	2557.876420
576.593823	2556.951369
576.948211	2553.301573
577.302544	2558.839281
577.656823	2556.520350
578.011047	2554.224104
578.365216	2553.311656
578.719330	2558.582182
579.073389	2556.885834
579.427394	2554.841646
579.781344	2555.522202
580.135239	2554.697973
580.489080	2553.699824
580.842866	2554.713096
581.196597	2555.229815
581.550273	2555.549928
581.903895	2553.737633
582.257463	2555.461708
582.610975	2555.703683
582.964434	2555.010524
583.317837	2553.616645
583.671186	2554.629917
584.024481	2553.467931
584.377721	2554.405586
584.730906	2554.085473
585.084037	2555.643189
585.437113	2553.861141
585.790135	2555.018086
586.143103	2554.440874
586.496016	2556.706873
586.848874	2555.607901
587.201679	2553.588919
587.554428	2554.755946
587.907124	2554.982798
588.259765	2554.874413
588.612352	2553.528425
588.964884	2553.462890
589.317362	2553.672098
589.669786	2553.513302
590.022155	2553.455328
590.374470	2548.789741
590.726731	2552.348795
591.078937	2550.102961
591.431090	2551.348126
591.783188	2553.662016
592.135232	2553.951882
592.487222	2554.640000
592.839157	2553.871224
593.191038	2552.603373
593.542866	2554.019938
593.894639	2553.911553
594.246358	2552.973898
594.598022	2551.348126
594.949633	2554.181255
595.301190	2552.069011
595.652692	2553.026830
596.004141	2552.658826
596.355535	2553.346944
596.706876	2551.774104
597.058162	2554.072870
597.409395	2555.149156
597.760573	2553.508261
598.111698	2553.856100
598.462768	2556.661502
598.813785	2552.714279
599.164748	2551.859803
599.515657	2553.034392
599.866511	2552.983981
600.217312	2552.270657
600.568060	2551.169165
600.918753	2555.086142
601.269392	2552.336192
601.619978	2553.747715
601.970510	2553.190668
602.320988	2549.558517
602.671412	2553.180586
603.021783	2551.764021
603.372100	2551.151521
603.722363	2550.042467
604.072572	2554.032541
604.422728	2553.412479
604.772830	2552.348795
605.122878	2552.167314
605.472872	2551.690925
605.822813	2553.576316
606.172701	2550.687735
606.522534	2549.460214
606.872314	2552.694114
607.222041	2551.693445
607.571714	2549.803012
607.921333	2547.882333
608.270899	2551.827036
608.620411	2550.496171
608.969870	2553.077242
609.319276	2556.921122
609.668627	2559.565207
610.017926	2564.581155
610.367171	2566.670713
610.716362	2564.122410
611.065500	2561.521175
611.414585	2561.624518
611.763616	2559.711400
612.112594	2556.104455
612.461518	2558.619991
612.810389	2554.261913
613.159207	2558.635114
613.507971	2555.600339
613.856682	2554.944989
614.205340	2553.856100
614.553945	2554.408107
614.902496	2553.215874
615.250994	2555.285267
615.599439	2552.494989
615.947830	2553.583878
616.296169	2554.269475
616.644454	2553.709907
616.992686	2552.399207
617.340864	2554.357695
617.688990	2550.113043
618.037063	2555.154197
618.385082	2552.603373
618.733048	2553.354505
619.080961	2553.127653
619.428821	2555.728889
619.776628	2553.780483
620.124382	2553.329300
620.472083	2551.983312
620.819731	2555.728889
621.167326	2554.287119
621.514868	2552.590771
621.862357	2553.641851
622.209793	2551.476676
622.557176	2554.927345
622.904506	2553.165462
623.251783	2552.399207
623.599007	2552.013558
623.946179	2553.341902
624.293297	2552.200081
624.640363	2551.559855
624.987376	2551.577499
625.334336	2548.835111
625.681243	2552.968857
626.028097	2546.438042
626.374899	2552.880637
626.721647	2550.375183
627.068343	2551.927859
627.414987	2555.640669
627.761577	2550.723023
628.108115	2552.865513
628.454600	2552.258054
628.801032	2553.440205
629.147412	2553.301573
629.493739	2553.102448
629.840014	2551.864844
630.186236	2555.454146
630.532405	2553.780483
630.878521	2553.440205
631.224585	2553.692263
631.570597	2552.245452
631.916556	2553.135215
632.262462	2551.892571
632.608316	2552.830225
632.954117	2550.957437
633.299866	2552.011038
633.645562	2552.978939
633.991206	2550.488609
634.336797	2551.481717
634.682336	2554.589588
635.027823	2549.046839
635.373257	2553.732592
635.718639	2555.108827
636.063968	2554.251831
636.409245	2551.000287
636.754470	2553.367108
637.099642	2553.563713
637.444762	2554.072870
637.789829	2553.878785
638.134845	2551.421223
638.479808	2554.128323
638.824719	2554.682849
639.169577	2552.792417
639.514383	2552.076573
639.859137	2555.128992
640.203839	2549.830739
640.548489	2551.111192
640.893086	2553.599001
641.237632	2553.593960
641.582125	2552.689073
641.926566	2552.799978
642.270955	2551.582540
642.615292	2547.506767
642.959576	2550.307128
643.303809	2546.518701
643.647990	2552.429454
643.992118	2556.177552
644.336195	2552.656306
