Dividing Wavelength (nm)	Counts (n)	Blue Motor Position (mm): 7.100000	Red Motor Position (mm): 0.000000	
326.493990	2159.075781
326.888308	2159.075781
327.282561	2159.075781
327.676750	2118.313011
328.070874	2113.218925
328.464933	2114.733792
328.858929	2119.137239
329.252859	2123.485235
329.646726	2131.367079
330.040528	2144.640437
330.434265	2157.384474
330.827938	2173.979952
331.221547	2191.608867
331.615091	2209.804912
332.008571	2227.164125
332.401986	2246.285222
332.795338	2265.194590
333.188625	2283.660336
333.581847	2302.872174
333.975006	2318.013279
334.368100	2338.321568
334.761129	2356.005935
335.154095	2375.048894
335.546996	2391.142777
335.939833	2409.237999
336.332606	2422.627304
336.725315	2437.602051
337.117960	2449.751232
337.510540	2460.740947
337.903056	2471.831486
338.295508	2480.713999
338.687896	2491.544918
339.080220	2494.451143
339.472480	2503.931033
339.864676	2508.437825
340.256807	2513.990656
340.648875	2516.987622
341.040879	2520.072808
341.432818	2522.661440
341.824694	2527.392563
342.216506	2525.209743
342.608253	2527.379960
342.999937	2525.199661
343.391557	2527.831143
343.783113	2527.533715
344.174605	2529.000691
344.566033	2526.044054
344.957397	2525.093797
345.348697	2524.992974
345.739934	2524.012469
346.131106	2521.567510
346.522215	2516.745646
346.913260	2518.177334
347.304241	2516.702796
347.695159	2513.237003
348.086012	2511.192815
348.476802	2510.761797
348.867528	2508.185767
349.258191	2502.121259
349.648789	2497.301916
350.039324	2497.458192
350.429796	2500.624036
350.820203	2501.748213
351.210548	2499.661176
351.600828	2500.971876
351.991045	2494.725886
352.381198	2494.995588
352.771288	2495.119096
353.161314	2494.582213
353.551276	2495.471977
353.941175	2493.863849
354.331010	2496.661689
354.720782	2489.450319
355.110490	2494.272182
355.500135	2494.269662
355.889717	2495.598006
356.279235	2491.071050
356.668689	2493.634476
357.058080	2493.150526
357.447408	2491.681029
357.836672	2492.883344
358.225873	2493.087511
358.615010	2493.379898
359.004084	2495.718993
359.393095	2494.246977
359.782043	2496.172697
360.170927	2495.577841
360.559748	2496.213027
360.948505	2497.954745
361.337199	2500.992040
361.725830	2497.959786
362.114398	2498.221926
362.502903	2499.101608
362.891344	2501.750734
363.279722	2501.226454
363.668037	2502.625374
364.056289	2501.523882
364.444478	2500.979437
364.832603	2501.970024
365.220665	2504.369613
365.608665	2502.592607
365.996601	2503.174860
366.384474	2503.089160
366.772284	2503.217710
367.160031	2503.895745
367.547715	2505.299706
367.935336	2505.211486
368.322893	2502.832062
368.710388	2503.013543
369.097820	2504.677124
369.485189	2502.043121
369.872495	2507.399347
370.259738	2506.615448
370.646918	2508.281549
371.034035	2506.633092
371.421090	2509.773730
371.808081	2508.362207
372.195010	2507.379182
372.581875	2509.667866
372.968678	2508.483195
373.355418	2508.311796
373.742096	2509.932527
374.128710	2511.638957
374.515262	2511.326406
374.901751	2509.451097
375.288177	2506.249964
375.674540	2511.734739
376.060841	2512.261540
376.447079	2510.860099
376.833254	2509.793895
377.219367	2512.125429
377.605417	2511.689369
377.991404	2509.282218
378.377329	2511.608710
378.763191	2512.911849
379.148991	2513.804133
379.534727	2512.793382
379.920402	2514.272960
380.306013	2515.555934
380.691563	2515.011489
381.077049	2511.931344
381.462474	2515.455111
381.847835	2511.936385
382.233134	2515.316479
382.618371	2515.036695
383.003545	2515.530728
383.388657	2515.684483
383.773706	2516.634741
384.158693	2516.327230
384.543618	2516.813702
384.928480	2514.671211
385.313280	2517.602642
385.698017	2516.342354
386.082692	2515.255985
386.467305	2515.760101
386.851856	2516.022241
387.236344	2517.292611
387.620770	2516.055008
388.005133	2509.743483
388.389435	2515.349247
388.773674	2513.431088
389.157851	2516.846469
389.541965	2516.722961
389.926018	2517.295132
390.310008	2519.745133
390.693936	2518.512571
391.077802	2516.483506
391.461606	2517.285050
391.845348	2518.923425
392.229027	2521.751512
392.612645	2519.563651
392.996200	2518.323527
393.379694	2519.727489
393.763125	2520.914680
394.146494	2518.946110
394.529801	2520.294618
394.913047	2520.609691
395.296230	2522.318642
395.679351	2520.072808
396.062410	2521.275123
396.445408	2521.254958
396.828343	2520.861748
397.211217	2521.209588
397.594028	2518.857890
397.976778	2523.473066
398.359466	2522.424506
398.742092	2521.479290
399.124656	2523.969620
399.507158	2522.280833
399.889598	2523.581451
400.271977	2525.832326
400.654294	2525.628159
401.036549	2522.815195
401.418742	2524.866945
401.800874	2523.276461
402.182944	2523.349558
402.564952	2525.822244
402.946898	2525.822244
403.328783	2524.869466
403.710606	2524.377953
404.092367	2524.292253
404.474067	2527.301822
404.855705	2525.860052
405.237282	2525.222346
405.618797	2524.423323
406.000250	2526.427182
406.381642	2524.700587
406.762972	2524.337624
407.144240	2522.825278
407.525447	2522.711852
407.906593	2520.549197
408.287677	2526.646472
408.668700	2526.865763
409.049661	2529.015815
409.430560	2526.439785
409.811399	2527.657224
410.192176	2527.334590
410.572891	2529.015815
410.953545	2529.048582
411.334138	2531.571680
411.714669	2528.695701
412.095139	2527.561442
412.475547	2526.729651
412.855894	2529.769467
413.236180	2529.035979
413.616405	2528.907430
413.996568	2530.054292
414.376670	2526.548170
414.756711	2527.742923
415.136691	2531.032276
415.516609	2531.609488
415.896466	2527.868952
416.276262	2530.520599
416.655997	2529.661082
417.035670	2531.072605
417.415283	2529.371216
417.794834	2527.226205
418.174324	2531.037317
418.553753	2530.429858
418.933121	2531.803573
419.312428	2530.175280
419.691674	2531.861546
420.070859	2531.286854
420.449983	2527.740403
420.829045	2528.292409
421.208047	2531.062523
421.586988	2531.669982
421.965867	2533.996475
422.344686	2531.851464
422.723444	2531.906916
423.102141	2531.138140
423.480777	2532.191742
423.859352	2532.095960
424.237866	2531.637215
424.616319	2531.574200
424.994712	2531.564118
425.373044	2532.496731
425.751314	2529.398942
426.129524	2529.282996
426.507673	2528.899868
426.885762	2529.393901
427.263789	2532.746268
427.641756	2532.963038
428.019662	2530.976823
428.397508	2536.272556
428.775292	2532.358100
429.153016	2533.507483
429.530679	2536.736342
429.908282	2536.070909
430.285824	2535.723070
430.663305	2532.330373
431.040726	2534.893800
431.418086	2535.186187
431.795385	2533.767102
432.172624	2535.768440
432.549802	2533.522606
432.926920	2533.333563
433.303977	2533.570497
433.680974	2536.181815
434.057910	2536.711136
434.434786	2533.847761
434.811601	2535.445806
435.188355	2537.752134
435.565050	2536.264994
435.941683	2537.192566
436.318257	2533.527647
436.694770	2539.670293
437.071222	2536.411187
437.447614	2536.648122
437.823946	2534.656866
438.200218	2538.304141
438.576429	2535.536547
438.952580	2536.118800
439.328670	2536.741383
439.704700	2535.677699
440.080670	2536.133924
440.456580	2537.013605
440.832429	2535.584438
441.208218	2538.125180
441.583947	2537.429500
441.959616	2537.149716
442.335224	2539.531662
442.710773	2536.577545
443.086261	2538.876312
443.461689	2535.042514
443.837057	2538.934285
444.212365	2536.136444
444.587612	2537.540406
444.962800	2531.417924
445.337927	2536.753986
445.712995	2533.961187
446.088002	2535.198790
446.462949	2540.118956
446.837837	2540.723894
447.212664	2538.906558
447.587431	2539.274563
447.962139	2537.691640
448.336786	2538.074768
448.711374	2537.177443
449.085901	2540.189532
449.460369	2539.330015
449.834776	2539.987886
450.209124	2539.992927
450.583412	2539.481250
450.957640	2538.886394
451.331808	2538.919161
451.705917	2539.755993
452.079965	2539.120808
452.453954	2541.596014
452.827883	2540.865047
453.201752	2539.592155
453.575562	2540.633154
453.949311	2537.646270
454.323001	2541.255736
454.696632	2538.898997
455.070202	2541.107022
455.443713	2539.468647
455.817164	2540.461754
456.190556	2539.246836
456.563888	2541.880839
456.937160	2544.623227
457.310373	2542.175747
457.683526	2543.161292
458.056619	2540.250026
458.429653	2541.260777
458.802628	2541.175078
459.175542	2539.433359
459.548398	2540.267670
459.921194	2542.180788
460.293930	2542.160623
460.666607	2540.655839
461.039224	2541.275901
461.411782	2541.107022
461.784280	2540.207176
462.156719	2541.222969
462.529099	2542.510983
462.901419	2542.132897
463.273680	2538.107536
463.645882	2539.544264
464.018024	2540.353370
464.390106	2537.459747
464.762130	2541.701878
465.134094	2539.932433
465.505999	2541.018802
465.877845	2542.470654
466.249631	2544.116591
466.621358	2540.517207
466.993026	2543.025181
467.364634	2547.642878
467.736184	2543.181457
468.107674	2542.347146
468.479105	2542.450490
468.850477	2542.329502
469.221790	2544.429142
469.593043	2546.952240
469.964238	2544.214893
470.335373	2543.909904
470.706449	2541.535520
471.077467	2542.964687
471.448425	2543.614996
471.819324	2541.086858
472.190164	2543.564585
472.560945	2543.209183
472.931667	2544.855120
473.302330	2543.173895
473.672934	2543.579708
474.043479	2544.353525
474.413965	2543.680531
474.784393	2543.990562
475.154761	2543.705737
475.525070	2543.693134
475.895321	2542.871426
476.265513	2543.652805
476.635645	2547.184133
477.005719	2543.680531
477.375734	2543.907383
477.745691	2544.683721
478.115588	2543.695655
478.485427	2543.317568
478.855207	2542.342105
479.224928	2543.166333
479.594591	2545.336550
479.964194	2545.041643
480.333739	2545.560882
480.703226	2543.027702
481.072653	2545.150028
481.442022	2542.800850
481.811333	2545.417209
482.180584	2539.907228
482.549777	2545.008875
482.918912	2540.426466
483.287988	2544.126673
483.657005	2545.397044
484.025964	2547.753783
484.394864	2544.000644
484.763706	2547.025337
485.132489	2545.442414
485.501213	2545.578526
485.869879	2541.089378
486.238487	2545.071890
486.607036	2545.596170
486.975527	2545.689431
487.343959	2547.017775
487.712333	2544.923176
488.080648	2547.726057
488.448905	2545.485264
488.817104	2542.783206
489.185244	2547.625234
489.553326	2544.620706
489.921350	2547.708413
490.289315	2546.624565
490.657222	2548.010882
491.025070	2545.485264
491.392861	2548.852755
491.760593	2546.760676
492.128267	2546.571633
492.495883	2547.123639
492.863440	2544.567774
493.230939	2545.649102
493.598380	2548.066335
493.965763	2544.600542
494.333088	2549.077086
494.700354	2547.116077
495.067563	2548.431819
495.434713	2544.275387
495.801805	2550.649926
496.168839	2550.949875
496.535815	2545.913762
496.902733	2546.823691
497.269593	2548.187323
497.636395	2546.813608
498.003139	2549.487940
498.369825	2548.537683
498.736453	2549.072045
499.103023	2548.489792
499.469535	2547.899977
499.835989	2546.342260
500.202385	2542.165664
500.568723	2544.940820
500.935003	2546.523742
501.301226	2543.065510
501.667390	2549.094730
502.033497	2547.993238
502.399546	2547.113557
502.765537	2547.337888
503.131470	2547.133722
503.497345	2543.728422
503.863163	2547.456355
504.228923	2547.821839
504.594625	2548.252858
504.960269	2548.535162
505.325856	2549.326623
505.691385	2549.006510
506.056856	2548.764535
506.422270	2550.075235
506.787625	2549.558517
507.152924	2545.878474
507.518164	2549.132539
507.883347	2550.024823
508.248472	2548.184802
508.613540	2548.888043
508.978550	2550.712941
509.343503	2549.354350
509.708398	2547.683207
510.073236	2550.095399
510.438016	2549.724875
510.802738	2550.201264
511.167403	2548.537683
511.532010	2550.997766
511.896561	2551.209494
512.261053	2549.228321
512.625488	2548.532642
512.989866	2547.224462
513.354186	2549.787889
513.718449	2549.298897
514.082655	2548.149514
514.446803	2550.397869
514.810894	2547.121119
515.174927	2547.983156
515.538904	2547.748742
515.902822	2550.654967
516.266684	2547.796633
516.630488	2550.332334
516.994235	2549.354350
517.357925	2550.329813
517.721558	2549.840821
518.085133	2551.249824
518.448651	2548.396531
518.812112	2544.877805
519.175516	2546.150697
519.538863	2545.109698
519.902152	2551.418702
520.265385	2550.102961
520.628560	2550.667570
520.991678	2547.836963
521.354739	2550.642365
521.717743	2548.182282
522.080690	2548.739329
522.443580	2547.416026
522.806413	2550.289484
523.169189	2550.203784
523.531908	2549.661860
523.894569	2551.902653
524.257174	2551.842159
524.619722	2551.083466
524.982213	2551.338044
525.344647	2548.099103
525.707025	2551.164124
526.069345	2550.057591
526.431608	2549.510626
526.793815	2551.264947
527.155964	2553.084804
527.518057	2548.333516
527.880093	2549.591284
528.242072	2550.274360
528.603995	2551.380894
528.965860	2551.748898
529.327669	2549.684545
529.689421	2550.496171
530.051117	2548.898125
530.412755	2550.546583
530.774337	2549.044319
531.135862	2551.143959
531.497331	2549.858465
531.858743	2554.398024
532.220098	2550.002138
532.581396	2548.520039
532.942638	2552.865513
533.303824	2551.975750
533.664953	2550.818805
534.026025	2547.501726
534.387040	2550.929710
534.747999	2552.784855
535.108902	2551.390976
535.469748	2552.333672
535.830537	2552.361398
536.191270	2552.525236
536.551947	2550.075235
536.912567	2545.853268
537.273131	2551.716130
537.633638	2547.312683
537.994089	2546.712785
538.354483	2551.363250
538.714821	2553.218394
539.075103	2554.037582
539.435328	2552.409289
539.795497	2553.046995
540.155609	2552.928528
540.515665	2554.420709
540.875665	2554.640000
541.235609	2553.094886
541.595496	2554.821481
541.955328	2552.941131
542.315102	2556.119578
542.674821	2555.426420
543.034483	2554.390462
543.394090	2555.212171
543.753640	2557.881462
544.113134	2553.999773
544.472571	2559.595454
544.831953	2558.672923
545.191278	2557.642007
545.550548	2558.209137
545.909761	2557.828529
546.268918	2556.706873
546.628019	2559.819785
546.987064	2559.237532
547.346053	2562.047975
547.704986	2556.222922
548.063863	2560.250804
548.422684	2558.693087
548.781449	2559.902964
549.140158	2559.832388
549.498811	2560.979251
549.857408	2563.164591
550.215949	2561.369940
550.574434	2560.482697
550.932864	2563.489745
551.291237	2562.221895
551.649555	2563.693912
552.007817	2563.898079
552.366022	2562.063099
552.724173	2563.477142
553.082267	2562.456309
553.440305	2562.947821
553.798288	2561.589230
554.156215	2564.528223
554.514086	2563.454457
554.871902	2563.338511
555.229661	2561.614436
555.587365	2562.269786
555.945014	2564.621484
556.302606	2568.808163
556.660143	2565.055023
557.017625	2565.039900
557.375050	2566.353121
557.732421	2565.614592
558.089735	2566.990827
558.446994	2565.833882
558.804197	2566.892524
559.161345	2567.142061
559.518437	2565.549057
559.875474	2566.506876
560.232455	2566.595096
560.589381	2565.044941
560.946251	2567.555436
561.303065	2567.784808
561.659825	2568.445199
562.016528	2564.757595
562.373177	2567.628532
562.729770	2568.069633
563.086307	2568.800601
563.442789	2568.951835
563.799216	2569.876887
564.155587	2567.026115
564.511904	2570.355797
564.868164	2567.187432
565.224370	2567.747000
565.580520	2568.241033
565.936615	2571.159861
566.292654	2567.031156
566.648638	2569.841599
567.004567	2566.194324
567.360441	2567.638615
567.716260	2569.675241
568.072023	2569.085426
568.427732	2569.667679
568.783385	2570.000395
569.138982	2566.658110
569.494525	2568.561146
569.850013	2567.131979
570.205445	2568.029304
570.560823	2566.307750
570.916145	2566.557287
571.271412	2567.220199
571.626625	2569.387895
571.981782	2567.807493
572.336884	2563.908161
572.691931	2565.808676
573.046923	2566.274983
573.401860	2561.286761
573.756743	2567.510065
574.111570	2564.767678
574.466342	2568.183059
574.821059	2566.340518
575.175722	2566.958059
575.530330	2565.634756
575.884882	2563.706515
576.239380	2567.114335
576.593823	2568.747669
576.948211	2565.511248
577.302544	2563.731721
577.656823	2565.014694
578.011047	2565.730538
578.365216	2566.411094
578.719330	2566.194324
579.073389	2565.370096
579.427394	2565.559139
579.781344	2564.258521
580.135239	2565.216340
580.489080	2561.904302
580.842866	2562.242060
581.196597	2571.623647
581.550273	2564.780281
581.903895	2562.685681
582.257463	2564.702143
582.610975	2562.403377
582.964434	2565.042421
583.317837	2564.109807
583.671186	2565.133161
584.024481	2565.362534
584.377721	2562.073181
584.730906	2563.164591
585.084037	2563.104097
585.437113	2564.039231
585.790135	2562.375650
586.143103	2561.538819
586.496016	2564.923953
586.848874	2565.385219
587.201679	2564.969324
587.554428	2561.012018
587.907124	2562.985630
588.259765	2560.023952
588.612352	2560.770043
588.964884	2562.045455
589.317362	2563.358675
589.669786	2560.437327
590.022155	2559.151832
590.374470	2557.631924
590.726731	2560.333983
591.078937	2554.415668
591.431090	2562.073181
591.783188	2560.908674
592.135232	2562.342883
592.487222	2560.570917
592.839157	2561.657286
593.191038	2560.775084
593.542866	2561.574107
593.894639	2560.283571
594.246358	2560.056719
594.598022	2559.933211
594.949633	2559.295505
595.301190	2560.835578
595.652692	2559.469425
596.004141	2560.704508
596.355535	2560.931360
596.706876	2559.587892
597.058162	2558.952707
597.409395	2559.358520
597.760573	2559.328273
598.111698	2560.800290
598.462768	2559.391287
598.813785	2560.460012
599.164748	2558.869528
599.515657	2558.244425
599.866511	2558.751061
600.217312	2557.836091
600.568060	2558.251986
600.918753	2560.361709
601.269392	2559.116544
601.619978	2556.850546
601.970510	2561.170814
602.320988	2556.114537
602.671412	2558.496482
603.021783	2558.614949
603.372100	2558.289795
603.722363	2558.761143
604.072572	2560.608726
604.422728	2557.561348
604.772830	2559.083777
605.122878	2560.069322
605.472872	2559.628221
605.822813	2557.889023
606.172701	2558.216698
606.522534	2558.791390
606.872314	2562.237018
607.222041	2560.394477
607.571714	2557.841132
607.921333	2555.865000
608.270899	2557.440361
608.620411	2555.837274
608.969870	2561.017059
609.319276	2562.363047
609.668627	2569.755899
610.017926	2571.822772
610.367171	2575.094481
610.716362	2574.754203
611.065500	2569.927299
611.414585	2566.363203
611.763616	2567.164746
612.112594	2564.054354
612.461518	2564.560990
612.810389	2562.277348
613.159207	2563.068809
613.507971	2563.557801
613.856682	2563.373799
614.205340	2562.610064
614.553945	2562.794066
614.902496	2561.395146
615.250994	2562.723490
615.599439	2561.753068
615.947830	2561.979920
616.296169	2563.071329
616.644454	2560.094528
616.992686	2556.401883
617.340864	2559.570248
617.688990	2563.071329
618.037063	2563.681309
618.385082	2560.248283
618.733048	2560.260886
619.080961	2562.605023
619.428821	2561.705177
619.776628	2560.553273
620.124382	2563.847667
620.472083	2561.926988
620.819731	2563.272976
621.167326	2562.398335
621.514868	2564.986968
621.862357	2562.126113
622.209793	2561.357337
622.557176	2563.036041
622.904506	2560.132337
623.251783	2563.116700
623.599007	2563.855229
623.946179	2564.041752
624.293297	2562.761298
624.640363	2564.024107
624.987376	2561.609395
625.334336	2558.418344
625.681243	2559.045968
626.028097	2559.668551
626.374899	2563.706515
626.721647	2561.301884
627.068343	2561.692574
627.414987	2561.319528
627.761577	2561.604354
628.108115	2564.172822
628.454600	2561.463201
628.801032	2562.693243
629.147412	2563.270455
629.493739	2563.777091
629.840014	2563.903120
630.186236	2563.174673
630.532405	2564.941598
630.878521	2564.954200
631.224585	2563.010836
631.570597	2563.162070
631.916556	2562.294992
632.262462	2563.197358
632.608316	2563.061247
632.954117	2562.516803
633.299866	2561.911864
633.645562	2562.761298
633.991206	2564.959242
634.336797	2562.910012
634.682336	2565.254149
635.027823	2562.531926
635.373257	2564.182904
635.718639	2565.982596
636.063968	2562.526885
636.409245	2562.852039
636.754470	2562.902451
637.099642	2562.630228
637.444762	2563.426731
637.789829	2562.907492
638.134845	2562.564693
638.479808	2564.669375
638.824719	2564.992009
639.169577	2564.278686
639.514383	2562.955383
639.859137	2564.213151
640.203839	2564.480332
640.548489	2563.739282
640.893086	2566.784139
641.237632	2563.162070
641.582125	2564.593758
641.926566	2564.702143
642.270955	2563.036041
642.615292	2561.861452
642.959576	2561.700136
643.303809	2559.804662
643.647990	2566.043090
643.992118	2565.004612
644.336195	2564.646690
