Dividing Wavelength (nm)	Counts (n)	Blue Motor Position (mm): 34.200000	Red Motor Position (mm): 0.000000	
326.493990	2224.837633
326.888308	2224.837633
327.282561	2224.837633
327.676750	2186.159380
328.070874	2185.872034
328.464933	2184.674760
328.858929	2189.967972
329.252859	2193.572397
329.646726	2202.490198
330.040528	2214.853628
330.434265	2226.970041
330.827938	2244.266240
331.221547	2260.486152
331.615091	2278.926693
332.008571	2300.948973
332.401986	2315.981694
332.795338	2334.757472
333.188625	2354.465863
333.581847	2370.824407
333.975006	2392.428272
334.368100	2414.503484
334.761129	2430.365475
335.154095	2448.627055
335.546996	2472.290231
335.939833	2512.737929
336.332606	2527.153108
336.725315	2540.895294
337.117960	2553.634289
337.510540	2564.729869
337.903056	2576.964749
338.295508	2583.102354
338.687896	2592.582244
339.080220	2597.066350
339.472480	2607.304934
339.864676	2614.412961
340.256807	2617.929166
340.648875	2622.287243
341.040879	2624.593571
341.432818	2626.209261
341.824694	2629.269241
342.216506	2628.301340
342.608253	2631.517596
342.999937	2630.768984
343.391557	2632.581279
343.783113	2629.990126
344.174605	2630.726135
344.566033	2629.949797
344.957397	2628.255969
345.348697	2626.249590
345.739934	2627.865280
346.131106	2624.142388
346.522215	2622.186420
346.913260	2620.016203
347.304241	2618.324896
347.695159	2614.339864
348.086012	2616.298352
348.476802	2613.669391
348.867528	2609.883484
349.258191	2604.617999
349.648789	2604.998606
350.039324	2604.005499
350.429796	2606.397526
350.820203	2604.590272
351.210548	2602.173039
351.600828	2602.634305
351.991045	2601.840323
352.381198	2597.948552
352.771288	2601.258070
353.161314	2596.592482
353.551276	2596.849581
353.941175	2598.714808
354.331010	2595.813624
354.720782	2600.620364
355.110490	2598.180445
355.500135	2598.427462
355.889717	2598.175404
356.279235	2596.766402
356.668689	2598.520723
357.058080	2598.631629
357.447408	2597.278079
357.836672	2598.084663
358.225873	2598.019128
358.615010	2599.667586
359.004084	2600.045672
359.393095	2601.033738
359.782043	2602.886362
360.170927	2600.874942
360.559748	2604.146651
360.948505	2604.663369
361.337199	2602.092381
361.725830	2605.923658
362.114398	2602.833430
362.502903	2605.729573
362.891344	2602.629264
363.279722	2605.222937
363.668037	2605.233020
364.056289	2604.474326
364.444478	2605.500201
364.832603	2608.688731
365.220665	2608.381220
365.608665	2608.613113
365.996601	2608.093874
366.384474	2611.073196
366.772284	2609.011364
367.160031	2609.195367
367.547715	2613.313989
367.935336	2609.281066
368.322893	2607.826693
368.710388	2606.420211
369.097820	2608.769389
369.485189	2607.887187
369.872495	2613.881119
370.259738	2613.966819
370.646918	2613.661829
371.034035	2614.385234
371.421090	2613.840790
371.808081	2616.197529
372.195010	2615.811881
372.581875	2615.295163
372.968678	2613.258537
373.355418	2614.924638
373.742096	2616.061418
374.128710	2613.855913
374.515262	2618.037550
374.901751	2617.583847
375.288177	2618.884464
375.674540	2619.179372
376.060841	2616.235338
376.447079	2619.360853
376.833254	2617.651902
377.219367	2616.200050
377.605417	2619.532253
377.991404	2621.475617
378.377329	2617.457818
378.763191	2620.734568
379.148991	2621.069804
379.534727	2620.522839
379.920402	2621.697428
380.306013	2621.727675
380.691563	2621.057202
381.077049	2621.195833
381.462474	2624.187758
381.847835	2624.459980
382.233134	2625.569034
382.618371	2624.946452
383.003545	2626.267234
383.388657	2627.756895
383.773706	2625.591719
384.158693	2625.037192
384.543618	2627.265382
384.928480	2625.163221
385.313280	2630.554735
385.698017	2626.849487
386.082692	2629.470887
386.467305	2627.991309
386.851856	2628.989457
387.236344	2630.900054
387.620770	2626.947790
388.005133	2629.007101
388.389435	2628.538274
388.773674	2627.593057
389.157851	2633.231588
389.541965	2633.506331
389.926018	2631.487349
390.310008	2630.978192
390.693936	2636.657052
391.077802	2635.558081
391.461606	2634.731331
391.845348	2636.089922
392.229027	2636.901548
392.612645	2639.064203
392.996200	2636.520941
393.379694	2638.963380
393.763125	2638.814666
394.146494	2641.315078
394.529801	2641.466313
394.913047	2640.851292
395.296230	2642.298103
395.679351	2645.857158
396.062410	2643.616365
396.445408	2642.761889
396.828343	2644.758186
397.211217	2645.738691
397.594028	2644.785913
397.976778	2649.728764
398.359466	2646.915800
398.742092	2647.896305
399.124656	2648.526449
399.507158	2647.339257
399.889598	2651.493168
400.271977	2650.303456
400.654294	2652.637510
401.036549	2651.841007
401.418742	2651.568785
401.800874	2652.685401
402.182944	2653.791934
402.564952	2658.487769
402.946898	2656.483910
403.328783	2656.002480
403.710606	2657.716472
404.092367	2660.030362
404.474067	2661.646052
404.855705	2662.702173
405.237282	2663.680157
405.618797	2668.625529
406.000250	2672.298010
406.381642	2679.383352
406.762972	2682.687828
407.144240	2686.274609
407.525447	2697.342462
407.906593	2705.703216
408.287677	2719.563868
408.668700	2735.211610
409.049661	2756.689446
409.430560	2774.958587
409.811399	2793.353758
410.192176	2833.856908
410.572891	2865.401928
410.953545	2914.394382
411.334138	2927.576999
411.714669	2988.590084
412.095139	3013.692510
412.475547	3088.309149
412.855894	3152.094868
413.236180	3239.536202
413.616405	3261.616456
413.996568	3356.619521
414.376670	3432.574586
414.756711	3485.922597
415.136691	3577.215372
415.516609	3696.231973
415.896466	3778.836320
416.276262	3903.831730
416.655997	3990.151407
417.035670	4133.070639
417.415283	4334.086649
417.794834	4446.320377
418.174324	4504.853215
418.553753	4577.062703
418.933121	4799.319614
419.312428	4936.033186
419.691674	4948.401657
420.070859	5261.248103
420.449983	5234.837498
420.829045	5505.398745
421.208047	5508.851935
421.586988	5775.443274
421.965867	5893.534824
422.344686	6061.604372
422.723444	6197.607141
423.102141	5922.811325
423.480777	6475.508309
423.859352	6284.619977
424.237866	6789.695702
424.616319	6802.986704
424.994712	7174.756677
425.373044	6988.634756
425.751314	7412.736947
426.129524	7414.448418
426.507673	7617.680015
426.885762	7822.900347
427.263789	7840.836772
427.641756	7860.978703
428.019662	8038.873460
428.397508	8310.354718
428.775292	8134.078171
429.153016	8535.162453
429.530679	8466.519582
429.908282	8577.278773
430.285824	8383.411120
430.663305	9046.280001
431.040726	8622.296277
431.418086	8666.587855
431.795385	9005.159309
432.172624	9129.285119
432.549802	9106.423487
432.926920	9227.993432
433.303977	9148.963263
433.680974	9381.728460
434.057910	9494.405810
434.434786	9584.720602
434.811601	9482.400302
435.188355	10047.276714
435.565050	9808.888111
435.941683	9764.752809
436.318257	10274.597465
436.694770	10397.949458
437.071222	10496.897226
437.447614	10369.005673
437.823946	10261.213201
438.200218	10434.767525
438.576429	10253.104505
438.952580	10492.221556
439.328670	10570.306508
439.704700	10356.198622
440.080670	10357.862203
440.456580	10932.105078
440.832429	10673.700573
441.208218	10291.016503
441.583947	10629.008224
441.959616	10767.967630
442.335224	10571.876827
442.710773	10729.980015
443.086261	10928.556106
443.461689	10228.039888
443.837057	10859.525066
444.212365	11155.329891
444.587612	10794.239603
444.962800	11043.567511
445.337927	10812.062602
445.712995	10380.938084
446.088002	11474.729837
446.462949	11123.197577
446.837837	11092.958215
447.212664	11108.396749
447.587431	11599.752973
447.962139	12298.557719
448.336786	14543.232292
448.711374	15121.732423
449.085901	12993.468174
449.460369	12596.033687
449.834776	12045.254862
450.209124	12905.492478
450.583412	13305.876040
450.957640	14262.666875
451.331808	13435.418570
451.705917	12406.491344
452.079965	11729.426574
452.453954	12619.780043
452.827883	12248.302457
453.201752	12539.189637
453.575562	12055.067468
453.949311	12472.966519
454.323001	12425.010022
454.696632	12646.974547
455.070202	12935.900718
455.443713	13178.123119
455.817164	13633.891318
456.190556	13647.383966
456.563888	14002.465199
456.937160	14186.207695
457.310373	13514.146270
457.683526	13592.763064
458.056619	13151.384839
458.429653	13289.124286
458.802628	12733.921848
459.175542	13090.853184
459.548398	14044.866344
459.921194	14364.357031
460.293930	14432.490745
460.666607	15325.400079
461.039224	16350.178436
461.411782	17054.805715
461.784280	16952.883666
462.156719	16986.697206
462.529099	16678.745720
462.901419	15604.856443
463.273680	15389.684873
463.645882	15253.447690
464.018024	14992.925901
464.390106	15212.417739
464.762130	15933.819457
465.134094	16687.350970
465.505999	18673.336213
465.877845	21918.299217
466.249631	24758.568473
466.621358	24467.703978
466.993026	23026.216283
467.364634	22462.537145
467.736184	20997.224957
468.107674	20202.524862
468.479105	20330.867597
468.850477	19802.111053
469.221790	19374.434684
469.593043	18697.410243
469.964238	18150.591244
470.335373	17810.489800
470.706449	18239.121467
471.077467	17780.605840
471.448425	19608.631568
471.819324	23607.277319
472.190164	25676.890263
472.560945	22146.550060
472.931667	19766.039076
473.302330	19126.367065
473.672934	18637.614597
474.043479	18974.570361
474.413965	18784.289488
474.784393	18408.826870
475.154761	19092.258618
475.525070	19093.271890
475.895321	18756.129603
476.265513	19336.590742
476.635645	19914.985008
477.005719	19705.827535
477.375734	19899.032277
477.745691	20373.538444
478.115588	20891.103627
478.485427	21406.748131
478.855207	22455.277884
479.224928	24226.237750
479.594591	26448.199405
479.964194	26493.635324
480.333739	26694.696704
480.703226	26270.128207
481.072653	25932.658245
481.442022	26500.607240
481.811333	27406.147185
482.180584	27338.406680
482.549777	26394.221250
482.918912	26039.994493
483.287988	26159.593347
483.657005	25836.523441
484.025964	25564.207872
484.394864	25492.593241
484.763706	25185.413052
485.132489	24621.645693
485.501213	24788.381857
485.869879	24708.046029
486.238487	24511.017572
486.607036	24663.146992
486.975527	24359.092319
487.343959	24688.357803
487.712333	24627.064934
488.080648	24290.305775
488.448905	24776.628407
488.817104	24520.593244
489.185244	25201.572470
489.553326	25167.890001
489.921350	26154.872307
490.289315	28425.617207
490.657222	30210.427644
491.025070	30704.750587
491.392861	30486.922329
491.760593	29652.697067
492.128267	28762.522559
492.495883	27717.191418
492.863440	26844.819745
493.230939	25960.442564
493.598380	25815.690873
493.965763	25410.777834
494.333088	24960.648166
494.700354	24895.725666
495.067563	24767.153558
495.434713	24518.637276
495.801805	24688.282186
496.168839	24483.865918
496.535815	24309.058867
496.902733	24531.986252
497.269593	24199.723802
497.636395	24396.701847
498.003139	24354.426731
498.369825	24105.930614
498.736453	24311.178672
499.103023	24186.266442
499.469535	24202.108267
499.835989	24410.469238
500.202385	24427.941877
500.568723	23933.462658
500.935003	24189.462533
501.301226	23798.571464
501.667390	24633.288238
502.033497	24872.806060
502.399546	24598.312713
502.765537	24169.378576
503.131470	24556.085488
503.497345	24675.649054
503.863163	23902.273040
504.228923	24503.299566
504.594625	24711.552152
504.960269	24249.467387
505.325856	24732.830862
505.691385	24132.126970
506.056856	24742.371246
506.422270	24704.373549
506.787625	24277.002170
507.152924	24689.754203
507.518164	24714.032399
507.883347	24526.675396
508.248472	24213.395411
508.613540	25006.555434
508.978550	24792.281189
509.343503	24781.140239
509.708398	25031.952767
510.073236	25189.733320
510.438016	25404.413377
510.802738	25074.172430
511.167403	25324.473280
511.532010	25041.820825
511.896561	25810.662322
512.261053	25766.340497
512.625488	25610.634378
512.989866	25516.798341
513.354186	25355.186510
513.718449	25448.586488
514.082655	25845.022827
514.446803	25568.470168
514.810894	26036.911827
515.174927	25518.398907
515.538904	25541.515118
515.902822	26039.253443
516.266684	25803.110673
516.630488	25706.391096
516.994235	25674.745253
517.357925	25981.688507
517.721558	26167.419738
518.085133	26255.546669
518.448651	26161.244325
518.812112	25909.519349
519.175516	26102.025891
519.538863	26261.706959
519.902152	26044.271912
520.265385	26334.302095
520.628560	26121.968695
520.991678	26126.162935
521.354739	26196.514758
521.717743	26268.716684
522.080690	26067.806538
522.443580	26390.145477
522.806413	26389.233028
523.169189	26478.390875
523.531908	26520.809664
523.894569	26129.154860
524.257174	26209.223507
524.619722	26385.747070
524.982213	26088.694559
525.344647	26141.765307
525.707025	26266.261642
526.069345	26255.201350
526.431608	26212.623765
526.793815	26410.438642
527.155964	25858.853232
527.518057	26047.901543
527.880093	25959.076412
528.242072	26186.117378
528.603995	25894.887400
528.965860	25698.801639
529.327669	25736.630457
529.689421	25737.212710
530.051117	25572.185498
530.412755	25747.375677
530.774337	25543.932351
531.135862	25411.581898
531.497331	25619.902540
531.858743	25170.990310
532.220098	25658.928632
532.581396	25326.293137
532.942638	25258.857622
533.303824	25354.279103
533.664953	25389.438630
534.026025	25035.370669
534.387040	25278.074500
534.747999	25341.295611
535.108902	25491.383364
535.469748	24989.677651
535.830537	25175.716392
536.191270	25299.622913
536.551947	25157.308619
536.912567	24797.566839
537.273131	25166.939743
537.633638	24873.912594
537.994089	25078.911115
538.354483	24607.643889
538.714821	25113.564006
539.075103	25156.050851
539.435328	24946.459839
539.795497	24501.386448
540.155609	24894.485542
540.515665	25195.245822
540.875665	24423.871146
541.235609	24727.799791
541.595496	24697.041190
541.955328	25036.353694
542.315102	24970.143179
542.674821	24508.244938
543.034483	24390.685230
543.394090	24549.741196
543.753640	24346.784342
544.113134	24982.446115
544.472571	24566.382044
544.831953	24880.244283
545.191278	24493.706250
545.550548	24406.955554
545.909761	24604.830925
546.268918	24840.668705
546.628019	24811.919004
546.987064	24508.381049
547.346053	24255.632718
547.704986	24379.619897
548.063863	24544.742892
548.422684	24543.654002
548.781449	24070.307300
549.140158	24493.277752
549.498811	24065.069541
549.857408	23806.211332
550.215949	24229.932916
550.574434	23906.255551
550.932864	24124.761844
551.291237	24283.560711
551.649555	24132.464727
552.007817	24205.896695
552.366022	24064.220107
552.724173	24110.392035
553.082267	24052.489342
553.440305	24520.363872
553.798288	23790.727428
554.156215	24289.781495
554.514086	24392.689089
554.871902	23770.217494
555.229661	24051.833992
555.587365	23903.462752
555.945014	23777.030613
556.302606	24013.732951
556.660143	23978.013856
557.017625	24229.222113
557.375050	23748.611109
557.732421	24137.941941
558.089735	23961.395692
558.446994	24019.154712
558.804197	24037.068452
559.161345	23977.497137
559.518437	23748.081788
559.875474	23943.849956
560.232455	24132.613441
560.589381	23943.880203
560.946251	23934.889305
561.303065	24237.010696
561.659825	24329.566281
562.016528	23937.258647
562.373177	23664.595239
562.729770	24035.311610
563.086307	23898.708944
563.442789	24072.585902
563.799216	23893.871957
564.155587	23893.198963
564.511904	23877.165573
564.868164	23816.326408
565.224370	23788.819352
565.580520	23719.024577
565.936615	23839.964378
566.292654	23528.829404
566.648638	23812.651407
567.004567	23640.193533
567.360441	23594.576132
567.716260	23334.419826
568.072023	23650.759792
568.427732	23400.481627
568.783385	23182.136651
569.138982	23419.607765
569.494525	23461.996307
569.850013	23212.370971
570.205445	23318.555315
570.560823	23110.542184
570.916145	22874.064178
571.271412	23049.299727
571.626625	22808.670330
571.981782	22915.653697
572.336884	22725.319892
572.691931	22859.104554
573.046923	22586.962904
573.401860	22471.618784
573.756743	22489.121670
574.111570	22383.275083
574.466342	22307.062919
574.821059	22410.877921
575.175722	22112.431531
575.530330	22092.037543
575.884882	22122.413016
576.239380	22019.896111
576.593823	21923.468920
576.948211	21894.613356
577.302544	21740.094429
577.656823	21613.894183
578.011047	21707.770550
578.365216	21579.798339
578.719330	21458.442643
579.073389	21347.963236
579.427394	21494.403714
579.781344	21264.146491
580.135239	21150.468472
580.489080	21121.146601
580.842866	20893.624204
581.196597	21085.382135
581.550273	21063.435471
581.903895	20943.423242
582.257463	21258.124833
582.610975	20789.602515
582.964434	21109.607399
583.317837	20804.675565
583.671186	20889.619007
584.024481	20860.168587
584.377721	20636.696757
584.730906	20696.376457
585.084037	20720.929397
585.437113	20626.443050
585.790135	20832.868218
586.143103	20287.647265
586.496016	20309.641819
586.848874	20552.774148
587.201679	20470.883125
587.554428	20163.471043
587.907124	20485.956175
588.259765	20250.874568
588.612352	20345.554999
588.964884	19904.300282
589.317362	20074.852599
589.669786	20120.467480
590.022155	20163.266876
590.374470	20360.189469
590.726731	20153.547531
591.078937	19922.844167
591.431090	20009.710809
591.783188	19769.003275
592.135232	19744.518391
592.487222	19841.744604
592.839157	19860.883345
593.191038	19733.747965
593.542866	19619.502816
593.894639	19345.800930
594.246358	19557.932684
594.598022	19461.195462
594.949633	19216.202947
595.301190	19190.243525
595.652692	19346.584829
596.004141	19581.114430
596.355535	18912.380166
596.706876	18927.417928
597.058162	18820.366506
597.409395	19049.018121
597.760573	19115.382391
598.111698	18894.105984
598.462768	18837.007355
598.813785	18806.205905
599.164748	18613.722048
599.515657	18655.621598
599.866511	18461.421228
600.217312	18800.247261
600.568060	18326.151947
600.918753	18633.967322
601.269392	18548.736534
601.619978	18330.051280
601.970510	18525.902627
602.320988	18465.015571
602.671412	18679.914918
603.021783	18591.162884
603.372100	18309.198547
603.722363	18461.096074
604.072572	18398.805057
604.422728	18545.769815
604.772830	18291.698181
605.122878	18254.595289
605.472872	18251.371471
605.822813	18229.651660
606.172701	18200.551599
606.522534	18391.175270
606.872314	18417.336338
607.222041	18257.677955
607.571714	18475.249113
607.921333	18300.852917
608.270899	18376.881078
608.620411	18550.143016
608.969870	18329.032967
609.319276	18321.597265
609.668627	18344.045523
610.017926	18476.819433
610.367171	18608.408672
610.716362	18644.674732
611.065500	18466.447259
611.414585	18602.646633
611.763616	18584.075022
612.112594	18523.750055
612.461518	18489.344180
612.810389	18681.712090
613.159207	18540.658085
613.507971	18457.302606
613.856682	18720.266834
614.205340	18645.783786
614.553945	18810.634558
614.902496	18549.031441
615.250994	18778.219939
615.599439	18720.357575
615.947830	18705.377787
616.296169	18766.287528
616.644454	18720.198779
616.992686	18694.970324
617.340864	18901.599659
617.688990	18667.256581
618.037063	18834.184308
618.385082	18691.101239
618.733048	18972.732860
619.080961	18838.454166
619.428821	18880.446977
619.776628	18771.169885
620.124382	18689.178039
620.472083	18741.638806
620.819731	18747.904960
621.167326	18447.951265
621.514868	18481.726996
621.862357	18254.413807
622.209793	18270.258154
622.557176	18097.119725
622.904506	17918.342766
623.251783	17841.490375
623.599007	17589.231037
623.946179	17537.171041
624.293297	17481.352865
624.640363	17226.920789
624.987376	17257.379441
625.334336	17047.523768
625.681243	16892.909059
626.028097	16904.486069
626.374899	16828.326837
626.721647	16701.045264
627.068343	16534.031837
627.414987	16460.403265
627.761577	16430.231959
628.108115	16483.872357
628.454600	16199.107658
628.801032	16291.988397
629.147412	16223.385855
629.493739	16243.426962
629.840014	16045.929678
630.186236	16146.707384
630.532405	15912.883546
630.878521	16115.442148
631.224585	16016.096129
631.570597	15830.311966
631.916556	15868.042482
632.262462	15841.228585
632.608316	15755.508805
632.954117	15704.583069
633.299866	15689.129412
633.645562	15617.043432
633.991206	15364.577406
634.336797	15240.796915
634.682336	15208.717532
635.027823	15094.953813
635.373257	14961.164111
635.718639	14878.254774
636.063968	14822.229911
