Dividing Wavelength (nm)	Counts (n)	Blue Motor Position (mm): 30.400000	Red Motor Position (mm): 0.000000	
326.493990	2214.099975
326.888308	2214.099975
327.282561	2214.099975
327.676750	2175.353667
328.070874	2170.909889
328.464933	2166.733293
328.858929	2175.567916
329.252859	2180.145283
329.646726	2188.125430
330.040528	2200.362831
330.434265	2214.478062
330.827938	2232.943808
331.221547	2248.727661
331.615091	2269.013264
332.008571	2286.165790
332.401986	2303.124231
332.795338	2320.853969
333.188625	2339.791064
333.581847	2358.725638
333.975006	2381.183978
334.368100	2397.509755
334.761129	2418.203691
335.154095	2432.898655
335.546996	2457.176852
335.939833	2496.016422
336.332606	2509.723319
336.725315	2523.934332
337.117960	2539.559388
337.510540	2550.488609
337.903056	2558.194013
338.295508	2568.707339
338.687896	2579.510532
339.080220	2584.924731
339.472480	2591.861359
339.864676	2597.746906
340.256807	2602.944336
340.648875	2606.909203
341.040879	2608.648401
341.432818	2613.729884
341.824694	2615.075873
342.216506	2613.835749
342.608253	2616.759618
342.999937	2618.912191
343.391557	2616.527725
343.783113	2619.355812
344.174605	2616.464710
344.566033	2612.978752
344.957397	2614.183588
345.348697	2611.773917
345.739934	2609.903649
346.131106	2610.226282
346.522215	2606.614296
346.913260	2605.217896
347.304241	2602.016763
347.695159	2600.229674
348.086012	2600.610282
348.476802	2599.816300
348.867528	2592.148705
349.258191	2590.966554
349.648789	2589.915474
350.039324	2584.758373
350.429796	2593.139292
350.820203	2589.176945
351.210548	2587.835998
351.600828	2585.839701
351.991045	2588.183837
352.381198	2586.419433
352.771288	2582.131932
353.161314	2583.803075
353.551276	2582.920873
353.941175	2584.284505
354.331010	2581.816860
354.720782	2582.230235
355.110490	2583.296439
355.500135	2579.545820
355.889717	2581.728640
356.279235	2582.449525
356.668689	2583.611511
357.058080	2582.837694
357.447408	2583.762745
357.836672	2581.756366
358.225873	2582.058835
358.615010	2580.798547
359.004084	2581.559761
359.393095	2585.267530
359.782043	2584.077817
360.170927	2584.523960
360.559748	2587.099989
360.948505	2586.626121
361.337199	2586.573189
361.725830	2588.410689
362.114398	2586.973960
362.502903	2586.868096
362.891344	2590.931266
363.279722	2590.976637
363.668037	2590.527974
364.056289	2591.558890
364.444478	2592.753643
364.832603	2590.931266
365.220665	2591.493355
365.608665	2592.544435
365.996601	2595.838829
366.384474	2593.184662
366.772284	2593.933273
367.160031	2593.260279
367.547715	2595.312029
367.935336	2597.940991
368.322893	2593.303129
368.710388	2591.430340
369.097820	2594.200454
369.485189	2589.950762
369.872495	2595.133068
370.259738	2597.777153
370.646918	2598.709767
371.034035	2597.164653
371.421090	2599.022318
371.808081	2600.433841
372.195010	2602.848554
372.581875	2600.466609
372.968678	2599.498707
373.355418	2600.937957
373.742096	2600.388471
374.128710	2600.179263
374.515262	2601.253029
374.901751	2602.311671
375.288177	2602.251177
375.674540	2602.684716
376.060841	2604.370982
376.447079	2601.381578
376.833254	2601.212699
377.219367	2601.734459
377.605417	2602.470467
377.991404	2601.225302
378.377329	2604.010540
378.763191	2602.649428
379.148991	2602.493152
379.534727	2603.357710
379.920402	2602.304109
380.306013	2605.716970
380.691563	2606.243771
381.077049	2605.875767
381.462474	2606.062289
381.847835	2606.624378
382.233134	2606.420211
382.618371	2607.567074
383.003545	2605.638832
383.388657	2606.319388
383.773706	2608.459358
384.158693	2606.684872
384.543618	2608.880294
384.928480	2610.695110
385.313280	2609.447424
385.698017	2609.361725
386.082692	2610.087651
386.467305	2610.861468
386.851856	2611.123608
387.236344	2612.066304
387.620770	2607.448607
388.005133	2607.372989
388.389435	2609.757455
388.773674	2607.257043
389.157851	2612.963629
389.541965	2612.585542
389.926018	2612.918259
390.310008	2611.582353
390.693936	2612.179730
391.077802	2614.591922
391.461606	2613.089658
391.845348	2616.394134
392.229027	2614.170985
392.612645	2615.237189
392.996200	2614.967488
393.379694	2614.123094
393.763125	2617.931686
394.146494	2616.018568
394.529801	2616.260544
394.913047	2617.616614
395.296230	2616.709206
395.679351	2617.137704
396.062410	2618.128291
396.445408	2617.109978
396.828343	2619.963271
397.211217	2620.729527
397.594028	2619.832201
397.976778	2621.732716
398.359466	2619.887654
398.742092	2616.973867
399.124656	2621.689866
399.507158	2622.806482
399.889598	2620.326234
400.271977	2620.064094
400.654294	2623.212295
401.036549	2620.240535
401.418742	2620.835391
401.800874	2624.664147
402.182944	2623.050978
402.564952	2625.616925
402.946898	2625.901750
403.328783	2626.635238
403.710606	2627.595578
404.092367	2629.022225
404.474067	2626.095835
404.855705	2627.250259
405.237282	2626.352934
405.618797	2630.383336
406.000250	2630.993316
406.381642	2631.033645
406.762972	2629.430558
407.144240	2627.686319
407.525447	2629.039869
407.906593	2628.508027
408.287677	2635.686630
408.668700	2633.218985
409.049661	2634.383492
409.430560	2633.665127
409.811399	2637.037659
410.192176	2636.281486
410.572891	2635.023718
410.953545	2637.040180
411.334138	2638.436579
411.714669	2639.134779
412.095139	2638.174439
412.475547	2639.795170
412.855894	2639.381796
413.236180	2640.236271
413.616405	2641.441107
413.996568	2642.787095
414.376670	2642.792136
414.756711	2643.513021
415.136691	2644.246509
415.516609	2643.691982
415.896466	2644.233906
416.276262	2644.543937
416.655997	2649.539721
417.035670	2646.570481
417.415283	2649.632982
417.794834	2652.226656
418.174324	2651.664567
418.553753	2651.583909
418.933121	2652.546769
419.312428	2653.721358
419.691674	2654.623724
420.070859	2657.814775
420.449983	2658.805362
420.829045	2664.741320
421.208047	2666.094870
421.586988	2668.902793
421.965867	2676.870336
422.344686	2682.960050
422.723444	2689.188396
423.102141	2691.073787
423.480777	2706.557691
423.859352	2712.208825
424.237866	2732.375961
424.616319	2748.174937
424.994712	2774.232661
425.373044	2784.307407
425.751314	2815.118939
426.129524	2835.109635
426.507673	2871.433669
426.885762	2904.506159
427.263789	2943.401181
427.641756	2982.039105
428.019662	3028.402597
428.397508	3088.856114
428.775292	3129.092083
429.153016	3210.287428
429.530679	3260.499841
429.908282	3324.525015
430.285824	3360.297043
430.663305	3510.722553
431.040726	3515.589787
431.418086	3584.106629
431.795385	3709.422152
432.172624	3808.962256
432.549802	3878.184860
432.926920	3981.515911
433.303977	4040.366341
433.680974	4171.073378
434.057910	4288.849855
434.434786	4395.755084
434.811601	4467.152946
435.188355	4706.786714
435.565050	4739.518926
435.941683	4831.449408
436.318257	5089.700158
436.694770	5242.994084
437.071222	5389.595879
437.447614	5453.636177
437.823946	5533.742632
438.200218	5716.660900
438.576429	5756.024750
438.952580	5967.627182
439.328670	6123.877746
439.704700	6149.731303
440.080670	6261.554178
440.456580	6651.769733
440.832429	6662.774571
441.208218	6582.564773
441.583947	6869.318206
441.959616	7069.262971
442.335224	7096.815397
442.710773	7299.255532
443.086261	7550.758698
443.461689	7239.666573
443.837057	7743.169458
444.212365	8058.201244
444.587612	7951.923639
444.962800	8233.746824
445.337927	8203.051238
445.712995	8004.485229
446.088002	8886.430053
446.462949	8753.716637
446.837837	8841.599072
447.212664	8964.570459
447.587431	9430.927601
447.962139	10072.525333
448.336786	11844.551404
448.711374	12475.088845
449.085901	10945.373395
449.460369	10733.765922
449.834776	10408.810624
450.209124	11183.754437
450.583412	11601.063673
450.957640	12498.121877
451.331808	11932.597677
451.705917	11155.155972
452.079965	10638.422579
452.453954	11503.776966
452.827883	11244.820454
453.201752	11565.760473
453.575562	11194.030829
453.949311	11634.108437
454.323001	11648.200982
454.696632	11909.458780
455.070202	12207.990870
455.443713	12498.434428
455.817164	12988.938697
456.190556	13047.990774
456.563888	13432.517386
456.937160	13651.177434
457.310373	13048.439436
457.683526	13157.827434
458.056619	12762.679110
458.429653	12912.658478
458.802628	12428.115373
459.175542	12784.840022
459.548398	13749.600922
459.921194	14082.808588
460.293930	14152.003466
460.666607	15048.620568
461.039224	16063.699745
461.411782	16760.190602
461.784280	16719.453038
462.156719	16756.876043
462.529099	16486.738253
462.901419	15436.313026
463.273680	15251.952988
463.645882	15115.746053
464.018024	14862.281878
464.390106	15091.437609
464.762130	15828.479507
465.134094	16563.525108
465.505999	18505.430502
465.877845	21747.439390
466.249631	24584.638583
466.621358	24337.473331
466.993026	22904.593405
467.364634	22360.481506
467.736184	20915.333933
468.107674	20117.662078
468.479105	20244.041284
468.850477	19718.276664
469.221790	19300.501122
469.593043	18627.310478
469.964238	18071.475376
470.335373	17745.584944
470.706449	18160.378644
471.077467	17698.130042
471.448425	19497.285082
471.819324	23473.906033
472.190164	25601.066268
472.560945	22109.961366
472.931667	19707.886846
473.302330	19059.826355
473.672934	18529.605355
474.043479	18909.680628
474.413965	18727.389985
474.784393	18365.026805
475.154761	19026.300161
475.525070	19048.619870
475.895321	18691.607875
476.265513	19256.300285
476.635645	19838.349387
477.005719	19636.206680
477.375734	19843.297280
477.745691	20318.897378
478.115588	20819.620066
478.485427	21329.905822
478.855207	22372.237477
479.224928	24120.466781
479.594591	26328.736662
479.964194	26425.935149
480.333739	26631.967107
480.703226	26195.299840
481.072653	25854.520360
481.442022	26405.977221
481.811333	27308.230333
482.180584	27268.095187
482.549777	26310.394423
482.918912	25932.133965
483.287988	26062.430148
483.657005	25756.028817
484.025964	25465.716329
484.394864	25423.428610
484.763706	25112.994356
485.132489	24533.554051
485.501213	24709.497882
485.869879	24619.886331
486.238487	24419.931484
486.607036	24583.320321
486.975527	24250.916719
487.343959	24593.198462
487.712333	24550.179776
488.080648	24215.958838
488.448905	24685.993502
488.817104	24419.694550
489.185244	25098.377530
489.553326	25069.738735
489.921350	26035.094491
490.289315	28292.644171
490.657222	30109.473497
491.025070	30597.104308
491.392861	30396.652908
491.760593	29564.234900
492.128267	28661.102106
492.495883	27629.918963
492.863440	26756.171055
493.230939	25868.416301
493.598380	25723.452881
493.965763	25315.104296
494.333088	24872.433015
494.700354	24791.832527
495.067563	24674.580329
495.434713	24431.490850
495.801805	24567.775923
496.168839	24405.055039
496.535815	24226.567946
496.902733	24427.767958
497.269593	24111.410348
497.636395	24293.166629
498.003139	24270.567137
498.369825	24026.114025
498.736453	24220.916813
499.103023	24110.197951
499.469535	24123.441062
499.835989	24324.235261
500.202385	24348.901626
500.568723	23844.151056
500.935003	24118.427634
501.301226	23714.578279
501.667390	24537.198805
502.033497	24786.151146
502.399546	24514.992522
502.765537	24096.397792
503.131470	24471.439473
503.497345	24617.998419
503.863163	23830.701258
504.228923	24443.990391
504.594625	24639.244362
504.960269	24148.392253
505.325856	24657.581559
505.691385	24063.302617
506.056856	24653.815817
506.422270	24629.575428
506.787625	24220.117790
507.152924	24607.661533
507.518164	24643.627645
507.883347	24455.282575
508.248472	24150.963241
508.613540	24927.608444
508.978550	24708.119126
509.343503	24691.395098
509.708398	24973.820701
510.073236	25119.809996
510.438016	25331.636760
510.802738	25003.011502
511.167403	25253.914771
511.532010	24944.148470
511.896561	25736.327988
512.261053	25706.769182
512.625488	25540.706013
512.989866	25424.683857
513.354186	25284.202023
513.718449	25380.752722
514.082655	25775.291066
514.446803	25497.720094
514.810894	25952.132222
515.174927	25436.026453
515.538904	25471.788399
515.902822	25969.050335
516.266684	25720.128240
516.630488	25626.743386
516.994235	25603.518790
517.357925	25903.742187
517.721558	26089.922080
518.085133	26188.935383
518.448651	26090.254797
518.812112	25815.806819
519.175516	26015.156728
519.538863	26181.852562
519.902152	25968.435314
520.265385	26250.409734
520.628560	26032.818410
520.991678	26058.616515
521.354739	26120.277388
521.717743	26180.287284
522.080690	25981.869989
522.443580	26310.911142
522.806413	26307.342005
523.169189	26399.237198
523.531908	26449.744518
523.894569	26051.064867
524.257174	26121.850228
524.619722	26327.531826
524.982213	25998.180642
525.344647	26079.653250
525.707025	26199.211775
526.069345	26194.790683
526.431608	26136.245243
526.793815	26337.722518
527.155964	25778.570337
527.518057	25961.256711
527.880093	25872.660952
528.242072	26120.786545
528.603995	25818.846635
528.965860	25620.021007
529.327669	25675.403123
529.689421	25660.693036
530.051117	25499.976010
530.412755	25668.106053
530.774337	25471.133049
531.135862	25329.055689
531.497331	25544.489399
531.858743	25088.552322
532.220098	25573.629789
532.581396	25259.840647
532.942638	25191.989237
533.303824	25280.345540
533.664953	25305.974766
534.026025	24964.822242
534.387040	25213.169645
534.747999	25270.492605
535.108902	25437.301865
535.469748	24926.932929
535.830537	25111.847493
536.191270	25231.582459
536.551947	25100.598159
536.912567	24769.722026
537.273131	25099.287459
537.633638	24796.288907
537.994089	25009.829663
538.354483	24568.564864
538.714821	25058.267590
539.075103	25095.811583
539.435328	24879.800661
539.795497	24447.597336
540.155609	24851.923081
540.515665	25126.018177
540.875665	24373.714186
541.235609	24664.702188
541.595496	24636.872499
541.955328	24975.108716
542.315102	24901.573405
542.674821	24451.811741
543.034483	24326.649973
543.394090	24497.930737
543.753640	24289.161433
544.113134	24917.122844
544.472571	24525.387381
544.831953	24817.975951
545.191278	24432.688124
545.550548	24353.884807
545.909761	24552.014756
546.268918	24785.170642
546.628019	24747.588840
546.987064	24457.389778
547.346053	24210.993301
547.704986	24335.585418
548.063863	24481.161339
548.422684	24493.481919
548.781449	24035.430077
549.140158	24438.916469
549.498811	24011.960986
549.857408	23755.323405
550.215949	24188.608058
550.574434	23863.854406
550.932864	24086.728859
551.291237	24237.033381
551.649555	24106.099493
552.007817	24161.360621
552.366022	24025.093191
552.724173	24068.810077
553.082267	23995.368028
553.440305	24479.709486
553.798288	23749.899123
554.156215	24261.873667
554.514086	24358.139541
554.871902	23727.276946
555.229661	24025.761144
555.587365	23877.737744
555.945014	23727.735691
556.302606	23981.542663
556.660143	23927.599797
557.017625	24183.589589
557.375050	23713.703639
557.732421	24101.882567
558.089735	23919.589403
558.446994	23978.054185
558.804197	24007.431509
559.161345	23943.378608
559.518437	23708.670047
559.875474	23906.999121
560.232455	24083.210133
560.589381	23914.109669
560.946251	23890.564960
561.303065	24209.233938
561.659825	24300.541838
562.016528	23892.130238
562.373177	23634.096258
562.729770	24002.216435
563.086307	23862.871381
563.442789	24029.204252
563.799216	23851.443085
564.155587	23862.601679
564.511904	23844.022507
564.868164	23771.800416
565.224370	23757.937243
565.580520	23691.699002
565.936615	23809.994718
566.292654	23476.504748
566.648638	23796.277739
567.004567	23619.923054
567.360441	23576.528802
567.716260	23289.528351
568.072023	23622.045380
568.427732	23377.284757
568.783385	23164.374145
569.138982	23395.924424
569.494525	23428.528086
569.850013	23173.274303
570.205445	23272.464046
570.560823	23083.171239
570.916145	22827.499040
571.271412	23014.341845
571.626625	22768.338579
571.981782	22885.328636
572.336884	22689.275642
572.691931	22819.415549
573.046923	22558.145148
573.401860	22434.178134
573.756743	22442.856481
574.111570	22356.065455
574.466342	22281.330350
574.821059	22369.807641
575.175722	22078.265111
575.530330	22061.281464
575.884882	22092.145928
576.239380	21996.875682
576.593823	21885.012478
576.948211	21865.420034
577.302544	21716.711037
577.656823	21577.481929
578.011047	21687.212725
578.365216	21555.502498
578.719330	21433.279723
579.073389	21333.805155
579.427394	21476.477371
579.781344	21236.740258
580.135239	21135.090432
580.489080	21098.458888
580.842866	20872.249712
581.196597	21063.972354
581.550273	21034.254752
581.903895	20922.996487
582.257463	21244.934654
582.610975	20769.823548
582.964434	21076.633212
583.317837	20784.266454
583.671186	20877.767255
584.024481	20852.168275
584.377721	20624.025817
584.730906	20677.164620
585.084037	20699.081036
585.437113	20599.082188
585.790135	20806.129938
586.143103	20268.203534
586.496016	20283.203488
586.848874	20529.622649
587.201679	20463.928853
587.554428	20131.111876
587.907124	20469.345573
588.259765	20250.851883
588.612352	20305.021602
588.964884	19884.959896
589.317362	20061.150743
589.669786	20108.156982
590.022155	20155.183386
590.374470	20343.765389
590.726731	20143.712240
591.078937	19898.777698
591.431090	19996.646659
591.783188	19755.513147
592.135232	19728.119517
592.487222	19816.911880
592.839157	19838.833338
593.191038	19708.814418
593.542866	19603.658470
593.894639	19316.597526
594.246358	19547.230314
594.598022	19451.811354
594.949633	19196.882725
595.301190	19162.015584
595.652692	19330.158230
596.004141	19575.216280
596.355535	18909.640299
596.706876	18914.883099
597.058162	18804.534762
597.409395	19031.462302
597.760573	19113.310476
598.111698	18889.140447
598.462768	18825.195931
598.813785	18779.495351
599.164748	18600.955326
599.515657	18646.098858
599.866511	18439.824925
600.217312	18792.118400
600.568060	18319.744641
600.918753	18629.132855
601.269392	18538.956695
601.619978	18308.676788
601.970510	18518.633283
602.320988	18464.423236
602.671412	18677.427109
603.021783	18570.990707
603.372100	18314.612746
603.722363	18450.360937
604.072572	18386.560094
604.422728	18530.858082
604.772830	18292.824879
605.122878	18244.084483
605.472872	18232.368842
605.822813	18222.687306
606.172701	18184.639197
606.522534	18385.824085
606.872314	18410.523219
607.222041	18239.353360
607.571714	18457.395867
607.921333	18278.450029
608.270899	18352.577676
608.620411	18543.866779
608.969870	18309.294329
609.319276	18313.561666
609.668627	18346.707252
610.017926	18479.166090
610.367171	18594.174974
610.716362	18636.646695
611.065500	18456.100291
611.414585	18582.955886
611.763616	18576.183096
612.112594	18517.025155
612.461518	18476.670719
612.810389	18672.068362
613.159207	18531.122742
613.507971	18445.355071
613.856682	18724.261949
614.205340	18645.521646
614.553945	18796.337846
614.902496	18534.616262
615.250994	18773.229197
615.599439	18714.436740
615.947830	18702.287559
616.296169	18750.975023
616.644454	18718.089056
616.992686	18682.130506
617.340864	18894.985665
617.688990	18659.825920
618.037063	18825.208534
618.385082	18679.075566
618.733048	18956.449933
619.080961	18825.964707
619.428821	18874.574033
619.776628	18751.552235
620.124382	18685.936577
620.472083	18723.588955
620.819731	18747.645341
621.167326	18440.636551
621.514868	18473.431777
621.862357	18248.538343
622.209793	18254.620495
622.557176	18093.666535
622.904506	17907.842042
623.251783	17824.383220
623.599007	17586.793639
623.946179	17536.941669
624.293297	17467.590515
624.640363	17220.977269
624.987376	17245.328563
625.334336	17032.730502
625.681243	16870.785955
626.028097	16884.268521
626.374899	16813.788149
626.721647	16679.554825
627.068343	16514.535175
627.414987	16444.092612
627.761577	16416.976245
628.108115	16457.318079
628.454600	16181.675348
628.801032	16271.743123
629.147412	16216.045935
629.493739	16230.193933
629.840014	16036.381733
630.186236	16130.114427
630.532405	15896.653551
630.878521	16097.054540
631.224585	15994.986298
631.570597	15807.760364
631.916556	15845.460633
632.262462	15823.713096
632.608316	15742.109418
632.954117	15687.758218
633.299866	15678.721949
633.645562	15601.662872
633.991206	15351.306569
634.336797	15227.274020
634.682336	15192.726992
635.027823	15073.879270
635.373257	14959.745026
635.718639	14853.749725
636.063968	14804.850533
636.409245	14556.430033
636.754470	14584.942799
