Dividing Wavelength (nm)	Counts (n)	Blue Motor Position (mm): 46.200000	Red Motor Position (mm): 0.000000	
326.493990	2269.771958
326.888308	2269.771958
327.282561	2269.771958
327.676750	2230.287120
328.070874	2229.654455
328.464933	2228.079095
328.858929	2232.240567
329.252859	2237.075034
329.646726	2245.612228
330.040528	2257.554721
330.434265	2270.752462
330.827938	2291.459001
331.221547	2306.768986
331.615091	2321.027889
332.008571	2344.002948
332.401986	2362.120855
332.795338	2381.322610
333.188625	2398.263407
333.581847	2422.095462
333.975006	2443.356528
334.368100	2457.234825
334.761129	2477.822897
335.154095	2494.524240
335.546996	2519.878723
335.939833	2561.553942
336.332606	2577.005079
336.725315	2587.936821
337.117960	2601.797473
337.510540	2613.810543
337.903056	2628.608850
338.295508	2634.572535
338.687896	2639.197794
339.080220	2647.379586
339.472480	2654.583395
339.864676	2660.325269
340.256807	2664.542195
340.648875	2668.943122
341.040879	2672.381189
341.432818	2673.759944
341.824694	2677.107271
342.216506	2678.233968
342.608253	2679.537107
342.999937	2679.106088
343.391557	2678.791016
343.783113	2678.264215
344.174605	2675.489060
344.566033	2677.480316
344.957397	2675.398319
345.348697	2672.620644
345.739934	2674.145593
346.131106	2671.322547
346.522215	2670.712567
346.913260	2669.767351
347.304241	2667.934891
347.695159	2664.317863
348.086012	2664.660662
348.476802	2661.704025
348.867528	2656.050371
349.258191	2655.662202
349.648789	2653.363436
350.039324	2649.522077
350.429796	2656.559527
350.820203	2653.179434
351.210548	2651.641882
351.600828	2651.155411
351.991045	2650.313538
352.381198	2647.016623
352.771288	2651.634320
353.161314	2648.370173
353.551276	2649.698517
353.941175	2646.434370
354.331010	2648.332364
354.720782	2646.739360
355.110490	2648.160965
355.500135	2647.520739
355.889717	2648.460914
356.279235	2646.885553
356.668689	2649.448980
357.058080	2649.595173
357.447408	2646.646098
357.836672	2646.489823
358.225873	2647.661891
358.615010	2651.097437
359.004084	2648.718013
359.393095	2652.450987
359.782043	2653.620535
360.170927	2653.381080
360.559748	2652.682880
360.948505	2653.307983
361.337199	2656.355361
361.725830	2655.374856
362.114398	2655.074908
362.502903	2656.478869
362.891344	2654.457366
363.279722	2655.266472
363.668037	2657.764363
364.056289	2659.576658
364.444478	2658.903664
364.832603	2661.053716
365.220665	2659.836277
365.608665	2661.497338
365.996601	2662.412307
366.384474	2660.791576
366.772284	2662.618994
367.160031	2664.017915
367.547715	2663.307112
367.935336	2663.241577
368.322893	2660.622697
368.710388	2665.222750
369.097820	2662.964313
369.485189	2662.571103
369.872495	2666.679644
370.259738	2668.025632
370.646918	2668.784326
371.034035	2669.545540
371.421090	2667.798780
371.808081	2672.411436
372.195010	2670.319357
372.581875	2672.514779
372.968678	2677.303876
373.355418	2682.723116
373.742096	2686.272088
374.128710	2691.928263
374.515262	2700.341949
374.901751	2709.063145
375.288177	2720.330124
375.674540	2734.495766
376.060841	2749.263826
376.447079	2766.572628
376.833254	2788.471400
377.219367	2804.106539
377.605417	2832.412618
377.991404	2855.120495
378.377329	2889.811195
378.763191	2911.639392
379.148991	2954.148921
379.534727	2992.537308
379.920402	3026.774304
380.306013	3055.692883
380.691563	3114.830659
381.077049	3141.332005
381.462474	3182.543438
381.847835	3242.089547
382.233134	3287.890950
382.618371	3317.396823
383.003545	3392.394069
383.388657	3421.617638
383.773706	3486.890498
384.158693	3521.029192
384.543618	3555.286353
384.928480	3617.869757
385.313280	3680.254036
385.698017	3710.137996
386.082692	3799.227788
386.467305	3810.698933
386.851856	3848.689068
387.236344	3932.372222
387.620770	3962.614104
388.005133	4016.355325
388.389435	4066.965989
388.773674	4078.842947
389.157851	4154.334226
389.541965	4220.461562
389.926018	4190.272612
390.310008	4291.690545
390.693936	4348.627857
391.077802	4383.542889
391.461606	4377.483422
391.845348	4449.902117
392.229027	4509.670037
392.612645	4512.120038
392.996200	4615.809011
393.379694	4674.263710
393.763125	4779.729690
394.146494	4804.645593
394.529801	4862.734809
394.913047	4947.519455
395.296230	4894.909973
395.679351	5003.816540
396.062410	5055.732863
396.445408	5029.002145
396.828343	5087.703861
397.211217	5147.774250
397.594028	5025.669942
397.976778	5143.053209
398.359466	5186.449982
398.742092	5211.580134
399.124656	5133.608608
399.507158	5255.576804
399.889598	5314.346576
400.271977	5435.843425
400.654294	5435.747643
401.036549	5474.085618
401.418742	5396.774482
401.800874	5605.601760
402.182944	5660.353732
402.564952	5765.875164
402.946898	5825.131407
403.328783	5663.237272
403.710606	5684.397515
404.092367	6006.756618
404.474067	6027.692530
404.855705	5925.999854
405.237282	5861.911666
405.618797	6122.254494
406.000250	6097.341112
406.381642	6303.728471
406.762972	6324.082130
407.144240	6385.153188
407.525447	6365.059149
407.906593	6378.019955
408.287677	6547.352313
408.668700	6457.650021
409.049661	6569.893832
409.430560	6596.990034
409.811399	6458.212110
410.192176	6724.942081
410.572891	6739.853814
410.953545	6925.544716
411.334138	6658.776936
411.714669	6834.564492
412.095139	6628.595548
412.475547	6879.105606
412.855894	6947.693025
413.236180	7133.978783
413.616405	6789.983048
413.996568	7011.811461
414.376670	7061.509676
414.756711	6958.733152
415.136691	7053.970630
415.516609	7262.041735
415.896466	7237.584577
416.276262	7451.170704
416.655997	7431.603465
417.035670	7603.920186
417.415283	7949.604708
417.794834	8015.744646
418.174324	7874.920014
418.553753	7797.014022
418.933121	8093.731296
419.312428	8195.991102
419.691674	7966.505176
420.070859	8453.266389
420.449983	8135.227554
420.829045	8496.582503
421.208047	8266.065661
421.586988	8578.589473
421.965867	8601.443544
422.344686	8697.578348
422.723444	8767.506714
423.102141	8102.271011
423.480777	8863.104635
423.859352	8391.655927
424.237866	9006.737190
424.616319	8869.111169
424.994712	9303.537643
425.373044	8847.683745
425.751314	9330.490172
426.129524	9202.623826
426.507673	9292.038771
426.885762	9449.174057
427.263789	9367.013332
427.641756	9308.672058
428.019662	9387.861024
428.397508	9653.199636
428.775292	9321.181682
429.153016	9703.560763
429.530679	9538.752841
429.908282	9548.623420
430.285824	9283.506618
430.663305	9968.100352
431.040726	9416.961084
431.418086	9398.991891
431.795385	9729.910874
432.172624	9830.025669
432.549802	9732.328107
432.926920	9802.264034
433.303977	9678.907000
433.680974	9885.622034
434.057910	9983.196087
434.434786	10057.893384
434.811601	9875.501917
435.188355	10436.927660
435.565050	10184.635554
435.941683	10109.915571
436.318257	10580.149361
436.694770	10764.108627
437.071222	10803.089349
437.447614	10629.900508
437.823946	10566.104706
438.200218	10653.818263
438.576429	10500.073153
438.952580	10743.956614
439.328670	10761.656105
439.704700	10564.068080
440.080670	10557.043232
440.456580	11077.499517
440.832429	10868.873886
441.208218	10469.334717
441.583947	10764.774059
441.959616	10944.312233
442.335224	10755.634447
442.710773	10869.486386
443.086261	11094.735222
443.461689	10359.089724
443.837057	11052.752493
444.212365	11280.579879
444.587612	10916.424569
444.962800	11130.497167
445.337927	10874.630883
445.712995	10549.148785
446.088002	11588.778381
446.462949	11283.531475
446.837837	11244.094528
447.212664	11175.754126
447.587431	11765.112902
447.962139	12520.408818
448.336786	14809.707685
448.711374	15293.151818
449.085901	13116.671454
449.460369	12763.861261
449.834776	12208.729399
450.209124	13142.567861
450.583412	13560.676120
450.957640	14485.435464
451.331808	13531.061862
451.705917	12606.012651
452.079965	11849.590037
452.453954	12764.970314
452.827883	12422.134044
453.201752	12709.777242
453.575562	12256.965680
453.949311	12674.658043
454.323001	12653.412100
454.696632	12897.189697
455.070202	13164.794308
455.443713	13362.478115
455.817164	13857.174104
456.190556	13818.332013
456.563888	14191.667264
456.937160	14329.895703
457.310373	13692.247715
457.683526	13800.521617
458.056619	13319.250221
458.429653	13537.701061
458.802628	12895.498390
459.175542	13305.258498
459.548398	14256.259569
459.921194	14617.848931
460.293930	14693.035220
460.666607	15535.265834
461.039224	16605.296109
461.411782	17320.280438
461.784280	17096.803568
462.156719	17208.318932
462.529099	16879.945732
462.901419	15838.859242
463.273680	15592.737509
463.645882	15507.569735
464.018024	15209.284662
464.390106	15444.862823
464.762130	16159.121226
465.134094	16959.336343
465.505999	19026.277476
465.877845	22294.812916
466.249631	25104.018582
466.621358	24707.093251
466.993026	23295.398775
467.364634	22700.898022
467.736184	21220.724513
468.107674	20432.053637
468.479105	20565.576159
468.850477	20017.242293
469.221790	19631.425145
469.593043	18930.946736
469.964238	18347.385287
470.335373	17995.346391
470.706449	18507.477210
471.077467	18097.470085
471.448425	19971.662701
471.819324	24105.141673
472.190164	25930.813183
472.560945	22249.508066
472.931667	19961.751792
473.302330	19344.737247
473.672934	18993.532661
474.043479	19210.680363
474.413965	19025.120531
474.784393	18610.886399
475.154761	19392.398836
475.525070	19296.294279
475.895321	19034.648312
476.265513	19630.701740
476.635645	20208.402847
477.005719	19973.749738
477.375734	20162.934160
477.745691	20644.452572
478.115588	21196.867252
478.485427	21761.403386
478.855207	22856.629347
479.224928	24649.760208
479.594591	26868.757664
479.964194	26779.715764
480.333739	27010.739242
480.703226	26597.778001
481.072653	26310.477602
481.442022	26932.187983
481.811333	27873.930974
482.180584	27745.613444
482.549777	26791.527188
482.918912	26460.787166
483.287988	26603.661028
483.657005	26222.665743
484.025964	26022.352975
484.394864	25881.503136
484.763706	25535.160744
485.132489	25016.005077
485.501213	25183.797362
485.869879	25092.151705
486.238487	24956.305212
486.607036	25063.724639
486.975527	24810.651154
487.343959	25113.208605
487.712333	25024.721232
488.080648	24684.342524
488.448905	25194.895462
488.817104	24967.012623
489.185244	25680.567785
489.553326	25617.636541
489.921350	26662.536663
490.289315	29025.733805
490.657222	30729.424514
491.025070	31249.333834
491.392861	30987.029997
491.760593	30124.203748
492.128267	29205.849190
492.495883	28136.290264
492.863440	27276.123224
493.230939	26413.763283
493.598380	26248.768838
493.965763	25874.995007
494.333088	25367.486926
494.700354	25338.076834
495.067563	25176.487689
495.434713	24934.139259
495.801805	25119.137002
496.168839	24881.232349
496.535815	24765.227837
496.902733	24984.979295
497.269593	24666.595142
497.636395	24833.495143
498.003139	24754.190231
498.369825	24507.455997
498.736453	24729.085285
499.103023	24594.259625
499.469535	24593.843730
499.835989	24809.206863
500.202385	24840.167110
500.568723	24378.830957
500.935003	24551.704725
501.301226	24249.011163
501.667390	25093.434679
502.033497	25282.672033
502.399546	25034.985021
502.765537	24554.066506
503.131470	24935.835607
503.497345	25105.218376
503.863163	24338.526932
504.228923	24865.259453
504.594625	25119.653720
504.960269	24686.482494
505.325856	25167.325392
505.691385	24548.221288
506.056856	25153.805017
506.422270	25147.705221
506.787625	24661.448124
507.152924	25107.033192
507.518164	25146.583564
507.883347	24968.177129
508.248472	24640.968436
508.613540	25426.105462
508.978550	25202.119435
509.343503	25233.803087
509.708398	25424.086480
510.073236	25604.010302
510.438016	25811.108464
510.802738	25466.976617
511.167403	25734.334212
511.532010	25467.344622
511.896561	26206.100512
512.261053	26185.991349
512.625488	26008.978794
512.989866	25908.153196
513.354186	25735.140796
513.718449	25860.012698
514.082655	26247.440494
514.446803	25969.010005
514.810894	26457.853214
515.174927	25946.103002
515.538904	25973.625182
515.902822	26474.753683
516.266684	26228.180766
516.630488	26128.572607
516.994235	26069.800315
517.357925	26413.710351
517.721558	26571.712715
518.085133	26689.804265
518.448651	26579.602121
518.812112	26340.578332
519.175516	26568.196510
519.538863	26708.489301
519.902152	26505.827355
520.265385	26755.586281
520.628560	26563.898927
520.991678	26540.001337
521.354739	26606.806708
521.717743	26709.787398
522.080690	26470.108259
522.443580	26803.961193
522.806413	26772.257377
523.169189	26909.086895
523.531908	26929.705214
523.894569	26557.390797
524.257174	26653.492833
524.619722	26787.862269
524.982213	26510.351791
525.344647	26528.930963
525.707025	26710.379734
526.069345	26645.747101
526.431608	26622.986291
526.793815	26808.551164
527.155964	26299.109800
527.518057	26471.129093
527.880093	26380.655505
528.242072	26596.487466
528.603995	26321.003532
528.965860	26109.078465
529.327669	26165.907392
529.689421	26147.912994
530.051117	25985.849980
530.412755	26166.598030
530.774337	25935.088081
531.135862	25835.545457
531.497331	26008.782189
531.858743	25612.653361
532.220098	26065.898462
532.581396	25759.393787
532.942638	25649.975543
533.303824	25771.835355
533.664953	25756.409424
534.026025	25428.613437
534.387040	25674.352043
534.747999	25719.785442
535.108902	25889.095114
535.469748	25384.823454
535.830537	25539.808687
536.191270	25688.464753
536.551947	25496.981565
536.912567	25129.904907
537.273131	25579.827887
537.633638	25241.851289
537.994089	25450.565141
538.354483	24949.754233
538.714821	25452.551356
539.075103	25511.522773
539.435328	25273.958398
539.795497	24873.776482
540.155609	25215.138215
540.515665	25532.206627
540.875665	24734.499484
541.235609	25089.195069
541.595496	25018.525653
541.955328	25385.314966
542.315102	25305.082482
542.674821	24812.221473
543.034483	24698.787950
543.394090	24867.608631
543.753640	24688.060375
544.113134	25305.642050
544.472571	24883.253852
544.831953	25199.949219
545.191278	24853.019532
545.550548	24740.916873
545.909761	24932.858806
546.268918	25172.840414
546.628019	25153.724358
546.987064	24834.412633
547.346053	24566.649226
547.704986	24657.241281
548.063863	24830.878784
548.422684	24853.937022
548.781449	24344.397355
549.140158	24767.531645
549.498811	24332.270860
549.857408	24101.779224
550.215949	24493.378575
550.574434	24192.215003
550.932864	24392.749582
551.291237	24578.717748
551.649555	24418.600619
552.007817	24467.189781
552.366022	24326.191228
552.724173	24345.990360
553.082267	24316.875176
553.440305	24805.940196
553.798288	24036.256827
554.156215	24521.029304
554.514086	24662.501725
554.871902	24042.313773
555.229661	24317.701925
555.587365	24174.238248
555.945014	24070.924842
556.302606	24289.103459
556.660143	24281.246821
557.017625	24505.527756
557.375050	24026.892883
557.732421	24412.344547
558.089735	24240.932714
558.446994	24284.687409
558.804197	24328.452186
559.161345	24209.317118
559.518437	24015.641028
559.875474	24185.664024
560.232455	24361.139027
560.589381	24173.681201
560.946251	24178.319063
561.303065	24481.297450
561.659825	24574.495782
562.016528	24179.564228
562.373177	23917.363734
562.729770	24274.983188
563.086307	24111.896819
563.442789	24282.902840
563.799216	24137.959585
564.155587	24131.761486
564.511904	24114.077118
564.868164	24083.774743
565.224370	24029.118553
565.580520	23987.007274
565.936615	24086.532254
566.292654	23799.186485
566.648638	24021.892059
567.004567	23858.795608
567.360441	23803.264778
567.716260	23533.363922
568.072023	23834.265354
568.427732	23620.921202
568.783385	23377.715776
569.138982	23623.333394
569.494525	23657.683817
569.850013	23431.489764
570.205445	23519.765409
570.560823	23353.359441
570.916145	23120.178350
571.271412	23296.260812
571.626625	23045.090363
571.981782	23154.052383
572.336884	22953.202731
572.691931	23099.668415
573.046923	22849.614582
573.401860	22709.841029
573.756743	22755.556733
574.111570	22643.960710
574.466342	22566.805851
574.821059	22634.848825
575.175722	22350.873067
575.530330	22292.441053
575.884882	22311.294968
576.239380	22235.007187
576.593823	22127.643213
576.948211	22094.157348
577.302544	21960.483592
577.656823	21809.528761
578.011047	21933.508378
578.365216	21794.213736
578.719330	21659.383035
579.073389	21545.523534
579.427394	21716.683310
579.781344	21457.578085
580.135239	21356.518074
580.489080	21293.317128
580.842866	21072.438972
581.196597	21280.454624
581.550273	21240.657235
581.903895	21123.412599
582.257463	21430.648241
582.610975	20974.983386
582.964434	21311.150210
583.317837	20964.157508
583.671186	21064.751212
584.024481	21053.017927
584.377721	20807.178498
584.730906	20900.139895
585.084037	20873.262984
585.437113	20807.899383
585.790135	21014.949654
586.143103	20472.239195
586.496016	20488.393573
586.848874	20726.525077
587.201679	20629.745006
587.554428	20334.076292
587.907124	20671.803352
588.259765	20422.888820
588.612352	20501.883700
588.964884	20075.984338
589.317362	20230.422607
589.669786	20308.260543
590.022155	20292.043151
590.374470	20535.548526
590.726731	20303.816766
591.078937	20098.004098
591.431090	20169.611168
591.783188	19951.742581
592.135232	19888.665144
592.487222	19995.653552
592.839157	19998.123717
593.191038	19880.763135
593.542866	19777.311096
593.894639	19475.852617
594.246358	19697.746565
594.598022	19583.718186
594.949633	19339.358335
595.301190	19329.021449
595.652692	19492.145626
596.004141	19708.423729
596.355535	19037.541934
596.706876	19065.991686
597.058162	18958.927660
597.409395	19204.988900
597.760573	19245.774355
598.111698	19014.072842
598.462768	18967.747159
598.813785	18936.701213
599.164748	18744.255165
599.515657	18795.211148
599.866511	18595.299151
600.217312	18946.821329
600.568060	18457.264797
600.918753	18773.763559
601.269392	18663.324481
601.619978	18460.652452
601.970510	18637.496129
602.320988	18593.204552
602.671412	18798.387075
603.021783	18735.332323
603.372100	18433.876364
603.722363	18591.157843
604.072572	18541.288229
604.422728	18687.728707
604.772830	18424.678779
605.122878	18389.554539
605.472872	18374.869658
605.822813	18359.962966
606.172701	18352.759157
606.522534	18517.781328
606.872314	18551.204178
607.222041	18387.379281
607.571714	18597.144213
607.921333	18419.541843
608.270899	18508.044340
608.620411	18657.756527
608.969870	18447.953786
609.319276	18442.194268
609.668627	18467.551272
610.017926	18607.874309
610.367171	18722.495024
610.716362	18776.924363
611.065500	18583.218026
611.414585	18734.513135
611.763616	18728.637670
612.112594	18657.149068
612.461518	18628.651425
612.810389	18815.441298
613.159207	18674.883847
613.507971	18593.043235
613.856682	18838.580195
614.205340	18755.365868
614.553945	18916.017359
614.902496	18655.089756
615.250994	18859.818576
615.599439	18822.098142
615.947830	18800.403537
616.296169	18888.238081
616.644454	18848.521350
616.992686	18819.401125
617.340864	19043.384631
617.688990	18781.650444
618.037063	18951.418862
618.385082	18816.830136
618.733048	19084.724613
619.080961	18981.108737
619.428821	19000.181943
619.776628	18881.074601
620.124382	18814.914498
620.472083	18876.807264
620.819731	18869.759731
621.167326	18566.304955
621.514868	18607.095451
621.862357	18388.949601
622.209793	18377.644813
622.557176	18231.123677
622.904506	18050.975523
623.251783	17989.657449
623.599007	17731.222697
623.946179	17666.554775
624.293297	17596.966688
624.640363	17330.052715
624.987376	17355.618927
625.334336	17152.198287
625.681243	17008.812748
626.028097	17022.817073
626.374899	16940.096780
626.721647	16803.665512
627.068343	16643.994526
627.414987	16578.209989
627.761577	16533.348761
628.108115	16570.633135
628.454600	16296.863193
628.801032	16405.376550
629.147412	16337.270562
629.493739	16341.999164
629.840014	16156.323385
630.186236	16251.094557
630.532405	16018.291552
630.878521	16217.074330
631.224585	16128.319776
631.570597	15942.177691
631.916556	15972.008718
632.262462	15943.500993
632.608316	15861.352871
632.954117	15810.689275
633.299866	15795.086904
633.645562	15707.983327
633.991206	15481.479243
634.336797	15356.022568
634.682336	15315.963039
635.027823	15184.013358
635.373257	15049.971598
635.718639	14975.112984
636.063968	14914.853551
