Dividing Wavelength (nm)	Counts (n)	Blue Motor Position (mm): 47.800000	Red Motor Position (mm): 0.000000	
326.493990	2276.012906
326.888308	2276.012906
327.282561	2276.012906
327.676750	2235.479508
328.070874	2234.980434
328.464933	2237.057390
328.858929	2238.267267
329.252859	2242.592577
329.646726	2252.805954
330.040528	2263.588982
330.434265	2277.600869
330.827938	2296.442182
331.221547	2314.045891
331.615091	2332.337718
332.008571	2350.737929
332.401986	2372.543440
332.795338	2389.128837
333.188625	2410.100037
333.581847	2424.583272
333.975006	2450.479679
334.368100	2466.737400
334.761129	2484.825060
335.154095	2500.689571
335.546996	2526.533046
335.939833	2567.842782
336.332606	2584.909608
336.725315	2594.709611
337.117960	2610.750562
337.510540	2623.759260
337.903056	2632.702267
338.295508	2639.165026
338.687896	2650.058960
339.080220	2652.582057
339.472480	2660.514313
339.864676	2666.977072
340.256807	2672.920592
340.648875	2676.174657
341.040879	2677.261026
341.432818	2681.135153
341.824694	2682.324865
342.216506	2682.589525
342.608253	2685.281502
342.999937	2686.451049
343.391557	2686.763601
343.783113	2686.677901
344.174605	2683.927952
344.566033	2682.650019
344.957397	2684.321162
345.348697	2683.028106
345.739934	2679.758917
346.131106	2676.875377
346.522215	2674.924451
346.913260	2673.502846
347.304241	2672.920592
347.695159	2670.483194
348.086012	2672.643329
348.476802	2668.837258
348.867528	2665.008501
349.258191	2663.027328
349.648789	2662.818120
350.039324	2657.330824
350.429796	2661.018428
350.820203	2660.610095
351.210548	2662.492966
351.600828	2659.140598
351.991045	2656.647748
352.381198	2656.456184
352.771288	2654.744712
353.161314	2655.523570
353.551276	2656.297387
353.941175	2654.900988
354.331010	2655.984836
354.720782	2654.772438
355.110490	2654.301091
355.500135	2652.453508
355.889717	2656.650268
356.279235	2654.515340
356.668689	2654.669095
357.058080	2653.179434
357.447408	2656.062974
357.836672	2654.401914
358.225873	2656.531801
358.615010	2656.693118
359.004084	2655.626914
359.393095	2658.432316
359.782043	2658.250835
360.170927	2659.629590
360.559748	2660.358037
360.948505	2659.538849
361.337199	2661.209992
361.725830	2663.917092
362.114398	2662.785352
362.502903	2660.040444
362.891344	2664.005312
363.279722	2662.422389
363.668037	2667.486228
364.056289	2664.998419
364.444478	2665.739469
364.832603	2665.709222
365.220665	2667.367761
365.608665	2669.142247
365.996601	2669.336332
366.384474	2667.768533
366.772284	2671.282217
367.160031	2670.798267
367.547715	2673.293638
367.935336	2671.171312
368.322893	2670.253822
368.710388	2669.260715
369.097820	2670.707526
369.485189	2668.663338
369.872495	2676.194822
370.259738	2675.960408
370.646918	2678.939730
371.034035	2678.687672
371.421090	2682.491223
371.808081	2684.490040
372.195010	2691.497244
372.581875	2697.682740
372.968678	2707.502908
373.355418	2717.688559
373.742096	2727.990157
374.128710	2744.015985
374.515262	2757.170876
374.901751	2770.666045
375.288177	2783.752880
375.674540	2807.625264
376.060841	2826.045640
376.447079	2850.328878
376.833254	2878.549258
377.219367	2897.095663
377.605417	2931.511620
377.991404	2950.786472
378.377329	2989.845332
378.763191	3011.847448
379.148991	3057.084242
379.534727	3098.477156
379.920402	3137.606592
380.306013	3156.871362
380.691563	3220.873851
381.077049	3247.488622
381.462474	3285.259468
381.847835	3343.920854
382.233134	3386.591701
382.618371	3413.133376
383.003545	3482.177019
383.388657	3506.195597
383.773706	3563.710121
384.158693	3599.199844
384.543618	3628.398207
384.928480	3688.589584
385.313280	3745.103439
385.698017	3766.306532
386.082692	3857.153166
386.467305	3857.483361
386.851856	3894.107344
387.236344	3976.300837
387.620770	4000.952079
388.005133	4051.862692
388.389435	4095.627469
388.773674	4105.866053
389.157851	4180.359183
389.541965	4252.576232
389.926018	4218.336715
390.310008	4317.644926
390.693936	4370.239284
391.077802	4402.449736
391.461606	4404.604829
391.845348	4468.536742
392.229027	4531.319272
392.612645	4527.805588
392.996200	4628.474910
393.379694	4690.536555
393.763125	4794.401968
394.146494	4826.065456
394.529801	4877.928846
394.913047	4963.804902
395.296230	4911.326491
395.679351	5017.520917
396.062410	5074.443106
396.445408	5043.848343
396.828343	5102.507209
397.211217	5162.481816
397.594028	5040.248959
397.976778	5155.726670
398.359466	5207.080904
398.742092	5230.126539
399.124656	5152.258356
399.507158	5270.591881
399.889598	5330.642106
400.271977	5451.266835
400.654294	5449.157112
401.036549	5494.797198
401.418742	5413.178397
401.800874	5621.292351
402.182944	5681.975241
402.564952	5785.341580
402.946898	5849.288616
403.328783	5680.714952
403.710606	5702.845618
404.092367	6024.660276
404.474067	6048.628442
404.855705	5943.520385
405.237282	5884.344800
405.618797	6140.241331
406.000250	6113.366940
406.381642	6324.308982
406.762972	6347.301684
407.144240	6400.342184
407.525447	6386.355503
407.906593	6395.825311
408.287677	6568.749490
408.668700	6481.237580
409.049661	6590.907882
409.430560	6614.568538
409.811399	6478.822868
410.192176	6742.815492
410.572891	6765.349449
410.953545	6951.131092
411.334138	6683.279465
411.714669	6858.983841
412.095139	6648.175390
412.475547	6896.127062
412.855894	6968.906200
413.236180	7153.740106
413.616405	6808.889895
413.996568	7027.529778
414.376670	7084.565393
414.756711	6974.509443
415.136691	7074.336892
415.516609	7278.712831
415.896466	7262.059379
416.276262	7470.180895
416.655997	7457.961138
417.035670	7625.866849
417.415283	7973.497257
417.794834	8047.193885
418.174324	7895.273672
418.553753	7827.633991
418.933121	8111.186292
419.312428	8223.747695
419.691674	7996.137078
420.070859	8472.001837
420.449983	8152.319586
420.829045	8524.313890
421.208047	8286.799927
421.586988	8602.106456
421.965867	8625.620918
422.344686	8711.466727
422.723444	8795.906054
423.102141	8123.181717
423.480777	8899.244667
423.859352	8422.142305
424.237866	9038.967807
424.616319	8904.747086
424.994712	9334.371861
425.373044	8872.574442
425.751314	9351.156383
426.129524	9241.324764
426.507673	9318.903080
426.885762	9473.565680
427.263789	9395.349658
427.641756	9334.570986
428.019662	9411.705681
428.397508	9692.203043
428.775292	9341.615999
429.153016	9733.480011
429.530679	9564.939114
429.908282	9571.653931
430.285824	9305.990165
430.663305	9989.726902
431.040726	9448.233882
431.418086	9420.275643
431.795385	9753.301828
432.172624	9859.818888
432.549802	9761.957489
432.926920	9831.900978
433.303977	9701.042706
433.680974	9908.347555
434.057910	10009.226085
434.434786	10084.145193
434.811601	9895.774918
435.188355	10468.938987
435.565050	10219.590914
435.941683	10127.940217
436.318257	10609.128434
436.694770	10791.144335
437.071222	10823.425363
437.447614	10650.428087
437.823946	10589.846020
438.200218	10669.949955
438.576429	10522.833962
438.952580	10767.672722
439.328670	10780.857860
439.704700	10593.563871
440.080670	10575.569473
440.456580	11092.963257
440.832429	10891.153265
441.208218	10489.897584
441.583947	10774.039700
441.959616	10969.404576
442.335224	10783.282655
442.710773	10883.049610
443.086261	11113.571493
443.461689	10380.199555
443.837057	11071.926522
444.212365	11291.337702
444.587612	10934.121540
444.962800	11136.622169
445.337927	10877.935360
445.712995	10568.786600
446.088002	11595.566295
446.462949	11313.733028
446.837837	11269.396079
447.212664	11178.950218
447.587431	11787.571242
447.962139	12551.109445
448.336786	14857.565879
448.711374	15325.876468
449.085901	13131.752065
449.460369	12789.082153
449.834776	12228.886453
450.209124	13174.866534
450.583412	13605.736473
450.957640	14524.748902
451.331808	13543.936968
451.705917	12628.022329
452.079965	11872.214736
452.453954	12777.031275
452.827883	12448.615225
453.201752	12737.919483
453.575562	12297.579736
453.949311	12708.211963
454.323001	12687.689426
454.696632	12931.719081
455.070202	13201.909803
455.443713	13381.999983
455.817164	13894.019897
456.190556	13854.305687
456.563888	14217.278847
456.937160	14347.199463
457.310373	13709.904356
457.683526	13827.378364
458.056619	13343.316689
458.429653	13570.385382
458.802628	12906.777972
459.175542	13336.720340
459.548398	14287.585299
459.921194	14657.505168
460.293930	14724.670981
460.666607	15558.069494
461.039224	16626.111033
461.411782	17366.757356
461.784280	17118.082278
462.156719	17238.707007
462.529099	16898.976088
462.901419	15875.669748
463.273680	15622.719771
463.645882	15536.667275
464.018024	15247.484005
464.390106	15484.897146
464.762130	16194.943665
465.134094	16998.362436
465.505999	19087.076312
465.877845	22356.158717
466.249631	25148.912577
466.621358	24737.158693
466.993026	23320.871725
467.364634	22721.223955
467.736184	21251.296590
468.107674	20452.021648
468.479105	20588.788152
468.850477	20039.360356
469.221790	19658.155863
469.593043	18954.715776
469.964238	18384.420124
470.335373	18019.342283
470.706449	18545.409372
471.077467	18128.246330
471.448425	20017.428816
471.819324	24179.231511
472.190164	25960.926515
472.560945	22244.754258
472.931667	19974.158072
473.302330	19380.544562
473.672934	19034.184526
474.043479	19240.478623
474.413965	19051.889058
474.784393	18637.027302
475.154761	19429.421069
475.525070	19316.743719
475.895321	19062.115038
476.265513	19667.366052
476.635645	20258.680795
477.005719	19999.847792
477.375734	20184.316214
477.745691	20682.087306
478.115588	21226.937735
478.485427	21785.880708
478.855207	22899.058218
479.224928	24702.473034
479.594591	26937.556812
479.964194	26794.771170
480.333739	27041.835599
480.703226	26639.375082
481.072653	26347.464548
481.442022	27001.571904
481.811333	27926.464838
482.180584	27772.976827
482.549777	26831.926994
482.918912	26520.789500
483.287988	26656.144480
483.657005	26257.089263
484.025964	26064.789408
484.394864	25917.411275
484.763706	25554.634721
485.132489	25054.315325
485.501213	25240.422122
485.869879	25142.114581
486.238487	25006.545351
486.607036	25117.917043
486.975527	24894.203238
487.343959	25168.764641
487.712333	25077.633182
488.080648	24728.805501
488.448905	25246.229532
488.817104	25008.536607
489.185244	25731.259108
489.553326	25659.725135
489.921350	26726.304739
490.289315	29101.588047
490.657222	30784.027772
491.025070	31307.793575
491.392861	31051.435778
491.760593	30176.069660
492.128267	29242.949562
492.495883	28181.383385
492.863440	27325.629876
493.230939	26459.897402
493.598380	26288.697297
493.965763	25912.349957
494.333088	25393.315277
494.700354	25384.447888
495.067563	25224.358486
495.434713	24967.942716
495.801805	25172.144735
496.168839	24920.392032
496.535815	24807.999507
496.902733	25032.870257
497.269593	24723.214861
497.636395	24889.618308
498.003139	24819.420241
498.369825	24549.814292
498.736453	24771.801502
499.103023	24635.682786
499.469535	24625.320695
499.835989	24859.956159
500.202385	24885.522371
500.568723	24425.038173
500.935003	24587.633028
501.301226	24305.083917
501.667390	25138.671473
502.033497	25330.978889
502.399546	25071.603962
502.765537	24601.806232
503.131470	24977.631813
503.497345	25139.588963
503.863163	24376.832139
504.228923	24906.324692
504.594625	25162.080071
504.960269	24729.498659
505.325856	25203.815784
505.691385	24599.557878
506.056856	25198.310844
506.422270	25208.677977
506.787625	24713.172883
507.152924	25147.803523
507.518164	25192.707601
507.883347	25005.685835
508.248472	24681.020403
508.613540	25442.897546
508.978550	25250.181796
509.343503	25277.000735
509.708398	25468.975435
510.073236	25632.349149
510.438016	25852.763518
510.802738	25506.925241
511.167403	25761.584169
511.532010	25522.746902
511.896561	26245.141728
512.261053	26222.761525
512.625488	26053.850104
512.989866	25940.842558
513.354186	25773.758555
513.718449	25896.200620
514.082655	26272.018640
514.446803	25996.980848
514.810894	26496.120613
515.174927	25979.374618
515.538904	26023.514961
515.902822	26514.195670
516.266684	26263.456240
516.630488	26169.721025
516.994235	26100.800890
517.357925	26462.937218
517.721558	26599.572652
518.085133	26755.634172
518.448651	26615.343902
518.812112	26390.324438
519.175516	26623.119882
519.538863	26766.628929
519.902152	26556.591774
520.265385	26808.687275
520.628560	26610.716123
520.991678	26596.537877
521.354739	26634.938867
521.717743	26751.056804
522.080690	26519.763625
522.443580	26847.773862
522.806413	26810.481926
523.169189	26938.691071
523.531908	26979.753790
523.894569	26616.271474
524.257174	26713.263274
524.619722	26839.771030
524.982213	26559.646713
525.344647	26563.929174
525.707025	26746.242503
526.069345	26687.497937
526.431608	26664.928691
526.793815	26828.743506
527.155964	26345.682500
527.518057	26518.712544
527.880093	26426.837515
528.242072	26645.605948
528.603995	26359.366712
528.965860	26150.481462
529.327669	26190.583840
529.689421	26188.002770
530.051117	26034.527361
530.412755	26197.301178
530.774337	25982.338816
531.135862	25886.110751
531.497331	26060.509468
531.858743	25655.253631
532.220098	26107.392199
532.581396	25818.224053
532.942638	25692.101945
533.303824	25819.131460
533.664953	25801.734438
534.026025	25469.116587
534.387040	25725.698715
534.747999	25755.842294
535.108902	25928.675733
535.469748	25412.756487
535.830537	25573.934778
536.191270	25715.203033
536.551947	25541.308431
536.912567	25159.798949
537.273131	25632.177749
537.633638	25278.860920
537.994089	25489.140050
538.354483	24975.138963
538.714821	25487.862118
539.075103	25542.810695
539.435328	25306.385620
539.795497	24926.322950
540.155609	25235.108746
540.515665	25560.185031
540.875665	24775.403406
541.235609	25127.739731
541.595496	25049.775766
541.955328	25421.540698
542.315102	25343.367525
542.674821	24836.537479
543.034483	24731.923454
543.394090	24889.520006
543.753640	24709.152562
544.113134	25339.984911
544.472571	24917.392546
544.831953	25221.154832
545.191278	24892.585027
545.550548	24755.362299
545.909761	24974.397913
546.268918	25212.786517
546.628019	25190.802045
546.987064	24863.860533
547.346053	24593.881539
547.704986	24693.961045
548.063863	24858.156467
548.422684	24889.368771
548.781449	24382.773139
549.140158	24798.960718
549.498811	24356.665003
549.857408	24153.516586
550.215949	24520.507544
550.574434	24233.565067
550.932864	24409.874382
551.291237	24613.380722
551.649555	24443.022489
552.007817	24498.225644
552.366022	24337.753115
552.724173	24372.035481
553.082267	24337.327137
553.440305	24823.687578
553.798288	24050.424989
554.156215	24540.515884
554.514086	24686.182545
554.871902	24076.197888
555.229661	24354.104097
555.587365	24193.555950
555.945014	24097.529531
556.302606	24298.664008
556.660143	24309.217663
557.017625	24529.642115
557.375050	24047.614546
557.732421	24432.360449
558.089735	24262.206383
558.446994	24313.505165
558.804197	24354.620815
559.161345	24225.526948
559.518437	24041.330748
559.875474	24204.691859
560.232455	24376.028075
560.589381	24199.340674
560.946251	24197.598955
561.303065	24490.346321
561.659825	24589.094963
562.016528	24190.062430
562.373177	23908.743361
562.729770	24291.210662
563.086307	24122.173212
563.442789	24301.809688
563.799216	24155.291072
564.155587	24147.578106
564.511904	24132.459686
564.868164	24092.848820
565.224370	24051.702922
565.580520	23999.418595
565.936615	24102.580767
566.292654	23825.365197
566.648638	24031.961763
567.004567	23886.353076
567.360441	23810.556807
567.716260	23534.465414
568.072023	23836.251568
568.427732	23630.136432
568.783385	23386.784812
569.138982	23642.517505
569.494525	23659.281863
569.850013	23430.209311
570.205445	23537.369118
570.560823	23363.351008
570.916145	23125.567343
571.271412	23323.046983
571.626625	23081.981527
571.981782	23178.622967
572.336884	22984.760354
572.691931	23132.501450
573.046923	22868.360112
573.401860	22738.023600
573.756743	22780.971710
574.111570	22668.324607
574.466342	22587.658584
574.821059	22662.776817
575.175722	22373.026418
575.530330	22325.289211
575.884882	22324.177637
576.239380	22247.592428
576.593823	22143.747179
576.948211	22113.845575
577.302544	21975.924647
577.656823	21838.278462
578.011047	21945.670162
578.365216	21814.171664
578.719330	21683.353722
579.073389	21560.352088
579.427394	21728.046071
579.781344	21476.981486
580.135239	21368.095083
580.489080	21301.216616
580.842866	21082.962381
581.196597	21307.775157
581.550273	21261.273033
581.903895	21139.924899
582.257463	21456.927776
582.610975	20989.277578
582.964434	21318.971560
583.317837	20975.341308
583.671186	21059.188299
584.024481	21063.503527
584.377721	20812.373407
584.730906	20923.873648
585.084037	20883.352853
585.437113	20832.976603
585.790135	21024.779904
586.143103	20478.948971
586.496016	20507.933085
586.848874	20737.368599
587.201679	20637.992334
587.554428	20367.297496
587.907124	20682.344405
588.259765	20436.978845
588.612352	20513.087665
588.964884	20087.296687
589.317362	20248.507746
589.669786	20311.612910
590.022155	20308.968825
590.374470	20554.594005
590.726731	20303.569749
591.078937	20109.626478
591.431090	20180.217756
591.783188	19958.374219
592.135232	19909.616179
592.487222	20015.916470
592.839157	20024.083139
593.191038	19893.305526
593.542866	19777.845459
593.894639	19485.503906
594.246358	19700.199087
594.598022	19588.169525
594.949633	19347.681280
595.301190	19336.910855
595.652692	19507.949643
596.004141	19719.322704
596.355535	19054.533143
596.706876	19075.917718
597.058162	18963.522672
597.409395	19215.431650
597.760573	19253.857846
598.111698	19016.661475
598.462768	18988.168873
598.813785	18942.916956
599.164748	18745.192820
599.515657	18804.565009
599.866511	18599.430377
600.217312	18934.266336
600.568060	18460.153378
600.918753	18775.714486
601.269392	18672.557354
601.619978	18475.564186
601.970510	18647.782604
602.320988	18613.349003
602.671412	18794.235685
603.021783	18734.467765
603.372100	18437.213608
603.722363	18598.714533
604.072572	18547.365340
604.422728	18691.257515
604.772830	18432.540458
605.122878	18398.946209
605.472872	18374.504174
605.822813	18359.781485
606.172701	18351.007356
606.522534	18518.328294
606.872314	18554.634684
607.222041	18399.863699
607.571714	18603.281818
607.921333	18432.797557
608.270899	18506.075769
608.620411	18653.690836
608.969870	18464.987845
609.319276	18450.749106
609.668627	18474.167786
610.017926	18610.765411
610.367171	18719.135095
610.716362	18785.010373
611.065500	18590.774716
611.414585	18742.924300
611.763616	18721.640549
612.112594	18655.672010
612.461518	18638.428743
612.810389	18819.239808
613.159207	18682.967337
613.507971	18607.770966
613.856682	18834.257405
614.205340	18752.305888
614.553945	18920.279654
614.902496	18666.956632
615.250994	18861.376292
615.599439	18820.656372
615.947830	18802.853537
616.296169	18883.479231
616.644454	18835.931068
616.992686	18812.325865
617.340864	19044.770949
617.688990	18778.497203
618.037063	18953.614284
618.385082	18817.921546
618.733048	19089.158308
619.080961	18975.629003
619.428821	19010.385238
619.776628	18877.974291
620.124382	18809.369229
620.472083	18867.266881
620.819731	18867.831490
621.167326	18561.228513
621.514868	18599.271580
621.862357	18388.387512
622.209793	18386.134116
622.557176	18230.047390
622.904506	18047.678609
623.251783	17987.391450
623.599007	17738.618069
623.946179	17677.105910
624.293297	17606.255013
624.640363	17327.539700
624.987376	17352.190942
625.334336	17157.395716
625.681243	17005.631780
626.028097	17028.132970
626.374899	16935.388342
626.721647	16807.685833
627.068343	16650.081719
627.414987	16577.012715
627.761577	16546.324691
628.108115	16564.651806
628.454600	16304.049358
628.801032	16395.097637
629.147412	16336.537074
629.493739	16339.337435
629.840014	16157.835732
630.186236	16253.274856
630.532405	16019.216604
630.878521	16206.172835
631.224585	16121.783920
631.570597	15938.129644
631.916556	15972.532998
632.262462	15948.080882
632.608316	15863.172727
632.954117	15802.409180
633.299866	15788.062056
633.645562	15711.192021
633.991206	15484.584594
634.336797	15358.868300
634.682336	15324.593495
635.027823	15184.504870
635.373257	15048.265167
635.718639	14969.693743
636.063968	14907.806018
