Dividing Wavelength (nm)	Counts (n)	Blue Motor Position (mm): 34.700000	Red Motor Position (mm): 0.000000	
326.493990	2229.725031
326.888308	2229.725031
327.282561	2229.725031
327.676750	2189.516788
328.070874	2184.200892
328.464933	2185.796417
328.858929	2188.402693
329.252859	2195.278827
329.646726	2200.370393
330.040528	2215.619883
330.434265	2228.832747
330.827938	2246.340674
331.221547	2264.191400
331.615091	2279.362753
332.008571	2299.424024
332.401986	2316.208546
332.795338	2336.224448
333.188625	2355.521984
333.581847	2374.209542
333.975006	2392.443395
334.368100	2411.529204
334.761129	2432.283634
335.154095	2449.123608
335.546996	2474.946919
335.939833	2513.592404
336.332606	2526.086904
336.725315	2541.603576
337.117960	2557.223591
337.510540	2567.182390
337.903056	2576.334605
338.295508	2583.803075
338.687896	2594.918819
339.080220	2599.884355
339.472480	2609.573453
339.864676	2614.443208
340.256807	2620.359002
340.648875	2623.618108
341.040879	2626.050464
341.432818	2626.690691
341.824694	2633.972638
342.216506	2633.536578
342.608253	2632.036835
342.999937	2633.317288
343.391557	2631.366361
343.783113	2630.597585
344.174605	2632.288892
344.566033	2632.470374
344.957397	2632.535909
345.348697	2627.411576
345.739934	2627.565331
346.131106	2625.558952
346.522215	2623.741616
346.913260	2620.444701
347.304241	2619.721296
347.695159	2618.035030
348.086012	2619.076028
348.476802	2614.196191
348.867528	2610.579163
349.258191	2605.268308
349.648789	2607.791405
350.039324	2603.967690
350.429796	2605.459872
350.820203	2607.012547
351.210548	2605.900972
351.600828	2599.975096
351.991045	2602.573811
352.381198	2602.871239
352.771288	2600.539705
353.161314	2600.267483
353.551276	2600.159098
353.941175	2599.518872
354.331010	2600.867380
354.720782	2600.403594
355.110490	2599.657503
355.500135	2598.344283
355.889717	2599.672627
356.279235	2597.585589
356.668689	2600.547267
357.058080	2601.326125
357.447408	2600.212030
357.836672	2598.981989
358.225873	2599.937287
358.615010	2601.762185
359.004084	2599.743203
359.393095	2600.108687
359.782043	2602.059613
360.170927	2602.571290
360.559748	2602.447782
360.948505	2604.406270
361.337199	2603.211517
361.725830	2605.437186
362.114398	2604.733945
362.502903	2606.369800
362.891344	2608.282918
363.279722	2608.713936
363.668037	2609.434821
364.056289	2605.976590
364.444478	2608.040942
364.832603	2609.921293
365.220665	2606.826024
365.608665	2607.390633
365.996601	2610.158227
366.384474	2610.417846
366.772284	2612.474637
367.160031	2610.780809
367.547715	2615.496809
367.935336	2611.957919
368.322893	2611.418515
368.710388	2607.723350
369.097820	2608.484564
369.485189	2607.549430
369.872495	2612.739298
370.259738	2613.631582
370.646918	2615.335492
371.034035	2614.763321
371.421090	2616.295832
371.808081	2613.523197
372.195010	2615.668208
372.581875	2617.309104
372.968678	2616.104268
373.355418	2617.616614
373.742096	2617.087293
374.128710	2616.051336
374.515262	2618.622324
374.901751	2617.334309
375.288177	2617.788013
375.674540	2619.436471
376.060841	2619.360853
376.447079	2620.691718
376.833254	2621.054681
377.219367	2621.636934
377.605417	2617.493106
377.991404	2620.439660
378.377329	2624.606174
378.763191	2621.510905
379.148991	2619.698611
379.534727	2621.977212
379.920402	2624.391925
380.306013	2622.239352
380.691563	2622.360340
381.077049	2622.398148
381.462474	2623.441667
381.847835	2623.418982
382.233134	2625.705145
382.618371	2623.595422
383.003545	2625.611884
383.388657	2626.189096
383.773706	2628.293778
384.158693	2629.049951
384.543618	2628.709673
384.928480	2628.432410
385.313280	2629.188583
385.698017	2627.346041
386.082692	2631.479787
386.467305	2631.215127
386.851856	2632.838378
387.236344	2632.808131
387.620770	2628.472739
388.005133	2627.915691
388.389435	2632.482977
388.773674	2631.951135
389.157851	2633.927267
389.541965	2634.680920
389.926018	2635.956332
390.310008	2637.682927
390.693936	2636.679737
391.077802	2638.113946
391.461606	2637.395581
391.845348	2639.936323
392.229027	2639.502783
392.612645	2641.090747
392.996200	2641.327681
393.379694	2643.134935
393.763125	2642.656025
394.146494	2645.206849
394.529801	2642.303144
394.913047	2645.411016
395.296230	2645.655512
395.679351	2645.297590
396.062410	2647.815646
396.445408	2644.329688
396.828343	2648.796151
397.211217	2651.354536
397.594028	2647.016623
397.976778	2647.377066
398.359466	2650.550472
398.742092	2650.931079
399.124656	2649.612817
399.507158	2651.344454
399.889598	2655.866369
400.271977	2653.739002
400.654294	2654.447284
401.036549	2655.231183
401.418742	2656.526760
401.800874	2660.678150
402.182944	2658.979281
402.564952	2660.582368
402.946898	2661.552790
403.328783	2660.552121
403.710606	2664.007832
404.092367	2673.369255
404.474067	2677.835717
404.855705	2678.657425
405.237282	2682.418126
405.618797	2691.507327
406.000250	2703.273380
406.381642	2715.132694
406.762972	2731.854201
407.144240	2745.717374
407.525447	2766.708739
407.906593	2787.024589
408.287677	2822.300063
408.668700	2854.142511
409.049661	2894.053326
409.430560	2933.054213
409.811399	2966.567804
410.192176	3035.742517
410.572891	3089.342585
410.953545	3171.523475
411.334138	3198.801159
411.714669	3288.279119
412.095139	3321.160045
412.475547	3431.352106
412.855894	3517.462576
413.236180	3632.201758
413.616405	3642.016884
413.996568	3774.085033
414.376670	3862.259855
414.756711	3914.120725
415.136691	4029.991646
415.516609	4175.736445
415.896466	4269.857308
416.276262	4428.129374
416.655997	4513.710522
417.035670	4689.190567
417.415283	4925.560188
417.794834	5047.843457
418.174324	5098.338175
418.553753	5159.946116
418.933121	5425.060397
419.312428	5573.260237
419.691674	5561.232044
420.070859	5930.148724
420.449983	5866.899887
420.829045	6172.114026
421.208047	6147.840871
421.586988	6442.990346
421.965867	6550.808024
422.344686	6722.814714
422.723444	6847.711821
423.102141	6505.369584
423.480777	7121.781711
423.859352	6862.197576
424.237866	7429.912158
424.616319	7411.713593
424.994712	7815.920870
425.373044	7566.368631
425.751314	8019.638938
426.129524	7979.735684
426.507673	8177.031323
426.885762	8379.675625
427.263789	8367.491156
427.641756	8360.763736
428.019662	8521.193416
428.397508	8783.550186
428.775292	8572.590500
429.153016	8970.400553
429.530679	8866.003298
429.908282	8962.095252
430.285824	8736.009584
430.663305	9406.314167
431.040726	8931.898741
431.418086	8955.430847
431.795385	9287.741188
432.172624	9393.834791
432.549802	9347.367955
432.926920	9451.689593
433.303977	9357.120067
433.680974	9579.888656
434.057910	9676.270476
434.434786	9746.040046
434.811601	9625.279205
435.188355	10184.580101
435.565050	9926.601573
435.941683	9876.958811
436.318257	10382.107632
436.694770	10497.464356
437.071222	10577.951418
437.447614	10443.708012
437.823946	10332.122071
438.200218	10493.307924
438.576429	10308.340428
438.952580	10545.695595
439.328670	10613.615061
439.704700	10392.600794
440.080670	10388.688858
440.456580	10963.380397
440.832429	10706.526047
441.208218	10312.204472
441.583947	10650.450772
441.959616	10779.683271
442.335224	10592.817781
442.710773	10747.729918
443.086261	10941.471542
443.461689	10238.573379
443.837057	10873.468898
444.212365	11160.534883
444.587612	10803.903495
444.962800	11041.404856
445.337927	10822.434777
445.712995	10386.261543
446.088002	11486.659728
446.462949	11128.934410
446.837837	11102.851480
447.212664	11104.462128
447.587431	11609.293357
447.962139	12315.430461
448.336786	14554.179158
448.711374	15130.630059
449.085901	12990.682937
449.460369	12594.672576
449.834776	12042.489789
450.209124	12905.162282
450.583412	13314.672853
450.957640	14269.797587
451.331808	13436.446966
451.705917	12405.531004
452.079965	11734.699621
452.453954	12626.653656
452.827883	12258.009198
453.201752	12545.385215
453.575562	12055.475802
453.949311	12478.194196
454.323001	12427.099581
454.696632	12656.761947
455.070202	12947.417234
455.443713	13186.158718
455.817164	13644.928924
456.190556	13641.997493
456.563888	14012.310572
456.937160	14180.004555
457.310373	13523.353937
457.683526	13597.529475
458.056619	13152.970282
458.429653	13283.458029
458.802628	12730.468657
459.175542	13097.512548
459.548398	14045.141087
459.921194	14381.141552
460.293930	14450.096975
460.666607	15333.090359
461.039224	16373.327414
461.411782	17068.668888
461.784280	16945.258921
462.156719	16996.192219
462.529099	16683.023139
462.901419	15604.158243
463.273680	15393.841304
463.645882	15258.249389
464.018024	14998.960162
464.390106	15214.842534
464.762130	15951.231603
465.134094	16697.997887
465.505999	18678.997428
465.877845	21934.186413
466.249631	24770.793271
466.621358	24479.598581
466.993026	23030.871789
467.364634	22464.112506
467.736184	21008.660814
468.107674	20190.715959
468.479105	20341.794298
468.850477	19797.453027
469.221790	19376.569612
469.593043	18705.060194
469.964238	18144.632600
470.335373	17802.945713
470.706449	18238.060304
471.077467	17789.392571
471.448425	19612.790520
471.819324	23635.144818
472.190164	25667.969942
472.560945	22131.388790
472.931667	19758.137068
473.302330	19118.820458
473.672934	18641.521491
474.043479	18972.566502
474.413965	18786.421896
474.784393	18426.327236
475.154761	19102.492160
475.525070	19092.629143
475.895321	18758.070447
476.265513	19342.105764
476.635645	19923.217212
477.005719	19710.558658
477.375734	19895.604292
477.745691	20379.587829
478.115588	20896.114534
478.485427	21411.053276
478.855207	22464.719965
479.224928	24233.779317
479.594591	26457.603677
479.964194	26480.243499
480.333739	26692.430706
480.703226	26255.551711
481.072653	25935.796363
481.442022	26504.763672
481.811333	27426.778107
482.180584	27346.250716
482.549777	26396.797280
482.918912	26051.168210
483.287988	26170.378896
483.657005	25830.718553
484.025964	25584.254020
484.394864	25495.310422
484.763706	25182.501785
485.132489	24609.932573
485.501213	24791.492249
485.869879	24711.489137
486.238487	24516.761967
486.607036	24669.705534
486.975527	24361.451579
487.343959	24682.106772
487.712333	24631.654904
488.080648	24290.232678
488.448905	24770.510967
488.817104	24526.879563
489.185244	25198.915782
489.553326	25162.440513
489.921350	26163.578379
490.289315	28438.651110
490.657222	30227.736445
491.025070	30724.895038
491.392861	30503.792551
491.760593	29661.204014
492.128267	28756.972249
492.495883	27714.012971
492.863440	26846.715219
493.230939	25977.315306
493.598380	25820.928632
493.965763	25420.661016
494.333088	24958.596417
494.700354	24896.007971
495.067563	24776.731750
495.434713	24522.617267
495.801805	24673.569578
496.168839	24483.011442
496.535815	24316.492048
496.902733	24524.215313
497.269593	24209.057498
497.636395	24393.417535
498.003139	24358.787329
498.369825	24118.682212
498.736453	24307.591891
499.103023	24192.507390
499.469535	24203.933165
499.835989	24410.035699
500.202385	24428.375417
500.568723	23936.865437
500.935003	24187.549415
501.301226	23805.921466
501.667390	24644.109075
502.033497	24877.718665
502.399546	24597.818680
502.765537	24169.504605
503.131470	24549.262286
503.497345	24693.169584
503.863163	23907.830912
504.228923	24507.965154
504.594625	24704.383631
504.960269	24245.137036
505.325856	24743.805454
505.691385	24131.063286
506.056856	24749.839715
506.422270	24702.800709
506.787625	24289.670589
507.152924	24688.443503
507.518164	24730.443876
507.883347	24524.318657
508.248472	24217.040165
508.613540	25006.056359
508.978550	24792.646673
509.343503	24788.903616
509.708398	25030.942015
510.073236	25197.300092
510.438016	25389.703291
510.802738	25054.771550
511.167403	25323.671737
511.532010	25033.303796
511.896561	25809.374307
512.261053	25780.738033
512.625488	25604.592556
512.989866	25493.984599
513.354186	25348.761560
513.718449	25461.229702
514.082655	25839.066703
514.446803	25572.921507
514.810894	26039.321499
515.174927	25518.134247
515.538904	25541.532762
515.902822	26051.329527
516.266684	25804.023122
516.630488	25701.922113
516.994235	25677.175089
517.357925	25979.722457
517.721558	26165.506621
518.085133	26257.817709
518.448651	26169.143813
518.812112	25916.808857
519.175516	26111.896470
519.538863	26265.092094
519.902152	26039.755038
520.265385	26323.090569
520.628560	26119.876617
520.991678	26122.392152
521.354739	26201.780243
521.717743	26279.063652
522.080690	26065.618678
522.443580	26392.235035
522.806413	26374.946398
523.169189	26479.802398
523.531908	26514.717430
523.894569	26131.178883
524.257174	26208.565636
524.619722	26394.301908
524.982213	26087.416627
525.344647	26138.402857
525.707025	26286.063294
526.069345	26256.433913
526.431608	26213.511008
526.793815	26405.964618
527.155964	25867.672731
527.518057	26036.264039
527.880093	25954.473838
528.242072	26182.281060
528.603995	25897.818831
528.965860	25695.131679
529.327669	25745.636478
529.689421	25728.302471
530.051117	25572.291362
530.412755	25748.197385
530.774337	25546.203391
531.135862	25417.787559
531.497331	25610.984739
531.858743	25184.109913
532.220098	25652.896892
532.581396	25327.802962
532.942638	25264.523879
533.303824	25375.640992
533.664953	25370.821649
534.026025	25041.818305
534.387040	25285.434585
534.747999	25339.684962
535.108902	25504.903738
535.469748	24993.909699
535.830537	25177.770662
536.191270	25303.199611
536.551947	25162.944629
536.912567	24804.750483
537.273131	25165.324053
537.633638	24864.233578
537.994089	25079.344654
538.354483	24615.868531
538.714821	25110.136022
539.075103	25154.054554
539.435328	24948.642658
539.795497	24518.450754
540.155609	24901.470061
540.515665	25204.382913
540.875665	24434.394554
541.235609	24737.493929
541.595496	24686.245559
541.955328	25035.577356
542.315102	24968.456913
542.674821	24509.159907
543.034483	24379.130905
543.394090	24551.432503
543.753640	24348.881462
544.113134	24977.215918
544.472571	24585.213275
544.831953	24869.977973
545.191278	24493.444110
545.550548	24409.284567
545.909761	24623.568894
546.268918	24840.673746
546.628019	24813.043182
546.987064	24502.124977
547.346053	24265.646971
547.704986	24374.246027
548.063863	24532.152610
548.422684	24545.214239
548.781449	24084.057047
549.140158	24487.664427
549.498811	24049.447006
549.857408	23803.642865
550.215949	24234.059101
550.574434	23905.650613
550.932864	24124.686227
551.291237	24289.418532
551.649555	24146.244721
552.007817	24197.445200
552.366022	24068.308483
552.724173	24094.081382
553.082267	24050.445154
553.440305	24529.138000
553.798288	23783.430358
554.156215	24300.060407
554.514086	24393.722525
554.871902	23761.561833
555.229661	24056.479415
555.587365	23898.124170
555.945014	23780.440954
556.302606	24021.466081
556.660143	23977.774401
557.017625	24226.792277
557.375050	23751.023301
557.732421	24141.773218
558.089735	23965.509273
558.446994	24026.701319
558.804197	24058.112749
559.161345	23989.033818
559.518437	23747.368464
559.875474	23945.773156
560.232455	24135.960767
560.589381	23947.721562
560.946251	23936.946096
561.303065	24253.260856
561.659825	24343.928528
562.016528	23942.161169
562.373177	23684.837992
562.729770	24040.506519
563.086307	23899.487802
563.442789	24067.827052
563.799216	23893.506473
564.155587	23897.118460
564.511904	23886.010277
564.868164	23821.803621
565.224370	23799.347802
565.580520	23723.811152
565.936615	23851.301933
566.292654	23539.272154
566.648638	23822.887469
567.004567	23660.552233
567.360441	23595.511266
567.716260	23344.481969
568.072023	23656.413446
568.427732	23405.313573
568.783385	23195.805740
569.138982	23422.660183
569.494525	23461.472027
569.850013	23213.850550
570.205445	23314.280417
570.560823	23118.892855
570.916145	22880.733624
571.271412	23060.760790
571.626625	22809.880207
571.981782	22918.088574
572.336884	22725.579512
572.691931	22858.620603
573.046923	22604.012087
573.401860	22474.769505
573.756743	22488.463799
574.111570	22392.812946
574.466342	22323.587822
574.821059	22412.060072
575.175722	22113.671655
575.530330	22107.118155
575.884882	22127.423923
576.239380	22033.199716
576.593823	21926.354981
576.948211	21895.354405
577.302544	21746.252198
577.656823	21610.340170
578.011047	21715.455789
578.365216	21582.886046
578.719330	21462.644444
579.073389	21353.737877
579.427394	21509.363338
579.781344	21270.498345
580.135239	21164.639155
580.489080	21130.200513
580.842866	20899.698794
581.196597	21091.539904
581.550273	21075.577090
581.903895	20952.361208
582.257463	21267.798807
582.610975	20790.751898
582.964434	21109.743511
583.317837	20807.889301
583.671186	20897.647045
584.024481	20872.988241
584.377721	20647.600773
584.730906	20712.855989
585.084037	20717.120805
585.437113	20635.070985
585.790135	20828.520223
586.143103	20294.740168
586.496016	20316.081893
586.848874	20553.248017
587.201679	20484.811833
587.554428	20154.303704
587.907124	20489.633697
588.259765	20266.156826
588.612352	20338.603248
588.964884	19909.520397
589.317362	20079.432488
589.669786	20135.122114
590.022155	20167.660242
590.374470	20374.271932
590.726731	20155.347223
591.078937	19930.841957
591.431090	20019.069711
591.783188	19773.973853
592.135232	19739.893132
592.487222	19845.215439
592.839157	19859.338231
593.191038	19742.557382
593.542866	19625.317787
593.894639	19341.412606
594.246358	19563.215813
594.598022	19455.960224
594.949633	19214.967864
595.301190	19182.369243
595.652692	19358.091263
596.004141	19590.352344
596.355535	18913.153983
596.706876	18932.746428
597.058162	18819.993460
597.409395	19058.767712
597.760573	19123.176014
598.111698	18894.373165
598.462768	18832.742538
598.813785	18801.931006
599.164748	18618.274210
599.515657	18660.249377
599.866511	18455.341597
600.217312	18810.022058
600.568060	18331.291404
600.918753	18643.298498
601.269392	18548.640752
601.619978	18335.909101
601.970510	18528.138379
602.320988	18480.063415
602.671412	18682.685032
603.021783	18594.989120
603.372100	18315.434454
603.722363	18459.334191
604.072572	18402.835459
604.422728	18554.937153
604.772830	18310.136202
605.122878	18260.551412
605.472872	18248.377026
605.822813	18234.919666
606.172701	18218.921564
606.522534	18401.156755
606.872314	18424.807328
607.222041	18270.013658
607.571714	18485.669178
607.921333	18302.909707
608.270899	18388.458088
608.620411	18558.213903
608.969870	18326.179674
609.319276	18331.636723
609.668627	18357.397019
610.017926	18492.023553
610.367171	18608.053270
610.716362	18658.963883
611.065500	18470.938927
611.414585	18610.147870
611.763616	18601.000696
612.112594	18525.789201
612.461518	18505.697683
612.810389	18688.205096
613.159207	18551.811638
613.507971	18460.047514
613.856682	18742.268950
614.205340	18655.467843
614.553945	18807.735895
614.902496	18553.830620
615.250994	18778.436709
615.599439	18737.310976
615.947830	18714.998829
616.296169	18768.818187
616.644454	18729.580366
616.992686	18706.171768
617.340864	18923.536240
617.688990	18680.746709
618.037063	18849.383387
618.385082	18697.982414
618.733048	18983.067226
619.080961	18849.154015
619.428821	18888.618688
619.776628	18769.261809
620.124382	18695.328246
620.472083	18738.566223
620.819731	18759.378627
621.167326	18452.092573
621.514868	18488.167070
621.862357	18269.791847
622.209793	18278.119833
622.557176	18116.797869
622.904506	17936.132998
623.251783	17850.125872
623.599007	17596.412161
623.946179	17551.543371
624.293297	17491.651943
624.640363	17235.886482
624.987376	17259.952950
625.334336	17053.532823
625.681243	16895.212866
626.028097	16911.304229
626.374899	16829.627455
626.721647	16697.579471
627.068343	16535.705500
627.414987	16460.940148
627.761577	16441.476253
628.108115	16471.952548
628.454600	16201.045982
628.801032	16295.418902
629.147412	16228.820219
629.493739	16253.547078
629.840014	16055.810339
630.186236	16146.092364
630.532405	15926.088848
630.878521	16124.392717
631.224585	16014.780388
631.570597	15827.302397
631.916556	15861.761204
632.262462	15849.924575
632.608316	15763.239414
632.954117	15700.262800
633.299866	15701.397059
633.645562	15613.983452
633.991206	15375.173912
634.336797	15242.503345
634.682336	15207.515217
635.027823	15099.836171
635.373257	14975.385206
635.718639	14879.058838
636.063968	14829.418596
