Dividing Wavelength (nm)	Counts (n)	Blue Motor Position (mm): 34.400000	Red Motor Position (mm): 0.000000	
326.493990	2228.318549
326.888308	2228.318549
327.282561	2228.318549
327.676750	2187.737261
328.070874	2183.215346
328.464933	2186.945800
328.858929	2186.330779
329.252859	2195.225895
329.646726	2203.833665
330.040528	2215.367825
330.434265	2226.680174
330.827938	2245.828997
331.221547	2262.003539
331.615091	2279.675304
332.008571	2297.639456
332.401986	2317.194092
332.795338	2335.750579
333.188625	2355.524505
333.581847	2373.770961
333.975006	2392.246790
334.368100	2413.961560
334.761129	2432.863367
335.154095	2449.015224
335.546996	2473.961373
335.939833	2512.886643
336.332606	2526.732172
336.725315	2538.266332
337.117960	2554.065308
337.510540	2563.714077
337.903056	2577.065572
338.295508	2584.639906
338.687896	2591.747933
339.080220	2597.739344
339.472480	2608.930706
339.864676	2612.336005
340.256807	2620.606018
340.648875	2622.783797
341.040879	2624.182717
341.432818	2628.954169
341.824694	2631.973820
342.216506	2631.436937
342.608253	2632.737555
342.999937	2631.779736
343.391557	2633.241670
343.783113	2631.028604
344.174605	2629.687657
344.566033	2628.286216
344.957397	2630.975672
345.348697	2626.899899
345.739934	2624.558283
346.131106	2625.397635
346.522215	2623.101389
346.913260	2622.463683
347.304241	2619.086110
347.695159	2619.297839
348.086012	2617.581326
348.476802	2614.564195
348.867528	2608.025819
349.258191	2609.638988
349.648789	2607.047835
350.039324	2602.662031
350.429796	2606.649584
350.820203	2605.585900
351.210548	2603.229161
351.600828	2603.093050
351.991045	2600.837133
352.381198	2601.028697
352.771288	2600.806887
353.161314	2599.697833
353.551276	2599.095415
353.941175	2598.492997
354.331010	2598.051896
354.720782	2596.479056
355.110490	2600.990889
355.500135	2600.864860
355.889717	2597.298243
356.279235	2597.386464
356.668689	2596.887389
357.058080	2597.555342
357.447408	2600.312853
357.836672	2598.964345
358.225873	2594.757502
358.615010	2598.069540
359.004084	2604.683534
359.393095	2602.863677
359.782043	2600.592637
360.170927	2605.371651
360.559748	2598.790425
360.948505	2605.427104
361.337199	2604.817124
361.725830	2603.498863
362.114398	2604.877618
362.502903	2604.290324
362.891344	2605.311157
363.279722	2604.249995
363.668037	2606.541199
364.056289	2605.802670
364.444478	2608.154368
364.832603	2608.958432
365.220665	2607.315016
365.608665	2611.373145
365.996601	2609.686879
366.384474	2610.480861
366.772284	2608.741663
367.160031	2609.744852
367.547715	2610.392641
367.935336	2610.546396
368.322893	2608.048504
368.710388	2604.928030
369.097820	2609.356683
369.485189	2608.474482
369.872495	2613.722323
370.259738	2613.727364
370.646918	2615.264916
371.034035	2616.129474
371.421090	2614.107971
371.808081	2614.168465
372.195010	2614.501181
372.581875	2614.783486
372.968678	2614.980091
373.355418	2614.607045
373.742096	2618.098044
374.128710	2617.293980
374.515262	2618.150976
374.901751	2617.019237
375.288177	2619.907818
375.674540	2619.139042
376.060841	2619.668364
376.447079	2620.149794
376.833254	2620.711883
377.219367	2619.655761
377.605417	2621.263889
377.991404	2619.980915
378.377329	2620.076697
378.763191	2623.270268
379.148991	2620.900926
379.534727	2621.422685
379.920402	2620.197685
380.306013	2620.888323
380.691563	2625.800927
381.077049	2623.507202
381.462474	2622.841770
381.847835	2623.960906
382.233134	2624.482666
382.618371	2623.814713
383.003545	2623.149280
383.388657	2625.059878
383.773706	2623.489558
384.158693	2625.785804
384.543618	2625.768160
384.928480	2629.612040
385.313280	2626.496607
385.698017	2628.934004
386.082692	2628.402163
386.467305	2627.308232
386.851856	2633.133286
387.236344	2631.411732
387.620770	2629.170939
388.005133	2629.112965
388.389435	2629.070116
388.773674	2627.724127
389.157851	2631.792339
389.541965	2634.837196
389.926018	2633.879376
390.310008	2635.293420
390.693936	2634.514562
391.077802	2634.663276
391.461606	2635.903400
391.845348	2638.562608
392.229027	2636.717546
392.612645	2639.643936
392.996200	2639.575880
393.379694	2640.926909
393.763125	2640.868936
394.146494	2641.962867
394.529801	2641.877167
394.913047	2643.525624
395.296230	2644.755666
395.679351	2642.996303
396.062410	2646.154586
396.445408	2649.098620
396.828343	2644.924544
397.211217	2645.325316
397.594028	2644.939668
397.976778	2649.307828
398.359466	2648.566778
398.742092	2647.258599
399.124656	2647.669453
399.507158	2648.907056
399.889598	2652.685401
400.271977	2653.441574
400.654294	2654.225473
401.036549	2655.609270
401.418742	2653.275216
401.800874	2655.972233
402.182944	2656.521719
402.564952	2656.680515
402.946898	2655.606749
403.328783	2660.695794
403.710606	2659.243942
404.092367	2664.829540
404.474067	2665.648728
404.855705	2668.320539
405.237282	2671.879594
405.618797	2675.499142
406.000250	2682.715554
406.381642	2690.027748
406.762972	2694.506813
407.144240	2706.182125
407.525447	2718.769887
407.906593	2729.626011
408.287677	2752.432191
408.668700	2772.281735
409.049661	2797.517751
409.430560	2826.585044
409.811399	2851.906760
410.192176	2900.984913
410.572891	2944.003599
410.953545	3003.874863
411.334138	3023.792462
411.714669	3093.509099
412.095139	3127.015128
412.475547	3215.169785
412.855894	3288.488327
413.236180	3390.485993
413.616405	3404.394536
413.996568	3521.261085
414.376670	3600.374433
414.756711	3656.283350
415.136691	3755.238679
415.516609	3891.039802
415.896466	3975.451402
416.276262	4115.706385
416.655997	4197.403324
417.035670	4354.342005
417.415283	4573.675047
417.794834	4690.624775
418.174324	4742.112600
418.553753	4813.649094
418.933121	5059.700251
419.312428	5202.347261
419.691674	5201.336510
420.070859	5539.492068
420.449983	5495.230738
420.829045	5786.478360
421.208047	5771.765752
421.586988	6060.293672
421.965867	6169.873233
422.344686	6342.741961
422.723444	6482.046685
423.102141	6170.722668
423.480777	6756.287975
423.859352	6536.312186
424.237866	7069.232724
424.616319	7064.315078
424.994712	7447.672143
425.373044	7246.484734
425.751314	7684.377001
426.129524	7667.413518
426.507673	7873.475723
426.885762	8079.069100
427.263789	8084.793331
427.641756	8090.106707
428.019662	8267.404088
428.397508	8530.161629
428.775292	8339.331271
429.153016	8745.696162
429.530679	8657.191144
429.908282	8764.822299
430.285824	8558.971823
430.663305	9225.850942
431.040726	8782.002552
431.418086	8815.982449
431.795385	9153.313779
432.172624	9273.699054
432.549802	9234.531809
432.926920	9352.295683
433.303977	9272.799208
433.680974	9489.190737
434.057910	9596.098486
434.434786	9681.417494
434.811601	9565.491121
435.188355	10129.941555
435.565050	9880.669100
435.941683	9835.152522
436.318257	10339.802269
436.694770	10465.589140
437.071222	10551.634074
437.447614	10423.903839
437.823946	10312.479215
438.200218	10483.016409
438.576429	10293.426174
438.952580	10534.209326
439.328670	10609.758578
439.704700	10392.658767
440.080670	10391.738757
440.456580	10964.471807
440.832429	10707.231808
441.208218	10319.793929
441.583947	10660.868316
441.959616	10794.773965
442.335224	10603.071487
442.710773	10760.481516
443.086261	10953.199787
443.461689	10251.272046
443.837057	10879.833354
444.212365	11174.075422
444.587612	10809.824330
444.962800	11057.065200
445.337927	10833.674029
445.712995	10400.001208
446.088002	11500.772438
446.462949	11144.929991
446.837837	11117.682554
447.212664	11128.710078
447.587431	11622.337342
447.962139	12328.971001
448.336786	14579.528600
448.711374	15154.749460
449.085901	13015.891227
449.460369	12614.209568
449.834776	12069.535580
450.209124	12926.408225
450.583412	13332.173219
450.957640	14293.344817
451.331808	13460.982261
451.705917	12428.523707
452.079965	11753.084709
452.453954	12648.121409
452.827883	12276.416972
453.201752	12562.343656
453.575562	12077.251066
453.949311	12495.873522
454.323001	12446.669340
454.696632	12673.990090
455.070202	12962.039101
455.443713	13218.258265
455.817164	13661.078260
456.190556	13669.381041
456.563888	14026.342624
456.937160	14204.116394
457.310373	13539.805743
457.683526	13620.592754
458.056619	13179.721165
458.429653	13311.713696
458.802628	12759.682144
459.175542	13113.583747
459.548398	14065.177153
459.921194	14407.000151
460.293930	14463.088029
460.666607	15353.292783
461.039224	16376.929319
461.411782	17083.767144
461.784280	16974.336297
462.156719	17026.955860
462.529099	16707.387036
462.901419	15633.815351
463.273680	15430.664413
463.645882	15289.738957
464.018024	15023.944120
464.390106	15247.511732
464.762130	15975.847557
465.134094	16720.705764
465.505999	18699.865285
465.877845	21948.011778
466.249631	24799.122035
466.621358	24520.394118
466.993026	23057.242064
467.364634	22508.956090
467.736184	21055.369625
468.107674	20230.417566
468.479105	20367.781446
468.850477	19833.678758
469.221790	19418.562424
469.593043	18747.940248
469.964238	18180.134926
470.335373	17845.482969
470.706449	18278.268548
471.077467	17820.718301
471.448425	19646.384769
471.819324	23657.358662
472.190164	25727.379940
472.560945	22199.111651
472.931667	19804.906372
473.302330	19158.275048
473.672934	18667.871602
474.043479	19017.410086
474.413965	18826.801539
474.784393	18448.962017
475.154761	19137.712182
475.525070	19133.457448
475.895321	18794.144944
476.265513	19387.019924
476.635645	19954.283323
477.005719	19750.008207
477.375734	19927.033366
477.745691	20422.291443
478.115588	20924.191240
478.485427	21460.083538
478.855207	22513.750227
479.224928	24264.275777
479.594591	26484.896484
479.964194	26534.579576
480.333739	26761.595337
480.703226	26316.090927
481.072653	25985.290412
481.442022	26551.966516
481.811333	27464.737996
482.180584	27377.455458
482.549777	26446.908869
482.918912	26089.037358
483.287988	26210.350205
483.657005	25882.884413
484.025964	25618.080163
484.394864	25552.860235
484.763706	25228.772016
485.132489	24650.561752
485.501213	24845.488048
485.869879	24757.310705
486.238487	24558.623709
486.607036	24720.346445
486.975527	24418.078860
487.343959	24734.736418
487.712333	24672.362222
488.080648	24333.367311
488.448905	24814.134591
488.817104	24568.554782
489.185244	25248.271199
489.553326	25214.543359
489.921350	26210.330040
490.289315	28476.817686
490.657222	30267.889236
491.025070	30778.563162
491.392861	30552.848019
491.760593	29707.948113
492.128267	28815.127000
492.495883	27772.434903
492.863440	26895.163228
493.230939	26023.177203
493.598380	25865.260539
493.965763	25465.759179
494.333088	25002.547716
494.700354	24944.471103
495.067563	24828.764020
495.434713	24579.763787
495.801805	24725.148144
496.168839	24515.726010
496.535815	24366.810325
496.902733	24579.552059
497.269593	24247.682819
497.636395	24437.633496
498.003139	24404.959257
498.369825	24158.933305
498.736453	24354.215003
499.103023	24232.256888
499.469535	24240.637806
499.835989	24465.642147
500.202385	24486.086546
500.568723	23996.139324
500.935003	24234.684204
501.301226	23841.257434
501.667390	24684.912174
502.033497	24921.407825
502.399546	24648.305836
502.765537	24209.130595
503.131470	24589.684778
503.497345	24734.736418
503.863163	23951.018477
504.228923	24548.380084
504.594625	24756.390695
504.960269	24279.605926
505.325856	24774.644713
505.691385	24184.738972
506.056856	24783.807010
506.422270	24754.298616
506.787625	24323.766433
507.152924	24739.651543
507.518164	24765.190029
507.883347	24584.091618
508.248472	24261.452731
508.613540	25050.080756
508.978550	24832.096223
509.343503	24833.197715
509.708398	25087.644914
510.073236	25233.674538
510.438016	25441.700272
510.802738	25120.248576
511.167403	25384.145418
511.532010	25082.291208
511.896561	25846.479720
512.261053	25820.439640
512.625488	25663.498438
512.989866	25543.415633
513.354186	25389.138681
513.718449	25506.176630
514.082655	25881.450204
514.446803	25623.847243
514.810894	26086.400834
515.174927	25561.488170
515.538904	25607.702948
515.902822	26098.522289
516.266684	25856.284764
516.630488	25751.912715
516.994235	25731.859005
517.357925	26039.134976
517.721558	26213.483282
518.085133	26305.648177
518.448651	26207.355759
518.812112	25963.164787
519.175516	26160.556207
519.538863	26306.313609
519.902152	26084.132315
520.265385	26372.395574
520.628560	26171.576170
520.991678	26179.715113
521.354739	26247.407727
521.717743	26317.769631
522.080690	26108.080317
522.443580	26445.915762
522.806413	26435.253722
523.169189	26533.982199
523.531908	26564.518989
523.894569	26179.243765
524.257174	26263.942711
524.619722	26438.011233
524.982213	26133.225592
525.344647	26196.232453
525.707025	26325.255745
526.069345	26308.602293
526.431608	26269.636694
526.793815	26454.533615
527.155964	25919.946976
527.518057	26091.484838
527.880093	26005.875963
528.242072	26236.145789
528.603995	25951.897809
528.965860	25745.094554
529.327669	25789.673478
529.689421	25773.675376
530.051117	25611.309893
530.412755	25787.319259
530.774337	25588.397849
531.135862	25470.656660
531.497331	25657.935525
531.858743	25214.389604
532.220098	25697.236360
532.581396	25375.772062
532.942638	25315.618494
533.303824	25410.830766
533.664953	25435.298007
534.026025	25093.235553
534.387040	25321.211654
534.747999	25388.957200
535.108902	25547.642641
535.469748	25030.425297
535.830537	25212.786517
536.191270	25337.078686
536.551947	25208.357863
536.912567	24848.570713
537.273131	25213.716610
537.633638	24915.759212
537.994089	25130.396419
538.354483	24655.854963
538.714821	25158.422714
539.075103	25199.694640
539.435328	24985.075077
539.795497	24550.590630
540.155609	24936.581698
540.515665	25245.548976
540.875665	24464.344049
541.235609	24780.247955
541.595496	24732.480502
541.955328	25081.623256
542.315102	25016.642782
542.674821	24557.615478
543.034483	24432.131076
543.394090	24593.357259
543.753640	24387.279931
544.113134	25022.442630
544.472571	24616.544046
544.831953	24907.486678
545.191278	24537.377766
545.550548	24448.295536
545.909761	24653.495703
546.268918	24885.507248
546.628019	24849.221022
546.987064	24545.733478
547.346053	24305.472086
547.704986	24430.832979
548.063863	24584.910805
548.422684	24589.193266
548.781449	24115.294557
549.140158	24528.875860
549.498811	24091.119704
549.857408	23840.685263
550.215949	24266.975315
550.574434	23957.047697
550.932864	24167.785572
551.291237	24332.485109
551.649555	24190.904303
552.007817	24246.535956
552.366022	24106.921201
552.724173	24147.550380
553.082267	24108.189051
553.440305	24575.574588
553.798288	23818.713394
554.156215	24330.496374
554.514086	24427.543626
554.871902	23819.071316
555.229661	24096.438121
555.587365	23958.297903
555.945014	23829.093130
556.302606	24057.580907
556.660143	24017.798642
557.017625	24258.508697
557.375050	23795.297234
557.732421	24187.312481
558.089735	23990.626822
558.446994	24070.685387
558.804197	24090.303037
559.161345	24022.096225
559.518437	23792.514518
559.875474	23990.425176
560.232455	24167.924203
560.589381	23984.746317
560.946251	23975.452949
561.303065	24293.191835
561.659825	24395.824686
562.016528	23977.857580
562.373177	23725.270566
562.729770	24075.703855
563.086307	23935.123719
563.442789	24098.489871
563.799216	23941.836015
564.155587	23947.446819
564.511904	23931.647843
564.868164	23861.298541
565.224370	23833.625127
565.580520	23761.241720
565.936615	23870.569223
566.292654	23575.233225
566.648638	23856.753941
567.004567	23698.522204
567.360441	23638.746722
567.716260	23369.642368
568.072023	23697.191339
568.427732	23448.168422
568.783385	23226.995358
569.138982	23473.240600
569.494525	23510.638400
569.850013	23248.445468
570.205445	23346.294264
570.560823	23157.838289
570.916145	22907.940732
571.271412	23103.812244
571.626625	22854.227237
571.981782	22956.640798
572.336884	22763.385645
572.691931	22909.624477
573.046923	22635.559627
573.401860	22506.695132
573.756743	22525.307072
574.111570	22429.804933
574.466342	22356.708202
574.821059	22451.391154
575.175722	22152.044918
575.530330	22134.068163
575.884882	22148.440493
576.239380	22072.634142
576.593823	21964.491310
576.948211	21937.440478
577.302544	21783.652518
577.656823	21650.475316
578.011047	21753.304772
578.365216	21622.426336
578.719330	21489.007158
579.073389	21389.709031
579.427394	21531.622552
579.781344	21302.456740
580.135239	21196.905061
580.489080	21165.783497
580.842866	20926.817682
581.196597	21127.228753
581.550273	21091.915470
581.903895	20984.130560
582.257463	21299.658899
582.610975	20823.128709
582.964434	21138.684775
583.317837	20837.243939
583.671186	20929.996129
584.024481	20903.111656
584.377721	20665.466622
584.730906	20737.741645
585.084037	20756.277967
585.437113	20674.681851
585.790135	20862.414421
586.143103	20322.529529
586.496016	20353.255362
586.848874	20584.672049
587.201679	20515.336019
587.554428	20186.027686
587.907124	20518.055722
588.259765	20290.132554
588.612352	20375.953157
588.964884	19940.236148
589.317362	20110.246540
589.669786	20169.711991
590.022155	20201.735921
590.374470	20396.652134
590.726731	20186.854435
591.078937	19960.247008
591.431090	20047.937879
591.783188	19799.172060
592.135232	19768.153840
592.487222	19865.422904
592.839157	19888.304701
593.191038	19769.469582
593.542866	19647.211518
593.894639	19381.953565
594.246358	19591.267314
594.598022	19488.531119
594.949633	19243.402493
595.301190	19210.604746
595.652692	19379.881651
596.004141	19614.277660
596.355535	18940.734136
596.706876	18957.856415
597.058162	18850.958748
597.409395	19083.229911
597.760573	19152.422268
598.111698	18928.879863
598.462768	18866.354432
598.813785	18834.423763
599.164748	18649.332759
599.515657	18693.024439
599.866511	18482.367223
600.217312	18842.940793
600.568060	18361.868522
600.918753	18666.339091
601.269392	18575.507581
601.619978	18355.821658
601.970510	18558.465961
602.320988	18508.566099
602.671412	18713.690649
603.021783	18635.265419
603.372100	18344.055605
603.722363	18486.291761
604.072572	18427.335467
604.422728	18581.183920
604.772830	18340.304987
605.122878	18278.399618
605.472872	18278.772663
605.822813	18260.410260
606.172701	18241.027023
606.522534	18424.462009
606.872314	18455.059292
607.222041	18285.051420
607.571714	18505.296911
607.921333	18341.550152
608.270899	18404.206653
608.620411	18585.599971
608.969870	18351.962655
609.319276	18349.585751
609.668627	18381.284526
610.017926	18523.966824
610.367171	18632.893556
610.716362	18680.043468
611.065500	18488.429210
611.414585	18625.780488
611.763616	18605.817519
612.112594	18555.179128
612.461518	18517.740999
612.810389	18715.248366
613.159207	18580.193334
613.507971	18486.538777
613.856682	18763.202342
614.205340	18688.762143
614.553945	18834.259926
614.902496	18591.160364
615.250994	18815.345517
615.599439	18758.120859
615.947830	18735.778465
616.296169	18791.886507
616.644454	18756.169932
616.992686	18728.718329
617.340864	18947.930383
617.688990	18695.013174
618.037063	18862.571046
618.385082	18709.219146
618.733048	18995.760851
619.080961	18866.170430
619.428821	18903.832890
619.776628	18793.139234
620.124382	18719.545949
620.472083	18762.098329
620.819731	18782.759498
621.167326	18477.862952
621.514868	18523.918933
621.862357	18281.973796
622.209793	18292.691289
622.557176	18127.553171
622.904506	17946.921067
623.251783	17865.544241
623.599007	17629.204866
623.946179	17579.499089
624.293297	17510.941918
624.640363	17257.036642
624.987376	17286.177032
625.334336	17078.347903
625.681243	16914.603665
626.028097	16930.904236
626.374899	16854.737442
626.721647	16723.649798
627.068343	16555.139148
627.414987	16489.304200
627.761577	16464.360571
628.108115	16508.803383
628.454600	16224.585650
628.801032	16310.668393
629.147412	16253.844507
629.493739	16266.278513
629.840014	16080.348156
630.186236	16175.464647
630.532405	15935.044458
630.878521	16135.624408
631.224585	16029.336720
631.570597	15855.293404
631.916556	15890.863786
632.262462	15863.412182
632.608316	15782.327743
632.954117	15724.576285
633.299866	15708.636156
633.645562	15626.762777
633.991206	15389.352157
634.336797	15265.470842
634.682336	15232.216871
635.027823	15109.532830
635.373257	14999.996119
635.718639	14898.215223
636.063968	14842.500391
