Dividing Wavelength (nm)	Counts (n)	Blue Motor Position (mm): 26.000000	Red Motor Position (mm): 0.000000	
326.493990	2201.091278
326.888308	2201.091278
327.282561	2201.091278
327.676750	2159.249701
328.070874	2156.736685
328.464933	2156.290543
328.858929	2160.784732
329.252859	2167.355876
329.646726	2175.295693
330.040528	2186.729030
330.434265	2201.723942
330.827938	2219.768753
331.221547	2235.023284
331.615091	2252.246386
332.008571	2271.589293
332.401986	2288.330965
332.795338	2309.115643
333.188625	2328.443427
333.581847	2345.628720
333.975006	2367.078830
334.368100	2386.527601
334.761129	2401.474622
335.154095	2419.849628
335.546996	2442.040787
335.939833	2479.793988
336.332606	2493.117758
336.725315	2508.407578
337.117960	2520.783610
337.510540	2533.136958
337.903056	2544.540048
338.295508	2552.936090
338.687896	2562.163922
339.080220	2567.331104
339.472480	2575.293607
339.864676	2580.657395
340.256807	2585.869948
340.648875	2591.397573
341.040879	2591.326997
341.432818	2594.742378
341.824694	2599.501228
342.216506	2601.003492
342.608253	2599.118100
342.999937	2602.949377
343.391557	2599.571804
343.783113	2598.639190
344.174605	2597.973758
344.566033	2596.279930
344.957397	2598.089705
345.348697	2597.913264
345.739934	2593.194744
346.131106	2589.875144
346.522215	2588.075452
346.913260	2589.126533
347.304241	2587.004207
347.695159	2586.419433
348.086012	2579.744946
348.476802	2581.441294
348.867528	2576.304358
349.258191	2574.928123
349.648789	2573.138514
350.039324	2573.151117
350.429796	2575.815366
350.820203	2572.155489
351.210548	2568.840930
351.600828	2568.765313
351.991045	2572.233627
352.381198	2567.147102
352.771288	2568.795560
353.161314	2567.278172
353.551276	2566.925292
353.941175	2566.128789
354.331010	2564.016546
354.720782	2566.716084
355.110490	2563.872873
355.500135	2566.653069
355.889717	2565.869170
356.279235	2564.770198
356.668689	2565.014694
357.058080	2563.530074
357.447408	2567.492421
357.836672	2564.482852
358.225873	2566.083419
358.615010	2568.430076
359.004084	2566.254818
359.393095	2568.341856
359.782043	2571.739593
360.170927	2569.241702
360.559748	2568.843451
360.948505	2570.358317
361.337199	2572.102557
361.725830	2568.387226
362.114398	2572.803277
362.502903	2572.152968
362.891344	2571.371589
363.279722	2571.409398
363.668037	2574.111456
364.056289	2575.636405
364.444478	2574.260170
364.832603	2576.952147
365.220665	2573.302351
365.608665	2576.604307
365.996601	2578.172106
366.384474	2576.385017
366.772284	2576.561457
367.160031	2577.214287
367.547715	2575.275963
367.935336	2577.173957
368.322893	2575.936354
368.710388	2575.885942
369.097820	2576.667321
369.485189	2575.596076
369.872495	2582.257961
370.259738	2579.228227
370.646918	2582.326017
371.034035	2580.062538
371.421090	2581.554720
371.808081	2582.575554
372.195010	2582.313414
372.581875	2582.941037
372.968678	2580.992631
373.355418	2582.247879
373.742096	2584.614700
374.128710	2582.038671
374.515262	2582.729309
374.901751	2583.674525
375.288177	2583.266192
375.674540	2584.992787
376.060841	2586.298446
376.447079	2583.215780
376.833254	2586.926069
377.219367	2584.670153
377.605417	2583.498085
377.991404	2584.939855
378.377329	2590.543097
378.763191	2583.354412
379.148991	2584.937334
379.534727	2588.463621
379.920402	2587.641913
380.306013	2585.459094
380.691563	2589.996132
381.077049	2586.273240
381.462474	2587.977150
381.847835	2588.859352
382.233134	2590.855649
382.618371	2589.270206
383.003545	2588.312387
383.388657	2588.725761
383.773706	2591.916812
384.158693	2589.872624
384.543618	2590.832964
384.928480	2588.627459
385.313280	2591.251379
385.698017	2590.321287
386.082692	2591.682398
386.467305	2589.449167
386.851856	2593.023345
387.236344	2592.183993
387.620770	2587.737695
388.005133	2590.117120
388.389435	2591.483272
388.773674	2588.398086
389.157851	2591.258941
389.541965	2594.790269
389.926018	2594.331524
390.310008	2593.787080
390.693936	2595.569128
391.077802	2597.325970
391.461606	2596.126175
391.845348	2594.613829
392.229027	2594.641555
392.612645	2597.083994
392.996200	2597.222626
393.379694	2597.840167
393.763125	2597.073912
394.146494	2600.587596
394.529801	2598.971907
394.913047	2598.440065
395.296230	2597.605754
395.679351	2599.055086
396.062410	2601.046341
396.445408	2598.460229
396.828343	2596.683223
397.211217	2600.958121
397.594028	2598.707246
397.976778	2599.622215
398.359466	2601.714294
398.742092	2601.177411
399.124656	2598.500559
399.507158	2600.252360
399.889598	2603.145982
400.271977	2599.781012
400.654294	2602.543564
401.036549	2602.198245
401.418742	2602.699840
401.800874	2602.583893
402.182944	2601.568101
402.564952	2602.593976
402.946898	2604.020622
403.328783	2604.456682
403.710606	2603.950046
404.092367	2604.005499
404.474067	2604.522217
404.855705	2603.410643
405.237282	2603.844182
405.618797	2604.524737
406.000250	2606.069851
406.381642	2608.091354
406.762972	2606.518514
407.144240	2604.542382
407.525447	2603.582042
407.906593	2601.043821
408.287677	2606.465582
408.668700	2609.160078
409.049661	2606.102619
409.430560	2607.355345
409.811399	2604.008019
410.192176	2610.682507
410.572891	2608.111518
410.953545	2607.390633
411.334138	2608.413988
411.714669	2612.129318
412.095139	2610.062445
412.475547	2610.329626
412.855894	2611.211828
413.236180	2607.733432
413.616405	2613.530759
413.996568	2611.390789
414.376670	2612.368773
414.756711	2608.537496
415.136691	2614.077724
415.516609	2611.534462
415.896466	2614.899432
416.276262	2613.969339
416.655997	2613.835749
417.035670	2612.525049
417.415283	2615.695934
417.794834	2616.184926
418.174324	2612.905656
418.553753	2617.803137
418.933121	2616.812550
419.312428	2616.041253
419.691674	2617.770369
420.070859	2617.457818
420.449983	2615.728702
420.829045	2618.486213
421.208047	2617.437653
421.586988	2618.244238
421.965867	2619.484362
422.344686	2617.394803
422.723444	2618.145935
423.102141	2618.735750
423.480777	2620.159876
423.859352	2618.438322
424.237866	2620.497633
424.616319	2620.016203
424.994712	2619.996039
425.373044	2620.210288
425.751314	2617.939248
426.129524	2618.077880
426.507673	2622.047788
426.885762	2618.924793
427.263789	2625.455608
427.641756	2621.783128
428.019662	2622.521657
428.397508	2625.231277
428.775292	2625.856380
429.153016	2624.757408
429.530679	2629.027266
429.908282	2626.778911
430.285824	2629.208747
430.663305	2627.593057
431.040726	2629.528861
431.418086	2627.073819
431.795385	2627.577934
432.172624	2627.630866
432.549802	2630.935342
432.926920	2630.920219
433.303977	2629.264200
433.680974	2632.697226
434.057910	2634.567494
434.434786	2631.772174
434.811601	2633.672689
435.188355	2634.227216
435.565050	2634.262504
435.941683	2634.171763
436.318257	2633.707977
436.694770	2638.335756
437.071222	2637.284676
437.447614	2640.856333
437.823946	2643.329019
438.200218	2640.843730
438.576429	2643.681900
438.952580	2645.761376
439.328670	2644.813639
439.704700	2643.487816
440.080670	2645.612662
440.456580	2647.646767
440.832429	2652.856800
441.208218	2649.917807
441.583947	2655.745381
441.959616	2657.774446
442.335224	2657.421565
442.710773	2662.079591
443.086261	2664.524551
443.461689	2667.922288
443.837057	2671.776250
444.212365	2678.375121
444.587612	2679.519463
444.962800	2685.331913
445.337927	2694.463963
445.712995	2694.108562
446.088002	2713.791747
446.462949	2722.379353
446.837837	2732.413769
447.212664	2745.490522
447.587431	2763.033738
447.962139	2788.300001
448.336786	2852.105885
448.711374	2889.523850
449.085901	2865.248173
449.460369	2881.674773
449.834776	2891.714231
450.209124	2944.868157
450.583412	2996.933194
450.957640	3073.236099
451.331808	3075.547468
451.705917	3073.873805
452.079965	3083.041143
452.453954	3170.797549
452.827883	3200.172352
453.201752	3271.018208
453.575562	3291.699542
453.949311	3372.073178
454.323001	3432.645162
454.696632	3514.836134
455.070202	3613.143676
455.443713	3709.467523
455.817164	3836.522244
456.190556	3917.475613
456.563888	4053.324627
456.937160	4166.949714
457.310373	4160.358405
457.683526	4249.609513
458.056619	4276.499028
458.429653	4390.668560
458.802628	4407.246394
459.175542	4562.894540
459.548398	4828.197864
459.921194	5022.680538
460.293930	5155.935878
460.666607	5480.195496
461.039224	5853.256004
461.411782	6180.860428
461.784280	6296.078520
462.156719	6454.791687
462.529099	6480.017621
462.901419	6342.900757
463.273680	6417.693836
463.645882	6506.377814
464.018024	6555.571914
464.390106	6772.555779
464.762130	7173.687952
465.134094	7556.125006
465.505999	8415.137622
465.877845	9804.875352
466.249631	11115.401432
466.621358	11253.312278
466.993026	10924.034191
467.364634	10902.752960
467.736184	10557.675897
468.107674	10402.854501
468.479105	10642.994905
468.850477	10618.121852
469.221790	10615.187901
469.593043	10477.824020
469.964238	10439.481004
470.335373	10436.640314
470.706449	10820.917389
471.077467	10741.710780
471.448425	11860.529341
471.819324	14243.921345
472.190164	15681.925603
472.560945	14030.327656
472.931667	12811.636276
473.302330	12613.612191
473.672934	12437.396137
474.043479	12896.660376
474.413965	12956.153553
474.784393	12901.043660
475.154761	13510.899767
475.525070	13706.138614
475.895321	13617.157207
476.265513	14191.120299
476.635645	14731.090891
477.005719	14778.865906
477.375734	15075.273149
477.745691	15613.262567
478.115588	16117.478774
478.485427	16689.566557
478.855207	17639.075446
479.224928	19109.514488
479.594591	20990.381590
479.964194	21260.678177
480.333739	21748.999627
480.703226	21578.548133
481.072653	21523.365143
481.442022	22128.593470
481.811333	23012.496783
482.180584	23181.907278
482.549777	22565.096900
482.918912	22452.001134
483.287988	22693.041384
483.657005	22585.329571
484.025964	22461.090334
484.394864	22592.099840
484.763706	22474.310760
485.132489	22108.756530
485.501213	22366.213298
485.869879	22444.683899
486.238487	22320.837872
486.607036	22615.740331
486.975527	22406.729052
487.343959	22830.553979
487.712333	22902.652561
488.080648	22675.798118
488.448905	23192.067724
488.817104	23028.378938
489.185244	23718.964083
489.553326	23806.526405
489.921350	24750.051444
490.289315	26912.247699
490.657222	28729.944103
491.025070	29294.815473
491.392861	29179.015128
491.760593	28441.718652
492.128267	27671.231219
492.495883	26741.090443
492.863440	25945.223321
493.230939	25133.794157
493.598380	25035.037953
493.965763	24668.009185
494.333088	24288.163284
494.700354	24235.044646
495.067563	24174.460059
495.434713	23955.467295
495.801805	24105.744091
496.168839	23963.495333
496.535815	23807.769049
496.902733	24037.602815
497.269593	23726.150248
497.636395	23942.408186
498.003139	23947.928249
498.369825	23700.838614
498.736453	23903.034254
499.103023	23817.816069
499.469535	23837.905067
499.835989	24035.578791
500.202385	24089.935033
500.568723	23592.607562
500.935003	23879.552559
501.301226	23467.037461
501.667390	24297.071003
502.033497	24553.098604
502.399546	24285.312512
502.765537	23895.177616
503.131470	24271.598053
503.497345	24408.959413
503.863163	23621.294248
504.228923	24264.250571
504.594625	24443.090545
504.960269	23945.833650
505.325856	24462.660304
505.691385	23880.570872
506.056856	24481.010104
506.422270	24455.060765
506.787625	24051.453385
507.152924	24443.924856
507.518164	24475.248065
507.883347	24283.467449
508.248472	23974.071673
508.613540	24748.965075
508.978550	24532.686972
509.343503	24523.229767
509.708398	24798.859895
510.073236	24962.127745
510.438016	25161.331460
510.802738	24848.399314
511.167403	25098.743014
511.532010	24783.025631
511.896561	25578.126498
512.261053	25557.563631
512.625488	25385.665326
512.989866	25283.629852
513.354186	25138.121987
513.718449	25220.507044
514.082655	25617.865914
514.446803	25353.104514
514.810894	25801.172350
515.174927	25288.174452
515.538904	25325.443703
515.902822	25814.402858
516.266684	25558.324846
516.630488	25467.957122
516.994235	25468.161288
517.357925	25738.972073
517.721558	25943.358094
518.085133	26024.891196
518.448651	25944.567971
518.812112	25667.271742
519.175516	25859.112852
519.538863	26040.112960
519.902152	25799.390302
520.265385	26114.432170
520.628560	25882.750822
520.991678	25905.549440
521.354739	25978.172303
521.717743	26036.672372
522.080690	25828.994478
522.443580	26163.580900
522.806413	26173.171695
523.169189	26250.785300
523.531908	26302.215151
523.894569	25920.274651
524.257174	25977.711037
524.619722	26190.689705
524.982213	25873.359152
525.344647	25928.577431
525.707025	26052.672995
526.069345	26056.186679
526.431608	26006.962332
526.793815	26202.629678
527.155964	25643.880788
527.518057	25826.017677
527.880093	25733.240281
528.242072	25973.678114
528.603995	25682.407806
528.965860	25490.985113
529.327669	25533.265270
529.689421	25521.703383
530.051117	25344.295097
530.412755	25532.990527
530.774337	25336.612379
531.135862	25203.276380
531.497331	25415.216570
531.858743	24950.225581
532.220098	25443.293277
532.581396	25107.784323
532.942638	25064.659773
533.303824	25147.516177
533.664953	25184.646796
534.026025	24836.892880
534.387040	25070.842748
534.747999	25132.332222
535.108902	25292.618229
535.469748	24786.902278
535.830537	24989.360058
536.191270	25092.630615
536.551947	24986.834440
536.912567	24654.239274
537.273131	24957.953669
537.633638	24686.401835
537.994089	24887.987495
538.354483	24455.819458
538.714821	24943.104951
539.075103	24983.371167
539.435328	24763.289514
539.795497	24319.683099
540.155609	24728.631581
540.515665	25002.063766
540.875665	24256.761937
541.235609	24532.848289
541.595496	24510.059753
541.955328	24853.773184
542.315102	24768.744042
542.674821	24344.783004
543.034483	24220.667275
543.394090	24389.528285
543.753640	24181.966337
544.113134	24809.821884
544.472571	24409.881944
544.831953	24697.772158
545.191278	24311.193796
545.550548	24247.813889
545.909761	24454.586896
546.268918	24680.980074
546.628019	24632.416119
546.987064	24347.865669
547.346053	24110.528146
547.704986	24233.348298
548.063863	24385.865887
548.422684	24378.566296
548.781449	23932.971146
549.140158	24329.072248
549.498811	23911.137909
549.857408	23654.659124
550.215949	24092.858902
550.574434	23752.729731
550.932864	23988.106246
551.291237	24124.915599
551.649555	23991.161185
552.007817	24045.729155
552.366022	23928.469396
552.724173	23964.506084
553.082267	23910.739657
553.440305	24376.363312
553.798288	23646.394153
554.156215	24171.715151
554.514086	24258.039869
554.871902	23617.518423
555.229661	23915.173352
555.587365	23782.701912
555.945014	23613.329225
556.302606	23893.173757
556.660143	23817.884124
557.017625	24075.673608
557.375050	23612.565490
557.732421	23999.542103
558.089735	23801.510457
558.446994	23875.559965
558.804197	23895.694334
559.161345	23861.091854
559.518437	23592.105967
559.875474	23796.108860
560.232455	23973.557476
560.589381	23814.146109
560.946251	23769.854531
561.303065	24102.217804
561.659825	24191.337842
562.016528	23794.790598
562.373177	23530.621534
562.729770	23889.292068
563.086307	23756.929012
563.442789	23937.523308
563.799216	23745.372167
564.155587	23758.428756
564.511904	23745.856118
564.868164	23678.914636
565.224370	23675.721065
565.580520	23567.963881
565.936615	23707.986970
566.292654	23371.951217
566.648638	23690.347973
567.004567	23516.564277
567.360441	23458.681748
567.716260	23191.114946
568.072023	23510.860211
568.427732	23263.591615
568.783385	23067.286563
569.138982	23291.819556
569.494525	23330.155010
569.850013	23074.462646
570.205445	23177.249252
570.560823	22975.225012
570.916145	22738.908322
571.271412	22913.062544
571.626625	22676.546729
571.981782	22798.918218
572.336884	22592.039346
572.691931	22723.807546
573.046923	22465.370274
573.401860	22351.392306
573.756743	22340.226150
574.111570	22247.242067
574.466342	22203.192465
574.821059	22288.403088
575.175722	21990.957368
575.530330	21967.919294
575.884882	21994.677739
576.239380	21897.086042
576.593823	21787.708127
576.948211	21770.013677
577.302544	21605.972010
577.656823	21494.076039
578.011047	21583.589287
578.365216	21464.711317
578.719330	21333.805155
579.073389	21244.249057
579.427394	21383.919265
579.781344	21155.529790
580.135239	21045.741021
580.489080	21016.116681
580.842866	20785.675456
581.196597	20961.125254
581.550273	20952.386414
581.903895	20840.107315
582.257463	21169.720638
582.610975	20699.219668
582.964434	20983.946558
583.317837	20705.972293
583.671186	20791.364398
584.024481	20755.483986
584.377721	20541.673528
584.730906	20588.515929
585.084037	20615.065166
585.437113	20516.543376
585.790135	20726.535160
586.143103	20195.071516
586.496016	20200.873884
586.848874	20445.831111
587.201679	20386.045547
587.554428	20050.317303
587.907124	20371.365707
588.259765	20169.903555
588.612352	20234.642053
588.964884	19805.428132
589.317362	19988.069136
589.669786	20029.520023
590.022155	20081.544731
590.374470	20262.171794
590.726731	20062.516896
591.078937	19810.733946
591.431090	19919.910215
591.783188	19666.929992
592.135232	19642.359408
592.487222	19741.221476
592.839157	19769.633419
593.191038	19650.866355
593.542866	19537.503408
593.894639	19260.539895
594.246358	19466.150916
594.598022	19384.378360
594.949633	19131.229258
595.301190	19098.892776
595.652692	19253.212578
596.004141	19494.880452
596.355535	18820.442123
596.706876	18839.429629
597.058162	18728.017608
597.409395	18953.924315
597.760573	19040.420433
598.111698	18820.623605
598.462768	18752.313449
598.813785	18714.840032
599.164748	18532.070479
599.515657	18564.953926
599.866511	18367.686014
600.217312	18733.149503
600.568060	18247.701511
600.918753	18558.052586
601.269392	18461.063307
601.619978	18242.204133
601.970510	18460.420559
602.320988	18399.394872
602.671412	18606.727447
603.021783	18503.272888
603.372100	18244.999453
603.722363	18377.352426
604.072572	18327.213110
604.422728	18456.102811
604.772830	18219.292089
605.122878	18166.793512
605.472872	18160.388727
605.822813	18148.093352
606.172701	18114.650338
606.522534	18315.099218
606.872314	18333.091096
607.222041	18159.677924
607.571714	18388.576555
607.921333	18206.089307
608.270899	18289.288510
608.620411	18479.420668
608.969870	18237.508298
609.319276	18236.860510
609.668627	18257.365403
610.017926	18405.817302
610.367171	18519.976751
610.716362	18563.023164
611.065500	18380.238487
611.414585	18511.573147
611.763616	18502.095778
612.112594	18440.999514
612.461518	18419.065454
612.810389	18600.431046
613.159207	18461.915262
613.507971	18372.291108
613.856682	18649.478952
614.205340	18575.187468
614.553945	18726.129696
614.902496	18468.025140
615.250994	18712.216112
615.599439	18645.342685
615.947830	18626.703019
616.296169	18675.939969
616.644454	18645.042737
616.992686	18611.072922
617.340864	18824.860694
617.688990	18588.176001
618.037063	18758.355272
618.385082	18605.096634
618.733048	18886.193893
619.080961	18760.669162
619.428821	18794.545716
619.776628	18683.574796
620.124382	18614.291698
620.472083	18646.292943
620.819731	18673.784875
621.167326	18367.234831
621.514868	18402.684224
621.862357	18170.327361
622.209793	18175.068567
622.557176	18015.901696
622.904506	17828.590063
623.251783	17744.879183
623.599007	17516.025921
623.946179	17456.920913
624.293297	17387.592445
624.640363	17146.766443
624.987376	17175.543870
625.334336	16965.224411
625.681243	16807.630380
626.028097	16812.923592
626.374899	16753.740445
626.721647	16618.093078
627.068343	16440.697394
627.414987	16376.526027
627.761577	16355.506936
628.108115	16399.859007
628.454600	16112.641787
628.801032	16205.308277
629.147412	16141.174718
629.493739	16166.509037
629.840014	15974.259594
630.186236	16071.747947
630.532405	15828.141749
630.878521	16040.036569
631.224585	15924.097592
631.570597	15750.187867
631.916556	15781.553926
632.262462	15764.963489
632.608316	15681.366035
632.954117	15616.829183
633.299866	15614.144769
633.645562	15539.613830
633.991206	15296.612570
634.336797	15160.267003
634.682336	15130.340193
635.027823	15023.727351
635.373257	14907.334670
635.718639	14799.038083
636.063968	14756.344551
636.409245	14505.559750
636.754470	14541.341860
637.099642	14381.189443
637.444762	14152.784845
