Dividing Wavelength (nm)	Counts (n)	Blue Motor Position (mm): 20.100000	Red Motor Position (mm): 0.000000	
326.493990	2187.379339
326.888308	2187.379339
327.282561	2187.379339
327.676750	2142.313944
328.070874	2142.276136
328.464933	2143.085241
328.858929	2145.142032
329.252859	2150.251241
329.646726	2160.507468
330.040528	2172.107163
330.434265	2182.484379
330.827938	2201.154292
331.221547	2219.483927
331.615091	2238.743656
332.008571	2256.937180
332.401986	2273.210024
332.795338	2292.643673
333.188625	2310.126394
333.581847	2330.354024
333.975006	2346.364728
334.368100	2366.468850
334.761129	2385.617673
335.154095	2402.631567
335.546996	2423.872469
335.939833	2458.457305
336.332606	2472.154120
336.725315	2485.364463
337.117960	2497.659838
337.510540	2506.018071
337.903056	2521.196985
338.295508	2527.518592
338.687896	2540.353370
339.080220	2545.480223
339.472480	2551.973229
339.864676	2558.078067
340.256807	2558.587223
340.648875	2566.257339
341.040879	2568.793039
341.432818	2573.604820
341.824694	2575.994327
342.216506	2575.165058
342.608253	2575.885943
342.999937	2575.896025
343.391557	2577.458782
343.783113	2577.766293
344.174605	2575.938875
344.566033	2573.075499
344.957397	2574.940726
345.348697	2571.422001
345.739934	2567.557956
346.131106	2567.830179
346.522215	2566.325394
346.913260	2564.712225
347.304241	2562.610064
347.695159	2563.714077
348.086012	2559.716442
348.476802	2558.098231
348.867528	2552.774773
349.258191	2548.930893
349.648789	2552.621018
350.039324	2546.337219
350.429796	2551.234700
350.820203	2549.941644
351.210548	2547.363094
351.600828	2545.291180
351.991045	2542.662218
352.381198	2543.826725
352.771288	2544.308155
353.161314	2543.148689
353.551276	2540.799512
353.941175	2541.870757
354.331010	2540.547454
354.720782	2540.502084
355.110490	2539.798843
355.500135	2539.902186
355.889717	2540.492001
356.279235	2539.904707
356.668689	2541.522917
357.058080	2542.621889
357.447408	2538.982176
357.836672	2540.975952
358.225873	2541.969059
358.615010	2539.471168
359.004084	2542.884029
359.393095	2546.102806
359.782043	2541.278421
360.170927	2547.108516
360.559748	2545.409647
360.948505	2546.995090
361.337199	2548.298228
361.725830	2546.001982
362.114398	2544.419060
362.502903	2546.566592
362.891344	2550.919628
363.279722	2547.350491
363.668037	2547.849565
364.056289	2550.481048
364.444478	2551.514484
364.832603	2551.075904
365.220665	2550.302087
365.608665	2550.690256
365.996601	2552.159752
366.384474	2553.911553
366.772284	2552.389124
367.160031	2552.920966
367.547715	2553.906512
367.935336	2553.208312
368.322893	2552.016079
368.710388	2549.709751
369.097820	2549.465255
369.485189	2552.810061
369.872495	2554.145967
370.259738	2556.502706
370.646918	2552.926007
371.034035	2555.549928
371.421090	2554.486244
371.808081	2557.440361
372.195010	2558.811554
372.581875	2553.924156
372.968678	2555.320555
373.355418	2557.664692
373.742096	2556.553117
374.128710	2560.379353
374.515262	2559.817265
374.901751	2559.555125
375.288177	2556.742161
375.674540	2558.420865
376.060841	2557.538663
376.447079	2558.307439
376.833254	2560.177707
377.219367	2557.188303
377.605417	2560.258366
377.991404	2558.589744
378.377329	2563.320867
378.763191	2561.087635
379.148991	2561.667368
379.534727	2560.031514
379.920402	2560.926318
380.306013	2562.214333
380.691563	2561.501010
381.077049	2561.599312
381.462474	2560.782646
381.847835	2561.417831
382.233134	2560.913716
382.618371	2561.730383
383.003545	2563.431772
383.388657	2562.294992
383.773706	2563.343552
384.158693	2566.043090
384.543618	2565.831361
384.928480	2563.807338
385.313280	2565.722976
385.698017	2567.789849
386.082692	2564.399673
386.467305	2563.310784
386.851856	2565.475960
387.236344	2564.780281
387.620770	2563.257852
388.005133	2562.703325
388.389435	2567.283213
388.773674	2561.614436
389.157851	2565.712894
389.541965	2565.102914
389.926018	2568.669531
390.310008	2565.460836
390.693936	2568.513255
391.077802	2567.056362
391.461606	2570.557443
391.845348	2569.052658
392.229027	2566.678275
392.612645	2569.410580
392.996200	2569.806311
393.379694	2569.294634
393.763125	2569.987792
394.146494	2568.152812
394.529801	2568.253636
394.913047	2570.537278
395.296230	2571.981569
395.679351	2569.387895
396.062410	2570.940571
396.445408	2571.195149
396.828343	2570.738924
397.211217	2571.719429
397.594028	2570.484346
397.976778	2572.236147
398.359466	2573.118349
398.742092	2571.371589
399.124656	2569.876887
399.507158	2572.853688
399.889598	2573.992989
400.271977	2575.379307
400.654294	2575.248237
401.036549	2573.330078
401.418742	2576.309399
401.800874	2574.315623
402.182944	2573.819069
402.564952	2575.243195
402.946898	2571.948801
403.328783	2575.384348
403.710606	2575.316292
404.092367	2576.387537
404.474067	2575.772517
404.855705	2574.058524
405.237282	2576.604307
405.618797	2575.361662
406.000250	2578.353587
406.381642	2574.970973
406.762972	2574.807136
407.144240	2573.493915
407.525447	2575.817887
407.906593	2571.968966
408.287677	2577.773855
408.668700	2575.487691
409.049661	2578.640933
409.430560	2577.947774
409.811399	2579.026581
410.192176	2577.743608
410.572891	2575.646488
410.953545	2577.665470
411.334138	2580.019689
411.714669	2578.693865
412.095139	2578.093968
412.475547	2580.175964
412.855894	2579.210583
413.236180	2579.510532
413.616405	2582.441963
413.996568	2581.970615
414.376670	2578.162023
414.756711	2581.816860
415.136691	2581.504308
415.516609	2582.825091
415.896466	2579.175295
416.276262	2582.119329
416.655997	2578.988773
417.035670	2585.020513
417.415283	2582.419278
417.794834	2579.142528
418.174324	2581.665625
418.553753	2584.065215
418.933121	2582.449525
419.312428	2583.001531
419.691674	2581.239648
420.070859	2582.978846
420.449983	2583.631675
420.829045	2584.498754
421.208047	2582.157138
421.586988	2584.029927
421.965867	2585.479258
422.344686	2586.467324
422.723444	2585.670822
423.102141	2586.641244
423.480777	2585.726275
423.859352	2583.016655
424.237866	2584.231573
424.616319	2584.619742
424.994712	2584.987746
425.373044	2586.300966
425.751314	2583.578743
426.129524	2582.762076
426.507673	2581.637899
426.885762	2580.554051
427.263789	2586.565627
427.641756	2587.306677
428.019662	2587.364650
428.397508	2586.938672
428.775292	2587.316759
429.153016	2584.808785
429.530679	2587.009248
429.908282	2588.788776
430.285824	2588.957654
430.663305	2587.740216
431.040726	2587.445308
431.418086	2587.883889
431.795385	2589.943200
432.172624	2588.030082
432.549802	2591.657192
432.926920	2589.088724
433.303977	2590.709455
433.680974	2591.170721
434.057910	2589.880186
434.434786	2588.756008
434.811601	2587.982191
435.188355	2592.297419
435.565050	2591.200968
435.941683	2589.330700
436.318257	2589.171903
436.694770	2589.544949
437.071222	2592.494024
437.447614	2592.604929
437.823946	2590.134764
438.200218	2589.524784
438.576429	2590.543097
438.952580	2591.838674
439.328670	2592.325145
439.704700	2592.539394
440.080670	2591.057295
440.456580	2594.485280
440.832429	2595.490990
441.208218	2594.034096
441.583947	2594.790269
441.959616	2596.085846
442.335224	2592.977975
442.710773	2593.792121
443.086261	2592.778849
443.461689	2593.812286
443.837057	2594.329004
444.212365	2595.974941
444.587612	2593.109045
444.962800	2592.945207
445.337927	2591.372367
445.712995	2591.647110
446.088002	2595.478387
446.462949	2595.695157
446.837837	2596.284972
447.212664	2596.179107
447.587431	2595.919488
447.962139	2596.269848
448.336786	2601.058944
448.711374	2596.781525
449.085901	2596.569797
449.460369	2599.765888
449.834776	2596.534509
450.209124	2598.417380
450.583412	2600.774119
450.957640	2598.346803
451.331808	2600.267483
451.705917	2599.533995
452.079965	2599.493666
452.453954	2598.251022
452.827883	2600.839654
453.201752	2596.690784
453.575562	2600.242277
453.949311	2598.568614
454.323001	2600.123810
454.696632	2602.518358
455.070202	2600.176742
455.443713	2600.806887
455.817164	2601.308481
456.190556	2602.838472
456.563888	2603.040118
456.937160	2604.602875
457.310373	2602.125148
457.683526	2602.472988
458.056619	2601.210179
458.429653	2604.146651
458.802628	2603.130858
459.175542	2605.482557
459.548398	2604.824686
459.921194	2605.817793
460.293930	2604.892742
460.666607	2607.204111
461.039224	2608.882815
461.411782	2608.580346
461.784280	2610.637137
462.156719	2609.434821
462.529099	2608.464399
462.901419	2607.670417
463.273680	2607.758638
463.645882	2606.107660
464.018024	2605.727053
464.390106	2603.811414
464.762130	2610.243927
465.134094	2612.358691
465.505999	2614.672580
465.877845	2618.166100
466.249631	2623.214815
466.621358	2619.166769
466.993026	2621.387397
467.364634	2625.879065
467.736184	2619.960751
468.107674	2615.854731
468.479105	2622.468725
468.850477	2618.768518
469.221790	2618.768518
469.593043	2614.113012
469.964238	2616.237858
470.335373	2616.860441
470.706449	2619.897736
471.077467	2618.327417
471.448425	2622.078035
471.819324	2628.732358
472.190164	2630.027935
472.560945	2627.086422
472.931667	2624.860752
473.302330	2621.715072
473.672934	2625.309415
474.043479	2622.914867
474.413965	2625.586678
474.784393	2625.581637
475.154761	2628.891155
475.525070	2625.909312
475.895321	2630.446351
476.265513	2628.167749
476.635645	2632.034314
477.005719	2632.165384
477.375734	2634.965745
477.745691	2636.581435
478.115588	2640.258957
478.485427	2640.654687
478.855207	2646.089051
479.224928	2651.422592
479.594591	2655.034578
479.964194	2658.817964
480.333739	2661.517502
480.703226	2660.985661
481.072653	2667.531599
481.442022	2669.210303
481.811333	2675.186591
482.180584	2677.331602
482.549777	2676.963598
482.918912	2676.136848
483.287988	2686.120854
483.657005	2689.475742
484.025964	2694.295085
484.394864	2696.545960
484.763706	2701.025025
485.132489	2702.300437
485.501213	2711.321582
485.869879	2715.236038
486.238487	2723.465721
486.607036	2725.824981
486.975527	2731.271948
487.343959	2742.964904
487.712333	2750.209042
488.080648	2760.621546
488.448905	2770.403905
488.817104	2781.126439
489.185244	2796.577576
489.553326	2814.269505
489.921350	2839.495439
490.289315	2883.076214
490.657222	2925.643717
491.025070	2947.776903
491.392861	2968.511169
491.760593	2983.400217
492.128267	2987.493633
492.495883	2996.441682
492.863440	3008.525327
493.230939	3014.932634
493.598380	3049.998900
493.965763	3068.903227
494.333088	3086.015424
494.700354	3116.950464
495.067563	3152.505722
495.434713	3180.504291
495.801805	3219.099365
496.168839	3260.300715
496.535815	3296.299595
496.902733	3343.767099
497.269593	3373.940926
497.636395	3431.062240
498.003139	3485.345384
498.369825	3533.392622
498.736453	3586.796085
499.103023	3637.058909
499.469535	3699.755740
499.835989	3770.273920
500.202385	3842.022143
500.568723	3874.774519
500.935003	3953.721509
501.301226	4005.181607
501.667390	4125.639978
502.033497	4238.334973
502.399546	4273.882669
502.765537	4336.052699
503.131470	4436.669088
503.497345	4534.127195
503.863163	4555.635278
504.228923	4700.024007
504.594625	4811.322601
504.960269	4840.697405
505.325856	4996.612731
505.691385	5041.010173
506.056856	5188.095919
506.422270	5311.737779
506.787625	5343.504610
507.152924	5526.657291
507.518164	5612.099807
507.883347	5690.393968
508.248472	5753.141210
508.613540	5988.941181
508.978550	6098.253561
509.343503	6210.331014
509.708398	6380.278392
510.073236	6515.323342
510.438016	6675.437950
510.802738	6768.394306
511.167403	6930.699295
511.532010	7006.563620
511.896561	7293.475850
512.261053	7461.699153
512.625488	7542.818881
512.989866	7662.165677
513.354186	7752.989626
513.718449	7958.537632
514.082655	8161.877614
514.446803	8279.875902
514.810894	8527.288171
515.174927	8549.018065
515.538904	8710.922282
515.902822	8981.826328
516.266684	9102.524154
516.630488	9208.358138
516.994235	9377.115804
517.357925	9600.905226
517.721558	9845.980921
518.085133	10036.307163
518.448651	10170.739613
518.812112	10271.852556
519.175516	10452.429208
519.538863	10718.962573
519.902152	10791.945878
520.265385	11078.076729
520.628560	11173.911584
520.991678	11369.238652
521.354739	11573.312121
521.717743	11779.891044
522.080690	11851.891324
522.443580	12193.598376
522.806413	12336.557937
523.169189	12601.473092
523.531908	12762.832865
523.894569	12818.865290
524.257174	13025.824820
524.619722	13296.996047
524.982213	13320.485304
525.344647	13559.809041
525.707025	13762.034928
526.069345	13966.667965
526.431608	14129.575372
526.793815	14422.635290
527.155964	14273.780099
527.518057	14549.851327
527.880093	14720.433891
528.242072	14946.572491
528.603995	14989.961702
528.965860	15052.391352
529.327669	15306.694878
529.689421	15424.360450
530.051117	15496.050699
530.412755	15808.939994
530.774337	15828.655947
531.135862	15915.918320
531.497331	16200.879624
531.858743	16097.447750
532.220098	16592.355467
532.581396	16496.623955
532.942638	16707.815534
533.303824	16879.068571
533.664953	17060.033391
534.026025	17022.859923
534.387040	17292.634750
534.747999	17559.515956
535.108902	17789.778219
535.469748	17603.905836
535.830537	17910.284481
536.191270	18102.884285
536.551947	18228.260301
536.912567	18089.563036
537.273131	18454.023335
537.633638	18393.307678
537.994089	18717.655517
538.354483	18507.971243
538.714821	19012.651237
539.075103	19205.586277
539.435328	19166.764351
539.795497	18969.536769
540.155609	19422.733979
540.515665	19763.021946
540.875665	19300.914496
541.235609	19639.627102
541.595496	19758.736965
541.955328	20147.387241
542.315102	20206.270439
542.674821	20003.600931
543.034483	20007.424646
543.394090	20235.665407
543.753640	20169.238123
544.113134	20791.543359
544.472571	20596.513720
544.831953	20966.804114
545.191278	20713.458407
545.550548	20794.764657
545.909761	21026.541787
546.268918	21345.598934
546.628019	21393.963764
546.987064	21271.796442
547.346053	21162.683188
547.704986	21347.499449
548.063863	21581.603072
548.422684	21624.447839
548.781449	21358.635358
549.140158	21779.057507
549.498811	21503.475270
549.857408	21331.453457
550.215949	21811.250315
550.574434	21584.219431
550.932864	21852.963343
551.291237	22042.203217
551.649555	22014.018126
552.007817	22123.706072
552.366022	22081.446079
552.724173	22168.020335
553.082267	22168.416065
553.440305	22673.806862
553.798288	22059.912790
554.156215	22602.164504
554.514086	22727.303586
554.871902	22196.782638
555.229661	22516.038911
555.587365	22450.577008
555.945014	22325.286691
556.302606	22650.902379
556.660143	22599.648968
557.017625	22918.287700
557.375050	22514.337522
557.732421	22924.642074
558.089735	22784.694602
558.446994	22878.722204
558.804197	22927.482764
559.161345	22942.454991
559.518437	22705.573693
559.875474	22960.935861
560.232455	23144.822030
560.589381	23043.996433
560.946251	23023.766282
561.303065	23380.921950
561.659825	23477.772598
562.016528	23125.070789
562.373177	22908.535588
562.729770	23257.123814
563.086307	23181.541795
563.442789	23365.538869
563.799216	23213.424572
564.155587	23245.619901
564.511904	23246.358430
564.868164	23191.354401
565.224370	23204.738664
565.580520	23113.997895
565.936615	23267.750567
566.292654	22958.594245
566.648638	23296.464979
567.004567	23132.108240
567.360441	23090.874122
567.716260	22840.379188
568.072023	23182.910468
568.427732	22939.871400
568.783385	22750.699581
569.138982	22977.959838
569.494525	23036.469990
569.850013	22797.834370
570.205445	22902.677767
570.560823	22711.207182
570.916145	22496.169203
571.271412	22665.660357
571.626625	22439.736006
571.981782	22546.283313
572.336884	22375.340307
572.691931	22509.533302
573.046923	22242.551274
573.401860	22136.775263
573.756743	22138.940439
574.111570	22066.168862
574.466342	22003.847598
574.821059	22103.009615
575.175722	21799.572482
575.530330	21801.198254
575.884882	21827.029127
576.239380	21737.783060
576.593823	21631.250876
576.948211	21613.112804
577.302544	21451.707661
577.656823	21333.956390
578.011047	21431.419537
578.365216	21314.308493
578.719330	21206.614323
579.073389	21100.498034
579.427394	21253.035788
579.781344	21034.239629
580.135239	20923.319121
580.489080	20899.955893
580.842866	20659.230715
581.196597	20844.699806
581.550273	20836.336532
581.903895	20726.893082
582.257463	21040.846061
582.610975	20567.159081
582.964434	20868.022704
583.317837	20594.358627
583.671186	20674.399547
584.024481	20635.005450
584.377721	20426.987278
584.730906	20462.179573
585.084037	20509.989876
585.437113	20407.924154
585.790135	20605.091243
586.143103	20088.562017
586.496016	20091.001936
586.848874	20339.684575
587.201679	20285.913108
587.554428	19933.818759
587.907124	20277.232241
588.259765	20059.509847
588.612352	20137.854419
588.964884	19698.316216
589.317362	19876.493278
589.669786	19928.482697
590.022155	19992.359158
590.374470	20155.934518
590.726731	19976.910542
591.078937	19702.258398
591.431090	19820.808692
591.783188	19561.900072
592.135232	19540.591115
592.487222	19640.947885
592.839157	19672.180353
593.191038	19550.252486
593.542866	19447.440674
593.894639	19167.170164
594.246358	19374.535507
594.598022	19296.145565
594.949633	19048.655158
595.301190	18997.003495
595.652692	19164.120266
596.004141	19411.835004
596.355535	18747.940248
596.706876	18753.651876
597.058162	18637.133166
597.409395	18859.851343
597.760573	18962.373289
598.111698	18748.373788
598.462768	18673.278239
598.813785	18618.369992
599.164748	18460.841496
599.515657	18484.623139
599.866511	18277.472045
600.217312	18635.938413
600.568060	18174.151077
600.918753	18478.427561
601.269392	18378.416110
601.619978	18150.792890
601.970510	18369.795737
602.320988	18310.322724
602.671412	18529.318009
603.021783	18423.254653
603.372100	18166.919541
603.722363	18293.470147
604.072572	18223.443479
604.422728	18371.066107
604.772830	18136.259244
605.122878	18075.498216
605.472872	18083.357375
605.822813	18067.437411
606.172701	18013.812137
606.522534	18228.474550
606.872314	18250.378364
607.222041	18072.264316
607.571714	18300.734450
607.921333	18112.273434
608.270899	18200.665025
608.620411	18395.820693
608.969870	18136.065159
609.319276	18153.484866
609.668627	18187.026183
610.017926	18315.850349
610.367171	18429.218338
610.716362	18469.424060
611.065500	18293.316392
611.414585	18424.688861
611.763616	18411.604546
612.112594	18356.736628
612.461518	18325.806628
612.810389	18520.102780
613.159207	18366.264408
613.507971	18282.011604
613.856682	18564.323781
614.205340	18497.856168
614.553945	18639.789854
614.902496	18381.922232
615.250994	18622.914592
615.599439	18559.106187
615.947830	18540.917704
616.296169	18579.086800
616.644454	18550.808448
616.992686	18532.380510
617.340864	18731.133042
617.688990	18499.363473
618.037063	18679.625052
618.385082	18516.987347
618.733048	18797.424215
619.080961	18659.435231
619.428821	18702.380821
619.776628	18596.264532
620.124382	18512.094907
620.472083	18548.050937
620.819731	18579.701821
621.167326	18276.337786
621.514868	18319.996698
621.862357	18068.107885
622.209793	18082.515503
622.557176	17920.356707
622.904506	17752.768588
623.251783	17654.438362
623.599007	17425.965708
623.946179	17373.348665
624.293297	17313.600909
624.640363	17076.281030
624.987376	17089.380468
625.334336	16880.969086
625.681243	16728.078452
626.028097	16733.270840
626.374899	16670.286664
626.721647	16542.107766
627.068343	16363.212339
627.414987	16288.872964
627.761577	16269.832526
628.108115	16318.280535
628.454600	16036.573296
628.801032	16130.948737
629.147412	16064.944910
629.493739	16082.251191
629.840014	15900.716721
630.186236	15989.766183
630.532405	15753.676345
630.878521	15956.726461
631.224585	15842.062896
631.570597	15672.637277
631.916556	15712.686723
632.262462	15692.300297
632.608316	15602.754282
632.954117	15541.226999
633.299866	15542.557863
633.645562	15467.119517
633.991206	15219.266147
634.336797	15085.705817
634.682336	15055.988215
635.027823	14946.098623
635.373257	14834.369009
635.718639	14724.126537
636.063968	14672.666438
636.409245	14430.519654
636.754470	14456.746257
637.099642	14308.236385
637.444762	14081.891098
637.789829	14124.274599
638.134845	13955.191779
638.479808	13985.201768
638.824719	13948.587867
639.169577	13785.244400
