Dividing Wavelength (nm)	Counts (n)	Blue Motor Position (mm): 24.300000	Red Motor Position (mm): 0.000000	
326.493990	2197.897707
326.888308	2197.897707
327.282561	2197.897707
327.676750	2155.930101
328.070874	2151.783752
328.464933	2152.479431
328.858929	2155.476397
329.252859	2160.938487
329.646726	2166.564415
330.040528	2183.117043
330.434265	2198.227902
330.827938	2214.397403
331.221547	2227.736296
331.615091	2249.481313
332.008571	2268.083171
332.401986	2285.777621
332.795338	2303.774540
333.188625	2322.207519
333.581847	2340.925323
333.975006	2361.190762
334.368100	2377.876981
334.761129	2396.080588
335.154095	2415.184040
335.546996	2441.662701
335.939833	2473.936168
336.332606	2484.194916
336.725315	2500.727380
337.117960	2516.319669
337.510540	2525.229908
337.903056	2538.659542
338.295508	2546.927034
338.687896	2554.624876
339.080220	2559.741647
339.472480	2570.517114
339.864676	2574.688668
340.256807	2579.225707
340.648875	2584.294587
341.040879	2585.882551
341.432818	2588.607294
341.824694	2591.558890
342.216506	2591.679878
342.608253	2590.727099
342.999937	2591.742892
343.391557	2594.843202
343.783113	2592.073087
344.174605	2595.095259
344.566033	2593.406473
344.957397	2589.577716
345.348697	2591.175762
345.739934	2590.480083
346.131106	2587.936821
346.522215	2582.641089
346.913260	2583.467838
347.304241	2579.971798
347.695159	2578.842579
348.086012	2578.285532
348.476802	2573.887125
348.867528	2567.762123
349.258191	2566.829510
349.648789	2570.587690
350.039324	2562.761298
350.429796	2568.341856
350.820203	2565.055023
351.210548	2566.947977
351.600828	2564.992009
351.991045	2562.421021
352.381198	2559.918088
352.771288	2561.435475
353.161314	2563.204920
353.551276	2560.618808
353.941175	2558.846842
354.331010	2558.993036
354.720782	2557.369784
355.110490	2560.835578
355.500135	2560.724672
355.889717	2559.908005
356.279235	2561.054868
356.668689	2559.716442
357.058080	2560.427244
357.447408	2559.605536
357.836672	2557.642007
358.225873	2559.255176
358.615010	2561.627039
359.004084	2561.017059
359.393095	2560.197872
359.782043	2561.276679
360.170927	2563.262893
360.559748	2559.280382
360.948505	2566.388409
361.337199	2564.513099
361.725830	2562.683161
362.114398	2563.023438
362.502903	2565.823799
362.891344	2566.131310
363.279722	2564.659293
363.668037	2564.891186
364.056289	2568.777916
364.444478	2568.369582
364.832603	2567.719273
365.220665	2569.269428
365.608665	2568.351938
365.996601	2571.157340
366.384474	2570.960735
366.772284	2571.268246
367.160031	2573.342680
367.547715	2573.188925
367.935336	2571.275807
368.322893	2571.283369
368.710388	2571.031311
369.097820	2569.652556
369.485189	2568.724983
369.872495	2570.943091
370.259738	2572.384861
370.646918	2574.418967
371.034035	2575.591035
371.421090	2574.174471
371.808081	2573.400654
372.195010	2576.231262
372.581875	2573.982907
372.968678	2574.144224
373.355418	2577.607497
373.742096	2575.104564
374.128710	2575.966601
374.515262	2576.609348
374.901751	2576.818556
375.288177	2578.582960
375.674540	2575.805284
376.060841	2580.501119
376.447079	2577.932651
376.833254	2578.754359
377.219367	2580.758218
377.605417	2576.100192
377.991404	2578.144379
378.377329	2577.867116
378.763191	2579.734863
379.148991	2579.535738
379.534727	2577.284863
379.920402	2579.573547
380.306013	2578.706468
380.691563	2578.772003
381.077049	2578.802250
381.462474	2582.373907
381.847835	2581.156469
382.233134	2580.745615
382.618371	2580.942220
383.003545	2582.769638
383.388657	2579.528176
383.773706	2582.683938
384.158693	2582.283167
384.543618	2582.666294
384.928480	2583.813157
385.313280	2584.160997
385.698017	2585.476738
386.082692	2584.087900
386.467305	2586.298446
386.851856	2586.452201
387.236344	2585.522108
387.620770	2581.907601
388.005133	2580.685121
388.389435	2584.458425
388.773674	2581.073290
389.157851	2588.042685
389.541965	2584.549165
389.926018	2585.499423
390.310008	2587.064701
390.693936	2587.354567
391.077802	2588.345154
391.461606	2589.595360
391.845348	2587.052098
392.229027	2587.525967
392.612645	2586.300966
392.996200	2588.473704
393.379694	2588.894640
393.763125	2589.098807
394.146494	2592.304981
394.529801	2590.767429
394.913047	2590.452357
395.296230	2592.360433
395.679351	2590.222984
396.062410	2592.201637
396.445408	2589.610484
396.828343	2592.504106
397.211217	2593.141812
397.594028	2591.750454
397.976778	2590.568303
398.359466	2592.665423
398.742092	2591.410176
399.124656	2591.528643
399.507158	2594.492841
399.889598	2592.705752
400.271977	2594.218098
400.654294	2596.600044
401.036549	2595.632142
401.418742	2593.381267
401.800874	2594.896134
402.182944	2592.100814
402.564952	2595.306988
402.946898	2597.376381
403.328783	2594.714652
403.710606	2597.262955
404.092367	2598.871083
404.474067	2598.029211
404.855705	2594.875969
405.237282	2596.589961
405.618797	2594.603747
406.000250	2599.503748
406.381642	2597.152050
406.762972	2595.037286
407.144240	2594.003849
407.525447	2596.317739
407.906593	2596.181628
408.287677	2599.909561
408.668700	2599.261773
409.049661	2598.492997
409.430560	2597.411669
409.811399	2600.398553
410.192176	2598.387133
410.572891	2599.508789
410.953545	2601.285796
411.334138	2601.341249
411.714669	2602.367124
412.095139	2601.739500
412.475547	2600.617843
412.855894	2601.898296
413.236180	2601.978955
413.616405	2601.459716
413.996568	2601.268152
414.376670	2603.241764
414.756711	2603.219079
415.136691	2605.616147
415.516609	2603.685385
415.896466	2601.943667
416.276262	2602.404932
416.655997	2604.176898
417.035670	2602.777978
417.415283	2607.418360
417.794834	2605.356528
418.174324	2603.042638
418.553753	2605.142279
418.933121	2607.309975
419.312428	2607.350304
419.691674	2606.266456
420.070859	2607.289810
420.449983	2606.130345
420.829045	2607.746035
421.208047	2609.034050
421.586988	2609.273504
421.965867	2607.940119
422.344686	2612.068824
422.723444	2610.927003
423.102141	2610.334667
423.480777	2607.312496
423.859352	2606.936930
424.237866	2611.055552
424.616319	2608.882815
424.994712	2611.410954
425.373044	2611.259719
425.751314	2608.300562
426.129524	2606.397526
426.507673	2607.458689
426.885762	2607.297372
427.263789	2611.975563
427.641756	2612.318361
428.019662	2612.996397
428.397508	2611.418515
428.775292	2610.400202
429.153016	2612.756942
429.530679	2613.465224
429.908282	2612.494802
430.285824	2612.711571
430.663305	2613.974380
431.040726	2616.641151
431.418086	2613.571088
431.795385	2614.223917
432.172624	2613.644185
432.549802	2614.644854
432.926920	2615.211984
433.303977	2616.240379
433.680974	2618.029989
434.057910	2618.962602
434.434786	2615.101078
434.811601	2617.483023
435.188355	2619.287757
435.565050	2618.241717
435.941683	2617.669546
436.318257	2620.263220
436.694770	2617.183075
437.071222	2620.333796
437.447614	2620.328755
437.823946	2620.422016
438.200218	2619.910339
438.576429	2620.815226
438.952580	2622.574589
439.328670	2622.748509
439.704700	2622.778756
440.080670	2623.247583
440.456580	2624.427213
440.832429	2624.122223
441.208218	2623.169445
441.583947	2623.789507
441.959616	2622.456122
442.335224	2628.397122
442.710773	2628.074488
443.086261	2629.871659
443.461689	2626.272275
443.837057	2630.176649
444.212365	2629.899385
444.587612	2628.581124
444.962800	2626.874693
445.337927	2629.816206
445.712995	2627.484673
446.088002	2631.903244
446.462949	2631.754530
446.837837	2635.497587
447.212664	2634.184366
447.587431	2637.299799
447.962139	2638.325674
448.336786	2645.025367
448.711374	2644.690131
449.085901	2642.822383
449.460369	2640.876498
449.834776	2640.442959
450.209124	2643.986890
450.583412	2650.860503
450.957640	2652.272026
451.331808	2653.285298
451.705917	2652.128353
452.079965	2652.902170
452.453954	2658.379384
452.827883	2658.865855
453.201752	2662.918943
453.575562	2663.944818
453.949311	2670.246260
454.323001	2678.261695
454.696632	2679.915193
455.070202	2691.288036
455.443713	2696.737524
455.817164	2705.380582
456.190556	2716.652602
456.563888	2729.822616
456.937160	2742.483474
457.310373	2744.439442
457.683526	2756.558376
458.056619	2763.774787
458.429653	2780.100564
458.802628	2789.525001
459.175542	2808.474699
459.548398	2845.517097
459.921194	2875.557333
460.293930	2905.242167
460.666607	2957.803758
461.039224	3033.395860
461.411782	3094.880293
461.784280	3123.660240
462.156719	3160.876558
462.529099	3187.115764
462.901419	3184.506967
463.273680	3212.918910
463.645882	3250.006679
464.018024	3285.060342
464.390106	3349.103161
464.762130	3459.138946
465.134094	3581.139910
465.505999	3826.235769
465.877845	4231.380701
466.249631	4582.083692
466.621358	4625.475423
466.993026	4580.435234
467.364634	4611.561839
467.736184	4581.231737
468.107674	4594.220270
468.479105	4717.983117
468.850477	4779.381850
469.221790	4827.146783
469.593043	4836.730017
469.964238	4885.142737
470.335373	4934.488072
470.706449	5109.020380
471.077467	5136.668588
471.448425	5565.799330
471.819324	6451.903106
472.190164	7002.639081
472.560945	6515.799731
472.931667	6170.326937
473.302330	6184.258166
473.672934	6196.845927
474.043479	6438.140756
474.413965	6537.028030
474.784393	6602.772238
475.154761	6913.725730
475.525070	7062.699388
475.895321	7111.643951
476.265513	7425.637259
476.635645	7747.696414
477.005719	7863.466512
477.375734	8085.088238
477.745691	8429.804859
478.115588	8736.276766
478.485427	9124.644737
478.855207	9656.524277
479.224928	10460.230393
479.594591	11529.171778
479.964194	11764.833118
480.333739	12146.783701
480.703226	12131.899694
481.072653	12276.724482
481.442022	12774.495575
481.811333	13390.872414
482.180584	13641.334581
482.549777	13435.249692
482.918912	13559.632601
483.287988	13834.919930
483.657005	13938.563533
484.025964	14018.967416
484.394864	14237.420777
484.763706	14324.186596
485.132489	14314.497498
485.501213	14579.876440
485.869879	14804.296006
486.238487	14826.340972
486.607036	15219.883688
486.975527	15240.799435
487.343959	15639.620240
487.712333	15889.054011
488.080648	15839.781774
488.448905	16392.445990
488.817104	16433.256651
489.185244	17059.367959
489.553326	17305.245197
489.921350	18092.691072
490.289315	19804.697165
490.657222	21273.568408
491.025070	21881.357642
491.392861	22006.975634
491.760593	21647.309472
492.128267	21340.782112
492.495883	20807.584311
492.863440	20419.077707
493.230939	19948.397776
493.598380	20048.845287
493.965763	19910.279091
494.333088	19761.202089
494.700354	19876.500839
495.067563	19986.052674
495.434713	19945.920048
495.801805	20183.456697
496.168839	20244.464741
496.535815	20264.510889
496.902733	20559.625077
497.269593	20415.473282
497.636395	20740.670555
498.003139	20860.624811
498.369825	20815.168727
498.736453	21066.772715
499.103023	21091.751632
499.469535	21236.667162
499.835989	21536.530116
500.202385	21687.928569
500.568723	21358.083352
500.935003	21688.949402
501.301226	21431.782501
501.667390	22227.193398
502.033497	22585.669848
502.399546	22415.417480
502.765537	22171.506292
503.131470	22582.998037
503.497345	22811.720228
503.863163	22150.371255
504.228923	22832.663702
504.594625	23069.383683
504.960269	22662.141632
505.325856	23225.364545
505.691385	22722.756466
506.056856	23358.879505
506.422270	23392.998034
506.787625	23060.601993
507.152924	23506.769315
507.518164	23577.857146
507.883347	23437.723151
508.248472	23186.862733
508.613540	23985.119362
508.978550	23815.676099
509.343503	23844.501417
509.708398	24167.951930
510.073236	24325.876156
510.438016	24572.605349
510.802738	24302.457476
511.167403	24563.072527
511.532010	24296.720643
511.896561	25103.799291
512.261053	25085.787249
512.625488	24950.449912
512.989866	24868.337077
513.354186	24759.823720
513.718449	24860.593865
514.082655	25269.363387
514.446803	25029.222982
514.810894	25482.062270
515.174927	24991.336190
515.538904	25029.570822
515.902822	25540.060745
516.266684	25294.498580
516.630488	25216.010335
516.994235	25228.507355
517.357925	25509.236610
517.721558	25718.560441
518.085133	25807.698123
518.448651	25736.002833
518.812112	25474.540869
519.175516	25651.654247
519.538863	25828.525651
519.902152	25618.821212
520.265385	25928.365702
520.628560	25712.115326
520.991678	25744.860141
521.354739	25823.207233
521.717743	25864.252308
522.080690	25671.317268
522.443580	25987.077501
522.806413	26013.014237
523.169189	26107.119977
523.531908	26169.128690
523.894569	25773.267043
524.257174	25831.338614
524.619722	26045.653188
524.982213	25726.873304
525.344647	25809.477651
525.707025	25918.343889
526.069345	25925.492245
526.431608	25874.074996
526.793815	26073.606386
527.155964	25517.831777
527.518057	25693.624374
527.880093	25616.807271
528.242072	25853.091193
528.603995	25560.036317
528.965860	25360.588107
529.327669	25416.716313
529.689421	25417.870738
530.051117	25232.015998
530.412755	25414.183134
530.774337	25228.824948
531.135862	25084.524440
531.497331	25292.330883
531.858743	24823.296888
532.220098	25317.269472
532.581396	25003.334136
532.942638	24965.109587
533.303824	25030.833631
533.664953	25065.927623
534.026025	24724.452464
534.387040	24966.747962
534.747999	25031.718353
535.108902	25194.318250
535.469748	24673.133518
535.830537	24871.616348
536.191270	24978.924869
536.551947	24890.220726
536.912567	24560.060437
537.273131	24856.676889
537.633638	24569.434463
537.994089	24783.212154
538.354483	24342.806871
538.714821	24841.371946
539.075103	24873.035433
539.435328	24669.508929
539.795497	24221.052924
540.155609	24635.977694
540.515665	24918.874645
540.875665	24165.083513
541.235609	24427.165540
541.595496	24413.700618
541.955328	24767.140955
542.315102	24682.661299
542.674821	24245.348765
543.034483	24132.048832
543.394090	24290.469612
543.753640	24068.026178
544.113134	24712.653644
544.472571	24315.884589
544.831953	24601.508804
545.191278	24210.892478
545.550548	24142.476459
545.909761	24351.243242
546.268918	24572.776748
546.628019	24538.176789
546.987064	24249.603498
547.346053	24014.474001
547.704986	24127.935250
548.063863	24297.229799
548.422684	24273.377580
548.781449	23852.897458
549.140158	24239.498506
549.498811	23824.654394
549.857408	23547.353124
550.215949	24000.555375
550.574434	23681.982178
550.932864	23892.253746
551.291237	24029.763820
551.649555	23915.082612
552.007817	23955.074085
552.366022	23834.774510
552.724173	23880.906109
553.082267	23806.571775
553.440305	24278.355719
553.798288	23565.476072
554.156215	24080.225770
554.514086	24163.989583
554.871902	23537.359036
555.229661	23823.389064
555.587365	23688.036604
555.945014	23524.864536
556.302606	23796.186998
556.660143	23720.562129
557.017625	23990.891483
557.375050	23527.362428
557.732421	23918.036728
558.089735	23731.476227
558.446994	23786.606285
558.804197	23806.168483
559.161345	23770.764459
559.518437	23505.415765
559.875474	23714.931160
560.232455	23891.840372
560.589381	23724.761410
560.946251	23697.435835
561.303065	24017.816286
561.659825	24095.752524
562.016528	23708.481003
562.373177	23438.433954
562.729770	23809.185613
563.086307	23671.670498
563.442789	23847.311860
563.799216	23672.797196
564.155587	23686.370503
564.511904	23671.272247
564.868164	23588.897273
565.224370	23577.365633
565.580520	23482.322239
565.936615	23623.872798
566.292654	23280.907978
566.648638	23609.568524
567.004567	23427.610596
567.360441	23374.741495
567.716260	23106.862142
568.072023	23427.686214
568.427732	23189.257281
568.783385	22971.940700
569.138982	23202.044168
569.494525	23252.329677
569.850013	22985.786229
570.205445	23089.071910
570.560823	22894.896746
570.916145	22660.662053
571.271412	22826.677332
571.626625	22589.859047
571.981782	22697.936345
572.336884	22503.904854
572.691931	22638.112972
573.046923	22377.087067
573.401860	22260.386876
573.756743	22256.583325
574.111570	22178.841171
574.466342	22110.881376
574.821059	22188.946164
575.175722	21905.393863
575.530330	21881.776058
575.884882	21911.218917
576.239380	21814.443886
576.593823	21703.644366
576.948211	21694.716482
577.302544	21538.836444
577.656823	21410.897000
578.011047	21496.740288
578.365216	21379.059593
578.719330	21262.785380
579.073389	21156.530459
579.427394	21307.523099
579.781344	21091.814647
580.135239	20969.327211
580.489080	20934.737334
580.842866	20699.718742
581.196597	20888.000797
581.550273	20870.865915
581.903895	20774.148858
582.257463	21075.672872
582.610975	20604.667786
582.964434	20915.656567
583.317837	20622.972216
583.671186	20712.598890
584.024481	20688.408913
584.377721	20455.976433
584.730906	20506.682879
585.084037	20539.402488
585.437113	20442.718198
585.790135	20647.754528
586.143103	20114.287025
586.496016	20129.450816
586.848874	20371.884946
587.201679	20309.712395
587.554428	19969.285797
587.907124	20307.854730
588.259765	20084.750905
588.612352	20169.510345
588.964884	19729.314271
589.317362	19908.071065
589.669786	19948.266706
590.022155	20017.650627
590.374470	20180.217756
590.726731	19987.844804
591.078937	19738.547144
591.431090	19852.134422
591.783188	19588.136757
592.135232	19564.886956
592.487222	19658.286933
592.839157	19691.119968
593.191038	19566.941226
593.542866	19463.325350
593.894639	19182.235652
594.246358	19394.871522
594.598022	19302.862902
594.949633	19068.245082
595.301190	19012.719293
595.652692	19180.856897
596.004141	19428.974927
596.355535	18757.301671
596.706876	18771.479916
597.058162	18658.013626
597.409395	18886.115755
597.760573	18976.745619
598.111698	18750.591895
598.462768	18687.164098
598.813785	18652.365013
599.164748	18468.272157
599.515657	18497.324326
599.866511	18295.448800
600.217312	18658.621085
600.568060	18188.893931
600.918753	18493.314088
601.269392	18391.702071
601.619978	18179.711469
601.970510	18389.368017
602.320988	18321.859405
602.671412	18537.099030
603.021783	18438.970450
603.372100	18168.701589
603.722363	18305.780645
604.072572	18245.581706
604.422728	18383.989105
604.772830	18148.231984
605.122878	18096.398840
605.472872	18087.811235
605.822813	18079.319411
606.172701	18038.944810
606.522534	18243.882837
606.872314	18255.021267
607.222041	18089.459692
607.571714	18313.939752
607.921333	18145.799627
608.270899	18211.987457
608.620411	18409.391480
608.969870	18157.177512
609.319276	18156.575094
609.668627	18194.136731
610.017926	18333.938009
610.367171	18454.797152
610.716362	18486.614395
611.065500	18309.357343
611.414585	18433.639430
611.763616	18420.759282
612.112594	18372.606180
612.461518	18349.827726
612.810389	18533.161889
613.159207	18389.292399
613.507971	18293.520558
613.856682	18572.563547
614.205340	18513.508951
614.553945	18642.456625
614.902496	18389.935146
615.250994	18634.705851
615.599439	18572.114885
615.947830	18555.678203
616.296169	18607.284494
616.644454	18572.780317
616.992686	18547.261996
617.340864	18748.895547
617.688990	18516.962141
618.037063	18688.603347
618.385082	18530.026291
618.733048	18813.787800
619.080961	18680.247635
619.428821	18715.966730
619.776628	18618.732955
620.124382	18533.713895
620.472083	18566.519204
620.819731	18596.468699
621.167326	18292.328326
621.514868	18326.837544
621.862357	18092.184436
622.209793	18105.367053
622.557176	17942.154656
622.904506	17767.035054
623.251783	17679.263524
623.599007	17438.273685
623.946179	17392.956232
624.293297	17331.008013
624.640363	17086.081033
624.987376	17107.720186
625.334336	16901.776449
625.681243	16744.593272
626.028097	16755.285559
626.374899	16686.872060
626.721647	16552.737039
627.068343	16390.704272
627.414987	16316.251471
627.761577	16281.936336
628.108115	16333.532546
628.454600	16050.592745
628.801032	16148.111346
629.147412	16080.559884
629.493739	16100.243069
629.840014	15918.713640
630.186236	16013.731828
630.532405	15776.830365
630.878521	15979.504914
631.224585	15868.586927
631.570597	15690.273753
631.916556	15724.369597
632.262462	15706.917123
632.608316	15617.471930
632.954117	15564.837243
633.299866	15564.456636
633.645562	15482.767258
633.991206	15243.037708
634.336797	15108.776657
634.682336	15072.687037
635.027823	14965.849863
635.373257	14852.151680
635.718639	14741.155554
636.063968	14697.655438
636.409245	14450.333909
636.754470	14472.514986
637.099642	14328.673223
637.444762	14098.277369
637.789829	14142.354697
