Dividing Wavelength (nm)	Counts (n)	Blue Motor Position (mm): 12.700000	Red Motor Position (mm): 0.000000	
326.493990	2166.110711
326.888308	2166.110711
327.282561	2166.110711
327.676750	2125.625204
328.070874	2123.102107
328.464933	2122.834926
328.858929	2124.909361
329.252859	2131.805659
329.646726	2140.829324
330.040528	2151.793834
330.434265	2162.445792
330.827938	2184.886488
331.221547	2199.606658
331.615091	2217.938814
332.008571	2235.285424
332.401986	2252.410224
332.795338	2273.300765
333.188625	2292.351286
333.581847	2311.162351
333.975006	2327.016780
334.368100	2345.769872
334.761129	2364.389374
335.154095	2380.999976
335.546996	2400.264745
335.939833	2426.032603
336.332606	2445.040274
336.725315	2456.438323
337.117960	2466.828141
337.510540	2479.229379
337.903056	2490.871924
338.295508	2499.416680
338.687896	2509.219203
339.080220	2517.123733
339.472480	2522.303518
339.864676	2527.233767
340.256807	2534.182997
340.648875	2536.358255
341.040879	2537.391692
341.432818	2543.594832
341.824694	2545.696993
342.216506	2547.005172
342.608253	2547.282436
342.999937	2549.833259
343.391557	2546.329658
343.783113	2546.526263
344.174605	2545.787733
344.566033	2546.211190
344.957397	2545.346633
345.348697	2541.336395
345.739934	2539.937474
346.131106	2540.781868
346.522215	2538.107536
346.913260	2535.672658
347.304241	2531.586803
347.695159	2531.775846
348.086012	2531.707791
348.476802	2525.832326
348.867528	2525.814682
349.258191	2520.672705
349.648789	2519.871162
350.039324	2516.175996
350.429796	2523.210926
350.820203	2517.703465
351.210548	2517.700945
351.600828	2517.428722
351.991045	2515.833197
352.381198	2515.908815
352.771288	2514.948475
353.161314	2511.253309
353.551276	2513.872188
353.941175	2511.225583
354.331010	2511.792712
354.720782	2510.824811
355.110490	2511.913700
355.500135	2511.039060
355.889717	2511.780110
356.279235	2510.141735
356.668689	2513.622651
357.058080	2511.026457
357.447408	2511.974194
357.836672	2513.035357
358.225873	2513.632734
358.615010	2513.655419
359.004084	2513.184071
359.393095	2513.751201
359.782043	2515.215656
360.170927	2513.524349
360.559748	2516.090296
360.948505	2513.960409
361.337199	2514.265398
361.725830	2515.175327
362.114398	2517.960564
362.502903	2515.845800
362.891344	2519.997190
363.279722	2519.782941
363.668037	2519.298991
364.056289	2518.638599
364.444478	2518.900739
364.832603	2519.465349
365.220665	2522.762263
365.608665	2521.970802
365.996601	2521.607839
366.384474	2523.674712
366.772284	2524.050278
367.160031	2523.538601
367.547715	2523.341996
367.935336	2526.351565
368.322893	2522.999198
368.710388	2520.836543
369.097820	2523.606657
369.485189	2519.961902
369.872495	2526.313756
370.259738	2526.704446
370.646918	2528.327697
371.034035	2527.228726
371.421090	2526.240659
371.808081	2529.245187
372.195010	2524.236801
372.581875	2529.144364
372.968678	2525.088756
373.355418	2525.900382
373.742096	2528.794004
374.128710	2528.995650
374.515262	2528.390712
374.901751	2528.299971
375.288177	2528.544467
375.674540	2530.578572
376.060841	2528.446164
376.447079	2529.330887
376.833254	2531.072605
377.219367	2530.951618
377.605417	2533.978831
377.991404	2529.814838
378.377329	2532.375744
378.763191	2529.920702
379.148991	2530.772657
379.534727	2532.683254
379.920402	2532.111083
380.306013	2531.475898
380.691563	2533.242822
381.077049	2529.913140
381.462474	2532.310209
381.847835	2532.151412
382.233134	2532.204344
382.618371	2534.495549
383.003545	2534.122503
383.388657	2533.825075
383.773706	2532.773995
384.158693	2534.354397
384.543618	2535.861702
384.928480	2533.134437
385.313280	2537.762217
385.698017	2533.557894
386.082692	2537.237937
386.467305	2536.751465
386.851856	2535.450848
387.236344	2538.120138
387.620770	2532.630322
388.005133	2533.477236
388.389435	2534.361958
388.773674	2531.024714
389.157851	2537.449665
389.541965	2534.772812
389.926018	2539.483771
390.310008	2537.442103
390.693936	2536.983358
391.077802	2534.866074
391.461606	2536.748945
391.845348	2536.801877
392.229027	2539.846734
392.612645	2539.960160
392.996200	2537.459747
393.379694	2536.660724
393.763125	2540.076106
394.146494	2537.706764
394.529801	2538.795653
394.913047	2541.832948
395.296230	2542.105171
395.679351	2541.023843
396.062410	2544.005686
396.445408	2538.808256
396.828343	2542.599204
397.211217	2539.871939
397.594028	2540.323123
397.976778	2542.069883
398.359466	2541.114584
398.742092	2541.974101
399.124656	2538.813297
399.507158	2541.593493
399.889598	2542.236241
400.271977	2541.064172
400.654294	2543.579708
401.036549	2541.870757
401.418742	2544.605583
401.800874	2542.148020
402.182944	2544.048535
402.564952	2544.658515
402.946898	2539.962680
403.328783	2545.644061
403.710606	2545.911242
404.092367	2544.285470
404.474067	2542.808412
404.855705	2544.008206
405.237282	2541.631302
405.618797	2545.359235
406.000250	2546.773279
406.381642	2544.124153
406.762972	2542.185829
407.144240	2540.456713
407.525447	2544.502239
407.906593	2540.560057
408.287677	2544.446787
408.668700	2544.625747
409.049661	2547.365615
409.430560	2545.719678
409.811399	2548.688917
410.192176	2546.715306
410.572891	2548.031047
410.953545	2545.230686
411.334138	2549.661860
411.714669	2545.079451
412.095139	2547.574822
412.475547	2551.149001
412.855894	2548.104144
413.236180	2547.947868
413.616405	2548.119267
413.996568	2547.612631
414.376670	2546.949719
414.756711	2548.865358
415.136691	2549.561037
415.516609	2548.212528
415.896466	2547.355532
416.276262	2549.308979
416.655997	2548.018444
417.035670	2546.369987
417.415283	2550.687735
417.794834	2549.419885
418.174324	2550.017262
418.553753	2550.319731
418.933121	2549.122457
419.312428	2549.886192
419.691674	2550.665050
420.070859	2553.276367
420.449983	2550.954916
420.829045	2549.261088
421.208047	2549.699669
421.586988	2550.052550
421.965867	2549.704710
422.344686	2553.669577
422.723444	2552.265616
423.102141	2552.794937
423.480777	2551.879968
423.859352	2550.574309
424.237866	2553.619166
424.616319	2551.534649
424.994712	2552.409289
425.373044	2553.891388
425.751314	2548.421736
426.129524	2547.048022
426.507673	2548.693959
426.885762	2547.839483
427.263789	2550.657488
427.641756	2554.261913
428.019662	2554.042623
428.397508	2553.344423
428.775292	2554.080432
429.153016	2554.082952
429.530679	2552.212684
429.908282	2554.967675
430.285824	2552.472303
430.663305	2555.444064
431.040726	2555.028168
431.418086	2552.129505
431.795385	2555.693601
432.172624	2552.953734
432.549802	2555.227294
432.926920	2556.043961
433.303977	2554.352654
433.680974	2554.201419
434.057910	2554.178734
434.434786	2554.420709
434.811601	2553.611604
435.188355	2555.025648
435.565050	2553.656975
435.941683	2555.912891
436.318257	2553.578837
436.694770	2554.297201
437.071222	2555.794424
437.447614	2556.389280
437.823946	2554.380380
438.200218	2554.004814
438.576429	2554.950031
438.952580	2557.291647
439.328670	2553.994732
439.704700	2552.159752
440.080670	2556.558159
440.456580	2556.250648
440.832429	2558.383056
441.208218	2557.445402
441.583947	2557.954558
441.959616	2556.553118
442.335224	2558.325083
442.710773	2558.609908
443.086261	2556.197716
443.461689	2557.911708
443.837057	2559.285423
444.212365	2553.810730
444.587612	2555.179403
444.962800	2552.598332
445.337927	2555.156718
445.712995	2550.871737
446.088002	2557.228632
446.462949	2557.226112
446.837837	2558.483879
447.212664	2556.941286
447.587431	2561.420352
447.962139	2559.280382
448.336786	2557.299208
448.711374	2557.788200
449.085901	2559.391287
449.460369	2555.325597
449.834776	2558.718293
450.209124	2556.933725
450.583412	2558.604867
450.957640	2562.453788
451.331808	2561.397666
451.705917	2559.323232
452.079965	2561.163253
452.453954	2561.190979
452.827883	2560.598643
453.201752	2559.366081
453.575562	2562.327759
453.949311	2558.166287
454.323001	2558.357851
454.696632	2560.696946
455.070202	2560.850701
455.443713	2560.558314
455.817164	2561.546380
456.190556	2560.749878
456.563888	2560.160063
456.937160	2557.314332
457.310373	2560.517985
457.683526	2562.390774
458.056619	2562.748696
458.429653	2561.352296
458.802628	2560.848181
459.175542	2559.408931
459.548398	2561.175856
459.921194	2561.543860
460.293930	2561.793397
460.666607	2561.737944
461.039224	2560.684343
461.411782	2563.182235
461.784280	2564.170301
462.156719	2564.553429
462.529099	2562.146278
462.901419	2562.436144
463.273680	2560.520506
463.645882	2559.078736
464.018024	2559.915567
464.390106	2559.282902
464.762130	2562.831875
465.134094	2562.869683
465.505999	2563.754406
465.877845	2563.504869
466.249631	2564.505538
466.621358	2564.618964
466.993026	2566.365723
467.364634	2570.980900
467.736184	2565.090312
468.107674	2563.951011
468.479105	2565.135682
468.850477	2564.865980
469.221790	2565.601989
469.593043	2565.491083
469.964238	2566.312791
470.335373	2569.367731
470.706449	2566.700960
471.077467	2566.552246
471.448425	2565.579303
471.819324	2570.098698
472.190164	2568.896383
472.560945	2568.687175
472.931667	2569.397977
473.302330	2565.725497
473.672934	2562.978068
474.043479	2564.019066
474.413965	2568.041907
474.784393	2568.924109
475.154761	2566.947977
475.525070	2566.388409
475.895321	2569.292113
476.265513	2568.709860
476.635645	2567.129458
477.005719	2569.660117
477.375734	2569.513924
477.745691	2569.347566
478.115588	2570.207083
478.485427	2569.168605
478.855207	2571.674058
479.224928	2571.409398
479.594591	2569.851681
479.964194	2568.346897
480.333739	2571.835375
480.703226	2572.382341
481.072653	2573.267063
481.442022	2573.473750
481.811333	2570.673389
482.180584	2570.504511
482.549777	2571.278328
482.918912	2568.525858
483.287988	2572.384861
483.657005	2573.282187
484.025964	2571.613565
484.394864	2572.256312
484.763706	2572.773030
485.132489	2571.371589
485.501213	2573.052814
485.869879	2573.922413
486.238487	2575.270922
486.607036	2576.425346
486.975527	2574.212279
487.343959	2573.592218
487.712333	2574.056004
488.080648	2573.141034
488.448905	2574.257650
488.817104	2574.986097
489.185244	2574.960891
489.553326	2577.647826
489.921350	2573.483833
490.289315	2577.163875
490.657222	2577.549523
491.025070	2577.476427
491.392861	2577.602455
491.760593	2575.487691
492.128267	2577.010120
492.495883	2576.758062
492.863440	2579.422312
493.230939	2575.838052
493.598380	2575.979204
493.965763	2575.097002
494.333088	2578.078844
494.700354	2574.058524
495.067563	2574.640777
495.434713	2574.860068
495.801805	2576.634554
496.168839	2576.884091
496.535815	2574.960891
496.902733	2577.277301
497.269593	2576.574060
497.636395	2577.196642
498.003139	2577.526838
498.369825	2573.241857
498.736453	2575.210428
499.103023	2575.223031
499.469535	2577.778896
499.835989	2576.478278
500.202385	2574.701271
500.568723	2573.703123
500.935003	2573.420818
501.301226	2572.014336
501.667390	2575.477609
502.033497	2577.128587
502.399546	2576.163206
502.765537	2574.547516
503.131470	2576.405181
503.497345	2576.475758
503.863163	2578.489698
504.228923	2576.120356
504.594625	2580.601942
504.960269	2575.432239
505.325856	2578.305696
505.691385	2577.226889
506.056856	2580.463310
506.422270	2580.012127
506.787625	2578.933320
507.152924	2581.141345
507.518164	2577.693196
507.883347	2581.224524
508.248472	2582.061356
508.613540	2582.988928
508.978550	2581.058166
509.343503	2581.847107
509.708398	2584.458425
510.073236	2582.515060
510.438016	2584.902046
510.802738	2584.037488
511.167403	2585.514546
511.532010	2583.263671
511.896561	2583.752663
512.261053	2586.260637
512.625488	2586.875658
512.989866	2585.312900
513.354186	2587.969588
513.718449	2587.163004
514.082655	2590.427151
514.446803	2590.938828
514.810894	2590.540577
515.174927	2592.259610
515.538904	2589.600402
515.902822	2593.524940
516.266684	2593.303129
516.630488	2592.461256
516.994235	2590.190217
517.357925	2591.150556
517.721558	2599.528954
518.085133	2594.213057
518.448651	2593.411514
518.812112	2593.288006
519.175516	2597.741865
519.538863	2594.313880
519.902152	2596.216916
520.265385	2599.677668
520.628560	2603.113214
520.991678	2600.229674
521.354739	2602.188163
521.717743	2602.152875
522.080690	2605.104470
522.443580	2603.539192
522.806413	2604.275200
523.169189	2607.055397
523.531908	2610.155706
523.894569	2609.447424
524.257174	2610.344750
524.619722	2606.868874
524.982213	2610.024636
525.344647	2608.847527
525.707025	2609.719647
526.069345	2610.314503
526.431608	2612.711571
526.793815	2612.038577
527.155964	2613.303907
527.518057	2612.588063
527.880093	2616.152159
528.242072	2615.693414
528.603995	2616.663836
528.965860	2617.503188
529.327669	2615.753908
529.689421	2617.072169
530.051117	2622.383025
530.412755	2620.235493
530.774337	2623.456791
531.135862	2623.169445
531.497331	2623.076184
531.858743	2625.488376
532.220098	2625.354785
532.581396	2626.244549
532.942638	2626.347892
533.303824	2629.107924
533.664953	2627.804786
534.026025	2630.481639
534.387040	2629.801083
534.747999	2632.414921
535.108902	2633.468522
535.469748	2632.488018
535.830537	2631.820065
536.191270	2634.386012
536.551947	2631.948614
536.912567	2631.673872
537.273131	2636.281486
537.633638	2635.046403
537.994089	2637.839203
538.354483	2637.965232
538.714821	2641.990593
539.075103	2641.045377
539.435328	2641.975469
539.795497	2640.369862
540.155609	2643.865902
540.515665	2639.258288
540.875665	2643.311375
541.235609	2644.934627
541.595496	2646.814977
541.955328	2642.683752
542.315102	2649.179278
542.674821	2648.881850
543.034483	2643.739873
543.394090	2648.627272
543.753640	2649.237252
544.113134	2652.675318
544.472571	2651.662047
544.831953	2654.238076
545.191278	2655.321924
545.550548	2652.138436
545.909761	2657.111534
546.268918	2658.689415
546.628019	2659.846360
546.987064	2656.309990
547.346053	2659.206133
547.704986	2660.516833
548.063863	2659.770742
548.422684	2666.200734
548.781449	2664.776608
549.140158	2663.412976
549.498811	2665.011022
549.857408	2664.448933
550.215949	2667.193842
550.574434	2665.162257
550.932864	2669.469922
551.291237	2671.803977
551.649555	2675.010151
552.007817	2674.500994
552.366022	2675.093330
552.724173	2674.024605
553.082267	2672.350942
553.440305	2678.644822
553.798288	2676.202383
554.156215	2683.391069
554.514086	2680.361335
554.871902	2677.356808
555.229661	2684.124557
555.587365	2680.472241
555.945014	2686.277129
556.302606	2687.930628
556.660143	2692.883562
557.017625	2694.126206
557.375050	2693.569158
557.732421	2696.603933
558.089735	2696.336752
558.446994	2698.897658
558.804197	2702.310519
559.161345	2703.391847
559.518437	2700.069726
559.875474	2704.916796
560.232455	2705.952753
560.589381	2709.557178
560.946251	2707.026519
561.303065	2717.607901
561.659825	2718.734598
562.016528	2716.950030
562.373177	2719.246276
562.729770	2722.081925
563.086307	2724.922615
563.442789	2727.082749
563.799216	2730.523337
564.155587	2732.774212
564.511904	2738.163205
564.868164	2733.938718
565.224370	2742.738052
565.580520	2741.273597
565.936615	2749.039495
566.292654	2744.933475
566.648638	2755.776997
567.004567	2754.448653
567.360441	2757.599374
567.716260	2759.336052
568.072023	2766.000457
568.427732	2768.848709
568.783385	2772.062444
569.138982	2776.662497
569.494525	2783.581481
569.850013	2790.452574
570.205445	2791.034827
570.560823	2791.150773
570.916145	2796.915333
571.271412	2801.875828
571.626625	2808.953608
571.981782	2817.362253
572.336884	2816.815288
572.691931	2824.656802
573.046923	2819.030875
573.401860	2826.459015
573.756743	2845.285204
574.111570	2846.898373
574.466342	2852.637727
574.821059	2862.417565
575.175722	2861.421937
575.530330	2869.787732
575.884882	2877.009185
576.239380	2887.036040
576.593823	2892.425034
576.948211	2898.149264
577.302544	2904.841396
577.656823	2906.265522
578.011047	2921.973757
578.365216	2925.137081
578.719330	2937.026642
579.073389	2943.436469
579.427394	2963.394398
579.781344	2959.520271
580.135239	2969.957980
580.489080	2980.385607
580.842866	2987.286946
581.196597	3014.736029
581.550273	3012.381810
581.903895	3032.884183
582.257463	3050.341698
582.610975	3056.070970
582.964434	3073.193249
583.317837	3084.848397
583.671186	3104.400512
584.024481	3122.440281
584.377721	3123.597226
584.730906	3138.014926
585.084037	3155.858090
585.437113	3166.734379
585.790135	3185.459745
586.143103	3190.379911
586.496016	3200.815100
586.848874	3235.258783
587.201679	3240.216758
587.554428	3251.977770
587.907124	3282.370887
588.259765	3298.590799
588.612352	3328.240345
588.964884	3327.380829
589.317362	3353.088193
589.669786	3375.072665
590.022155	3396.537898
590.374470	3429.378494
590.726731	3439.982562
591.078937	3448.875157
591.431090	3476.041935
591.783188	3479.364055
592.135232	3499.178311
592.487222	3538.879918
592.839157	3553.801733
593.191038	3576.446596
593.542866	3585.235848
593.894639	3604.838375
594.246358	3644.313130
594.598022	3653.699758
594.949633	3668.921522
595.301190	3681.751259
595.652692	3720.953792
596.004141	3758.212960
596.355535	3743.298706
596.706876	3770.528499
597.058162	3791.857621
597.409395	3821.008093
597.760573	3862.721120
598.111698	3869.390567
598.462768	3894.412334
598.813785	3917.783123
599.164748	3928.956841
599.515657	3959.130667
599.866511	3972.673727
600.217312	4027.327396
600.568060	4016.544368
600.918753	4081.950819
601.269392	4111.708750
601.619978	4109.770426
601.970510	4175.948173
602.320988	4196.745453
602.671412	4249.889297
603.021783	4269.043161
603.372100	4277.121610
603.722363	4329.542049
604.072572	4358.097665
604.422728	4394.489754
604.772830	4422.170730
605.122878	4430.004683
605.472872	4480.028053
605.822813	4524.606976
606.172701	4554.823652
606.522534	4610.329277
606.872314	4644.641890
607.222041	4652.879136
607.571714	4723.815732
607.921333	4756.300927
608.270899	4799.828770
608.620411	4876.111510
608.969870	4860.753635
609.319276	4909.831788
609.668627	4972.412672
610.017926	5023.582904
610.367171	5078.105504
610.716362	5148.999250
611.065500	5153.359848
611.414585	5216.049117
611.763616	5258.929172
612.112594	5305.093538
612.461518	5323.249254
612.810389	5407.554990
613.159207	5411.260238
613.507971	5450.717349
613.856682	5570.848045
614.205340	5596.736891
614.553945	5695.157858
614.902496	5665.006717
615.250994	5783.131034
615.599439	5810.265044
615.947830	5854.135686
616.296169	5899.538838
616.644454	5964.844465
616.992686	5982.075129
617.340864	6091.866419
617.688990	6111.400890
618.037063	6215.047013
618.385082	6230.639302
618.733048	6338.895560
619.080961	6362.115115
619.428821	6437.409789
619.776628	6483.266645
620.124382	6496.257698
620.472083	6564.109108
620.819731	6626.475743
621.167326	6590.766730
621.514868	6637.747763
621.862357	6640.961499
622.209793	6688.991092
622.557176	6690.185845
622.904506	6670.669018
623.251783	6697.805549
623.599007	6706.181427
623.946179	6732.216466
624.293297	6759.630260
624.640363	6749.127016
624.987376	6783.187572
625.334336	6763.085971
625.681243	6768.404388
626.028097	6817.212840
626.374899	6876.151490
626.721647	6846.625452
627.068343	6846.307859
627.414987	6878.692232
627.761577	6934.956550
628.108115	7003.085223
628.454600	6945.293436
628.801032	7006.374576
629.147412	7037.710389
629.493739	7089.765343
629.840014	7086.246618
630.186236	7154.198851
630.532405	7125.746579
630.878521	7239.371666
631.224585	7250.252997
631.570597	7258.449913
631.916556	7284.653830
632.262462	7320.667833
632.608316	7366.905297
632.954117	7382.777369
633.299866	7432.389885
633.645562	7447.304139
633.991206	7393.888073
634.336797	7364.493104
634.682336	7423.923267
635.027823	7409.508088
635.373257	7429.980213
635.718639	7406.465751
636.063968	7432.972138
636.409245	7386.243163
636.754470	7429.851664
637.099642	7417.919253
637.444762	7352.623708
637.789829	7422.577279
638.134845	7400.184474
638.479808	7446.227852
638.824719	7460.206972
639.169577	7436.200997
639.514383	7494.015470
639.859137	7457.686395
640.203839	7536.993827
640.548489	7488.228226
640.893086	7549.546300
641.237632	7489.750654
641.582125	7634.746842
641.926566	7590.835871
642.270955	7627.164946
642.615292	7648.173955
642.959576	7686.975716
643.303809	7755.779904
643.647990	7741.707523
643.992118	7830.091553
644.336195	7731.259732
