Dividing Wavelength (nm)	Counts (n)	Blue Motor Position (mm): 5.700000	Red Motor Position (mm): 0.000000	
326.493990	2158.869093
326.888308	2158.869093
327.282561	2158.869093
327.676750	2116.871241
328.070874	2113.781013
328.464933	2114.852259
328.858929	2115.968874
329.252859	2125.554628
329.646726	2132.624847
330.040528	2145.270581
330.434265	2158.057468
330.827938	2177.090344
331.221547	2193.277489
331.615091	2210.372042
332.008571	2227.960628
332.401986	2248.553741
332.795338	2265.791967
333.188625	2283.705707
333.581847	2302.839406
333.975006	2322.283137
334.368100	2340.201918
334.761129	2356.308404
335.154095	2372.407329
335.546996	2390.966337
335.939833	2406.634243
336.332606	2419.597570
336.725315	2438.771599
337.117960	2448.206118
337.510540	2458.585854
337.903056	2468.343007
338.295508	2478.309369
338.687896	2486.904536
339.080220	2494.466267
339.472480	2502.461537
339.864676	2508.921775
340.256807	2512.125429
340.648875	2513.105933
341.040879	2518.449556
341.432818	2523.155473
341.824694	2524.877027
342.216506	2524.234280
342.608253	2526.485155
342.999937	2525.920546
343.391557	2528.478932
343.783113	2524.725793
344.174605	2524.075484
344.566033	2525.567665
344.957397	2524.317459
345.348697	2522.240504
345.739934	2521.305370
346.131106	2517.799247
346.522215	2518.671367
346.913260	2514.756911
347.304241	2511.550737
347.695159	2515.177847
348.086012	2511.482682
348.476802	2508.087464
348.867528	2503.941115
349.258191	2502.088491
349.648789	2502.111177
350.039324	2498.431134
350.429796	2499.676299
350.820203	2498.267297
351.210548	2499.537668
351.600828	2497.221257
351.991045	2496.011380
352.381198	2493.324445
352.771288	2493.788232
353.161314	2495.519868
353.551276	2490.894609
353.941175	2490.214053
354.331010	2491.355875
354.720782	2491.721358
355.110490	2494.131030
355.500135	2491.091214
355.889717	2490.458549
356.279235	2490.224136
356.668689	2489.394866
357.058080	2493.803355
357.447408	2493.072388
357.836672	2492.868221
358.225873	2494.037769
358.615010	2491.600371
359.004084	2491.920484
359.393095	2492.535505
359.782043	2491.214723
360.170927	2494.080618
360.559748	2496.064313
360.948505	2495.056082
361.337199	2498.259735
361.725830	2496.064312
362.114398	2497.579179
362.502903	2496.893582
362.891344	2498.592451
363.279722	2497.871566
363.668037	2500.689571
364.056289	2497.702687
364.444478	2501.463388
364.832603	2497.811072
365.220665	2502.264932
365.608665	2500.142606
365.996601	2501.339880
366.384474	2498.350476
366.772284	2501.654952
367.160031	2504.727535
367.547715	2503.300889
367.935336	2502.963132
368.322893	2501.382730
368.710388	2503.137051
369.097820	2501.637308
369.485189	2500.331649
369.872495	2505.030005
370.259738	2504.747700
370.646918	2506.257526
371.034035	2506.244923
371.421090	2506.998575
371.808081	2506.239882
372.195010	2509.466220
372.581875	2506.912876
372.968678	2510.073679
373.355418	2507.248112
373.742096	2507.212824
374.128710	2507.147289
374.515262	2508.589059
374.901751	2507.618637
375.288177	2507.459841
375.674540	2508.694923
376.060841	2509.360356
376.447079	2506.978411
376.833254	2508.127794
377.219367	2509.685510
377.605417	2511.830521
377.991404	2507.653925
378.377329	2508.798267
378.763191	2511.165089
379.148991	2510.880264
379.534727	2509.698113
379.920402	2511.913700
380.306013	2512.130470
380.691563	2510.671056
381.077049	2512.410254
381.462474	2512.155676
381.847835	2508.841117
382.233134	2510.603000
382.618371	2511.686848
383.003545	2512.586694
383.388657	2513.925121
383.773706	2513.529390
384.158693	2514.572909
384.543618	2511.868330
384.928480	2512.528721
385.313280	2515.029133
385.698017	2515.815553
386.082692	2515.140039
386.467305	2516.745646
386.851856	2515.792868
387.236344	2514.678773
387.620770	2512.042250
388.005133	2511.212980
388.389435	2513.360511
388.773674	2510.923113
389.157851	2516.912004
389.541965	2515.971829
389.926018	2517.673218
390.310008	2513.136180
390.693936	2517.670698
391.077802	2514.507374
391.461606	2517.859741
391.845348	2518.787313
392.229027	2518.447036
392.612645	2518.746984
392.996200	2519.094824
393.379694	2518.215142
393.763125	2520.019876
394.146494	2517.955523
394.529801	2520.153466
394.913047	2518.391583
395.296230	2518.094155
395.679351	2518.981398
396.062410	2522.548014
396.445408	2518.764628
396.828343	2520.443333
397.211217	2518.197498
397.594028	2519.188085
397.976778	2518.772190
398.359466	2522.190092
398.742092	2521.791841
399.124656	2520.521470
399.507158	2519.291429
399.889598	2520.990298
400.271977	2519.611542
400.654294	2522.187572
401.036549	2522.129598
401.418742	2520.718075
401.800874	2523.037006
402.182944	2521.360823
402.564952	2521.096162
402.946898	2521.789321
403.328783	2521.882582
403.710606	2523.609177
404.092367	2522.207736
404.474067	2522.853004
404.855705	2522.492562
405.237282	2525.552542
405.618797	2521.741430
406.000250	2524.014990
406.381642	2522.560617
406.762972	2520.783610
407.144240	2519.883764
407.525447	2521.932993
407.906593	2519.069618
408.287677	2523.969620
408.668700	2526.190248
409.049661	2524.995494
409.430560	2526.268386
409.811399	2525.570186
410.192176	2525.338293
410.572891	2525.822244
410.953545	2524.801410
411.334138	2526.941380
411.714669	2524.667819
412.095139	2526.003725
412.475547	2527.059847
412.855894	2528.252080
413.236180	2526.931297
413.616405	2529.154446
413.996568	2527.783253
414.376670	2527.931967
414.756711	2529.139323
415.136691	2529.953469
415.516609	2528.458767
415.896466	2525.393746
416.276262	2529.197296
416.655997	2527.379960
417.035670	2527.879034
417.415283	2529.703932
417.794834	2528.662934
418.174324	2526.671678
418.553753	2527.382481
418.933121	2531.160826
419.312428	2530.863398
419.691674	2530.331556
420.070859	2531.123017
420.449983	2528.413397
420.829045	2528.347862
421.208047	2529.600588
421.586988	2529.736700
421.965867	2531.538912
422.344686	2530.492873
422.723444	2529.613191
423.102141	2531.380116
423.480777	2530.213089
423.859352	2532.214427
424.237866	2528.541946
424.616319	2530.392050
424.994712	2530.896165
425.373044	2532.065713
425.751314	2529.774508
426.129524	2527.077491
426.507673	2534.019160
426.885762	2526.951462
427.263789	2531.483459
427.641756	2531.009591
428.019662	2528.965403
428.397508	2531.846422
428.775292	2532.675692
429.153016	2533.842719
429.530679	2533.184849
429.908282	2533.847761
430.285824	2534.742565
430.663305	2534.505631
431.040726	2533.686444
431.418086	2529.633356
431.795385	2533.454551
432.172624	2534.737524
432.549802	2533.966228
432.926920	2532.879859
433.303977	2533.162164
433.680974	2535.287010
434.057910	2532.254756
434.434786	2535.370189
434.811601	2531.745599
435.188355	2535.428162
435.565050	2534.616537
435.941683	2533.336083
436.318257	2531.957328
436.694770	2534.399767
437.071222	2533.202493
437.447614	2532.632842
437.823946	2534.906403
438.200218	2534.871115
438.576429	2536.252391
438.952580	2534.792977
439.328670	2534.999664
439.704700	2535.390354
440.080670	2535.506300
440.456580	2535.511341
440.832429	2536.534696
441.208218	2535.836496
441.583947	2536.680889
441.959616	2535.458409
442.335224	2534.878677
442.710773	2537.379089
443.086261	2537.522762
443.461689	2535.576876
443.837057	2537.981507
444.212365	2534.341794
444.587612	2534.210724
444.962800	2532.600075
445.337927	2532.526978
445.712995	2529.953469
446.088002	2534.795498
446.462949	2536.567463
446.837837	2538.069727
447.212664	2535.042514
447.587431	2536.091074
447.962139	2538.553678
448.336786	2540.633154
448.711374	2537.457227
449.085901	2537.616023
449.460369	2533.817514
449.834776	2538.120138
450.209124	2535.380271
450.583412	2535.725590
450.957640	2538.722556
451.331808	2539.075437
451.705917	2535.435724
452.079965	2537.900848
452.453954	2537.787422
452.827883	2537.802546
453.201752	2539.700540
453.575562	2536.915303
453.949311	2537.553009
454.323001	2540.779347
454.696632	2539.161137
455.070202	2539.763555
455.443713	2538.215920
455.817164	2540.517207
456.190556	2538.105015
456.563888	2541.684234
456.937160	2538.462937
457.310373	2537.550488
457.683526	2540.645757
458.056619	2539.408153
458.429653	2537.048893
458.802628	2539.761034
459.175542	2539.256919
459.548398	2540.943185
459.921194	2538.520910
460.293930	2538.190715
460.666607	2541.696837
461.039224	2541.666590
461.411782	2539.062834
461.784280	2541.200283
462.156719	2539.695499
462.529099	2542.833617
462.901419	2541.984183
463.273680	2537.426980
463.645882	2536.811959
464.018024	2540.403781
464.390106	2536.355735
464.762130	2539.672814
465.134094	2536.716177
465.505999	2540.040818
465.877845	2541.084337
466.249631	2542.584080
466.621358	2540.305479
466.993026	2540.038297
467.364634	2546.483413
467.736184	2543.456200
468.107674	2541.240613
468.479105	2540.441590
468.850477	2541.217927
469.221790	2542.153062
469.593043	2542.253885
469.964238	2541.817825
470.335373	2540.363452
470.706449	2543.146169
471.077467	2542.024512
471.448425	2540.509645
471.819324	2540.769265
472.190164	2544.131714
472.560945	2541.485109
472.931667	2541.071734
473.302330	2540.789429
473.672934	2545.102137
474.043479	2540.106353
474.413965	2541.346477
474.784393	2543.189019
475.154761	2541.197763
475.525070	2541.661549
475.895321	2540.766744
476.265513	2542.362269
476.635645	2543.995603
477.005719	2542.127856
477.375734	2541.119625
477.745691	2545.074410
478.115588	2543.216745
478.485427	2542.359749
478.855207	2543.831766
479.224928	2545.434853
479.594591	2540.403781
479.964194	2543.360418
480.333739	2540.716333
480.703226	2543.310006
481.072653	2545.591128
481.442022	2542.410160
481.811333	2540.839841
482.180584	2541.666590
482.549777	2541.096940
482.918912	2538.546116
483.287988	2544.383772
483.657005	2542.115253
484.025964	2544.348484
484.394864	2543.650284
484.763706	2542.863864
485.132489	2543.499050
485.501213	2543.405788
485.869879	2541.134748
486.238487	2544.945861
486.607036	2541.880839
486.975527	2545.512991
487.343959	2546.478372
487.712333	2542.072403
488.080648	2543.365459
488.448905	2545.702034
488.817104	2545.684390
489.185244	2546.763197
489.553326	2544.068700
489.921350	2545.702034
490.289315	2544.484595
490.657222	2542.705068
491.025070	2546.009544
491.392861	2544.587939
491.760593	2545.208001
492.128267	2545.994421
492.495883	2545.150027
492.863440	2542.372352
493.230939	2543.264636
493.598380	2544.257743
493.965763	2544.305634
494.333088	2546.322096
494.700354	2542.750438
495.067563	2545.699513
495.434713	2542.657177
495.801805	2544.996272
496.168839	2546.594318
496.535815	2546.170861
496.902733	2544.837476
497.269593	2547.138763
497.636395	2544.643392
498.003139	2545.346633
498.369825	2545.802857
498.736453	2545.583567
499.103023	2546.553989
499.469535	2545.598690
499.835989	2545.472661
500.202385	2543.332692
500.568723	2541.258257
500.935003	2543.113401
501.301226	2542.765562
501.667390	2544.073741
502.033497	2544.671118
502.399546	2548.179761
502.765537	2545.621375
503.131470	2544.333361
503.497345	2545.480223
503.863163	2543.098278
504.228923	2544.519883
504.594625	2546.145655
504.960269	2545.664225
505.325856	2545.823022
505.691385	2544.189688
506.056856	2546.362425
506.422270	2545.989380
506.787625	2547.574822
507.152924	2547.458876
507.518164	2548.330996
507.883347	2546.337219
508.248472	2547.431150
508.613540	2545.712116
508.978550	2545.883515
509.343503	2548.552806
509.708398	2549.601366
510.073236	2545.707075
510.438016	2545.923845
510.802738	2547.511808
511.167403	2544.587939
511.532010	2545.946530
511.896561	2549.324103
512.261053	2547.350491
512.625488	2544.890408
512.989866	2546.806047
513.354186	2546.803526
513.718449	2546.281767
514.082655	2548.799823
514.446803	2546.700182
514.810894	2544.368649
515.174927	2547.292518
515.538904	2547.015254
515.902822	2546.042312
516.266684	2545.951571
516.630488	2547.917621
516.994235	2546.206149
517.357925	2548.391489
517.721558	2549.102292
518.085133	2547.658002
518.448651	2545.064328
518.812112	2543.899821
519.175516	2544.910573
519.538863	2542.437887
519.902152	2548.336037
520.265385	2548.086500
520.628560	2547.529452
520.991678	2545.709596
521.354739	2550.765873
521.717743	2548.146993
522.080690	2548.275543
522.443580	2548.517518
522.806413	2547.171530
523.169189	2548.842673
523.531908	2547.902497
523.894569	2549.800492
524.257174	2546.528783
524.619722	2548.898125
524.982213	2549.424926
525.344647	2548.953578
525.707025	2548.777138
526.069345	2548.318393
526.431608	2547.032898
526.793815	2548.797302
527.155964	2547.607590
527.518057	2546.281767
527.880093	2546.669935
528.242072	2546.911911
528.603995	2548.121788
528.965860	2547.350491
529.327669	2546.168341
529.689421	2546.223793
530.051117	2549.417364
530.412755	2545.540717
530.774337	2547.176571
531.135862	2546.001982
531.497331	2548.051212
531.858743	2549.082127
532.220098	2548.726726
532.581396	2548.663712
532.942638	2548.825029
533.303824	2547.768907
533.664953	2549.639175
534.026025	2549.167827
534.387040	2544.910573
534.747999	2548.409133
535.108902	2548.409133
535.469748	2549.840821
535.830537	2548.363763
536.191270	2549.518187
536.551947	2547.350491
536.912567	2543.055428
537.273131	2546.632127
537.633638	2543.279759
537.994089	2549.477858
538.354483	2549.424926
538.714821	2551.302756
539.075103	2547.267312
539.435328	2548.308310
539.795497	2551.055739
540.155609	2548.643547
540.515665	2549.601366
540.875665	2552.109340
541.235609	2548.066335
541.595496	2550.140770
541.955328	2547.995759
542.315102	2549.089689
542.674821	2551.156562
543.034483	2549.878630
543.394090	2548.550286
543.753640	2551.101110
544.113134	2548.394010
544.472571	2549.795451
544.831953	2550.602035
545.191278	2550.871737
545.550548	2548.018444
545.909761	2548.827549
546.268918	2549.553475
546.628019	2547.136242
546.987064	2550.483568
547.346053	2547.035419
547.704986	2548.101623
548.063863	2549.392158
548.422684	2547.121119
548.781449	2550.959957
549.140158	2550.226469
549.498811	2550.622200
549.857408	2550.985163
550.215949	2548.489792
550.574434	2552.242931
550.932864	2547.574822
551.291237	2552.583209
551.649555	2549.371994
552.007817	2548.119267
552.366022	2550.551624
552.724173	2547.970553
553.082267	2549.319062
553.440305	2547.458876
553.798288	2550.491130
554.156215	2548.330996
554.514086	2548.479710
554.871902	2545.467620
555.229661	2547.272353
555.587365	2543.980480
555.945014	2550.428116
556.302606	2552.003476
556.660143	2549.235883
557.017625	2549.530790
557.375050	2548.789741
557.732421	2550.596994
558.089735	2549.445091
558.446994	2550.831408
558.804197	2547.574823
559.161345	2551.136398
559.518437	2551.017931
559.875474	2550.496171
560.232455	2549.578681
560.589381	2551.675801
560.946251	2549.901315
561.303065	2552.767211
561.659825	2548.802343
562.016528	2550.692776
562.373177	2549.314021
562.729770	2548.668753
563.086307	2550.818805
563.442789	2552.726882
563.799216	2552.230328
564.155587	2550.755791
564.511904	2553.306614
564.868164	2550.526418
565.224370	2550.927190
565.580520	2550.037426
565.936615	2551.958106
566.292654	2550.662529
566.648638	2552.263096
567.004567	2551.083466
567.360441	2550.612118
567.716260	2550.670091
568.072023	2553.530946
568.427732	2550.614638
568.783385	2551.554813
569.138982	2550.176058
569.494525	2549.321582
569.850013	2549.029195
570.205445	2550.223949
570.560823	2551.123795
570.916145	2551.882488
571.271412	2551.166645
571.626625	2549.777807
571.981782	2551.199412
572.336884	2548.943496
572.691931	2546.115408
573.046923	2549.629093
573.401860	2545.074410
573.756743	2551.136398
574.111570	2550.750749
574.466342	2549.293856
574.821059	2550.004659
575.175722	2550.052550
575.530330	2551.020451
575.884882	2552.908363
576.239380	2548.497354
576.593823	2551.234700
576.948211	2550.896943
577.302544	2549.566078
577.656823	2548.333516
578.011047	2551.769062
578.365216	2548.729247
578.719330	2551.136398
579.073389	2553.223435
579.427394	2552.981460
579.781344	2552.797458
580.135239	2550.304607
580.489080	2551.890050
580.842866	2553.765359
581.196597	2551.330482
581.550273	2551.585060
581.903895	2551.648075
582.257463	2553.430123
582.610975	2554.118240
582.964434	2550.816284
583.317837	2551.038095
583.671186	2551.171686
584.024481	2550.629762
584.377721	2551.033054
584.730906	2549.064483
585.084037	2553.883827
585.437113	2550.019782
585.790135	2551.212015
586.143103	2550.168496
586.496016	2554.392983
586.848874	2551.436346
587.201679	2552.121943
587.554428	2552.726882
587.907124	2551.912735
588.259765	2552.762170
588.612352	2551.902653
588.964884	2549.208156
589.317362	2552.182437
589.669786	2552.174875
590.022155	2548.749411
590.374470	2548.643547
590.726731	2551.474155
591.078937	2546.591797
591.431090	2550.302087
591.783188	2549.175389
592.135232	2553.924156
592.487222	2551.816953
592.839157	2552.333672
593.191038	2552.830225
593.542866	2550.566747
593.894639	2551.353167
594.246358	2551.708569
594.598022	2546.944678
594.949633	2552.958775
595.301190	2552.293342
595.652692	2551.204453
596.004141	2550.874258
596.355535	2550.009700
596.706876	2553.261244
597.058162	2549.346788
597.409395	2549.553475
597.760573	2551.771583
598.111698	2551.267468
598.462768	2549.931562
598.813785	2551.368291
599.164748	2552.915925
599.515657	2549.447611
599.866511	2552.197561
600.217312	2549.586243
600.568060	2548.341078
600.918753	2551.867365
601.269392	2550.375183
601.619978	2554.087993
601.970510	2549.908877
602.320988	2551.441387
602.671412	2551.275029
603.021783	2548.167158
603.372100	2551.096068
603.722363	2549.934083
604.072572	2549.825698
604.422728	2552.895760
604.772830	2549.840821
605.122878	2553.014227
605.472872	2549.767724
605.822813	2552.472303
606.172701	2549.901315
606.522534	2548.676315
606.872314	2552.205122
607.222041	2550.506253
607.571714	2548.139432
607.921333	2546.264122
608.270899	2549.631613
608.620411	2547.020296
608.969870	2551.179247
609.319276	2556.313663
609.668627	2561.296843
610.017926	2559.386246
610.367171	2564.182904
610.716362	2566.519479
611.065500	2562.869683
611.414585	2560.906154
611.763616	2556.132181
612.112594	2558.027655
612.461518	2552.404248
612.810389	2555.272664
613.159207	2555.554969
613.507971	2556.238045
613.856682	2552.454659
614.205340	2551.824515
614.553945	2553.752757
614.902496	2551.252344
615.250994	2554.289639
615.599439	2551.436346
615.947830	2550.564227
616.296169	2552.300904
616.644454	2551.564896
616.992686	2553.402396
617.340864	2552.996583
617.688990	2553.798127
618.037063	2549.432488
618.385082	2549.437529
618.733048	2553.873744
619.080961	2551.806871
619.428821	2550.433157
619.776628	2552.777293
620.124382	2551.017931
620.472083	2550.483568
620.819731	2550.715461
621.167326	2550.745708
621.514868	2551.509443
621.862357	2553.404917
622.209793	2553.465411
622.557176	2552.505071
622.904506	2550.380225
623.251783	2552.958775
623.599007	2549.616490
623.946179	2553.437684
624.293297	2551.068342
624.640363	2550.904505
624.987376	2549.709751
625.334336	2545.455017
625.681243	2547.726057
626.028097	2545.797816
626.374899	2548.751932
626.721647	2550.662529
627.068343	2550.211346
627.414987	2550.256716
627.761577	2550.342416
628.108115	2550.370142
628.454600	2549.916438
628.801032	2551.665719
629.147412	2552.837787
629.493739	2551.935421
629.840014	2552.752087
630.186236	2553.659495
630.532405	2553.067160
630.878521	2550.957437
631.224585	2551.549772
631.570597	2550.286963
631.916556	2550.833928
632.262462	2549.929041
632.608316	2551.698486
632.954117	2550.811243
633.299866	2551.300235
633.645562	2549.583722
633.991206	2549.382076
634.336797	2550.276881
634.682336	2551.683363
635.027823	2550.186140
635.373257	2549.843342
635.718639	2548.043650
636.063968	2551.219577
636.409245	2550.775955
636.754470	2551.007848
637.099642	2548.537683
637.444762	2553.271326
637.789829	2548.898125
638.134845	2548.764535
638.479808	2549.301418
638.824719	2549.349309
639.169577	2549.006510
639.514383	2552.827705
639.859137	2548.522559
640.203839	2551.040616
640.548489	2551.254865
640.893086	2546.095244
641.237632	2549.051881
641.582125	2548.149514
641.926566	2548.172199
642.270955	2547.559699
642.615292	2548.401572
642.959576	2549.447611
643.303809	2544.093906
643.647990	2551.085986
643.992118	2549.860986
644.336195	2547.572302
