Dividing Wavelength (nm)	Counts (n)	Blue Motor Position (mm): 13.000000	Red Motor Position (mm): 0.000000	
326.493990	2166.929898
326.888308	2166.929898
327.282561	2166.929898
327.676750	2128.450771
328.070874	2123.608743
328.464933	2125.121089
328.858929	2126.676285
329.252859	2131.611575
329.646726	2141.610703
330.040528	2153.230563
330.434265	2165.465443
330.827938	2185.700635
331.221547	2200.617409
331.615091	2218.526108
332.008571	2236.608727
332.401986	2255.618918
332.795338	2273.678852
333.188625	2294.718107
333.581847	2309.874336
333.975006	2328.261945
334.368100	2349.318845
334.761129	2364.059178
335.154095	2385.073228
335.546996	2402.308933
335.939833	2428.159970
336.332606	2442.302927
336.725315	2455.823302
337.117960	2468.655559
337.510540	2480.167034
337.903056	2494.466267
338.295508	2498.199241
338.687896	2510.310613
339.080220	2516.607014
339.472480	2524.090607
339.864676	2528.708304
340.256807	2533.152081
340.648875	2539.508976
341.040879	2540.441590
341.432818	2541.076775
341.824694	2544.340922
342.216506	2546.430481
342.608253	2550.549103
342.999937	2547.169010
343.391557	2550.292004
343.783113	2549.903836
344.174605	2545.765048
344.566033	2543.980480
344.957397	2543.446117
345.348697	2546.133053
345.739934	2541.341436
346.131106	2539.566950
346.522215	2538.692309
346.913260	2538.011754
347.304241	2532.532019
347.695159	2532.978162
348.086012	2533.053779
348.476802	2529.078829
348.867528	2522.805113
349.258191	2522.994156
349.648789	2519.984588
350.039324	2517.466531
350.429796	2519.782941
350.820203	2519.674557
351.210548	2519.331758
351.600828	2517.466531
351.991045	2515.576098
352.381198	2515.571057
352.771288	2514.570388
353.161314	2515.934020
353.551276	2516.569206
353.941175	2514.371263
354.331010	2515.235821
354.720782	2512.659791
355.110490	2512.248937
355.500135	2513.249606
355.889717	2513.219359
356.279235	2514.898063
356.668689	2511.989318
357.058080	2511.270953
357.447408	2513.862106
357.836672	2511.621313
358.225873	2514.542662
358.615010	2514.320851
359.004084	2514.068793
359.393095	2517.292611
359.782043	2514.497292
360.170927	2516.773373
360.559748	2518.489885
360.948505	2516.312107
361.337199	2520.997859
361.725830	2520.188754
362.114398	2517.537107
362.502903	2519.283867
362.891344	2519.772859
363.279722	2519.475431
363.668037	2519.669515
364.056289	2523.999867
364.444478	2520.148425
364.832603	2524.234280
365.220665	2521.368384
365.608665	2523.034486
365.996601	2523.962058
366.384474	2523.218488
366.772284	2525.456760
367.160031	2524.408200
367.547715	2525.393746
367.935336	2524.335103
368.322893	2523.062212
368.710388	2523.115144
369.097820	2524.929959
369.485189	2522.905936
369.872495	2524.619928
370.259738	2528.209230
370.646918	2528.153777
371.034035	2527.397604
371.421090	2529.577903
371.808081	2527.586647
372.195010	2530.132430
372.581875	2530.218130
372.968678	2530.394570
373.355418	2528.882224
373.742096	2528.597399
374.128710	2530.949097
374.515262	2527.911802
374.901751	2529.262831
375.288177	2530.470187
375.674540	2529.824920
376.060841	2530.429858
376.447079	2530.525640
376.833254	2529.766947
377.219367	2532.005219
377.605417	2532.292565
377.991404	2534.712318
378.377329	2534.417411
378.763191	2531.942204
379.148991	2531.304498
379.534727	2532.060672
379.920402	2530.248377
380.306013	2533.494880
380.691563	2532.340456
381.077049	2534.404808
381.462474	2531.556556
381.847835	2536.133924
382.233134	2534.805580
382.618371	2533.154602
383.003545	2534.049407
383.388657	2534.273738
383.773706	2536.436393
384.158693	2536.025539
384.543618	2536.136444
384.928480	2537.157278
385.313280	2535.869263
385.698017	2534.714839
386.082692	2535.929757
386.467305	2536.708615
386.851856	2537.628626
387.236344	2536.055786
387.620770	2535.261804
388.005133	2530.918850
388.389435	2532.746268
388.773674	2533.449509
389.157851	2537.699202
389.541965	2538.137783
389.926018	2539.095602
390.310008	2537.835313
390.693936	2539.524100
391.077802	2537.600900
391.461606	2539.564429
391.845348	2541.359080
392.229027	2539.617361
392.612645	2539.990407
392.996200	2538.813297
393.379694	2540.343287
393.763125	2539.672814
394.146494	2538.931764
394.529801	2539.458565
394.913047	2540.063503
395.296230	2537.863040
395.679351	2542.284132
396.062410	2541.533000
396.445408	2540.121477
396.828343	2542.241282
397.211217	2542.952084
397.594028	2542.495860
397.976778	2542.059800
398.359466	2544.003165
398.742092	2541.633823
399.124656	2541.956457
399.507158	2543.254554
399.889598	2543.473844
400.271977	2546.155738
400.654294	2542.299255
401.036549	2542.493339
401.418742	2544.265305
401.800874	2542.566436
402.182944	2547.138763
402.564952	2543.970397
402.946898	2544.681200
403.328783	2544.595501
403.710606	2547.955430
404.092367	2546.687579
404.474067	2543.824204
404.855705	2543.826725
405.237282	2543.320089
405.618797	2544.892929
406.000250	2548.646068
406.381642	2546.226314
406.762972	2542.861344
407.144240	2543.211704
407.525447	2545.754966
407.906593	2540.134079
408.287677	2546.296890
408.668700	2545.465100
409.049661	2548.951057
409.430560	2548.940975
409.811399	2548.177240
410.192176	2547.431150
410.572891	2547.428629
410.953545	2549.379556
411.334138	2548.235214
411.714669	2546.450645
412.095139	2545.639019
412.475547	2546.508618
412.855894	2548.388969
413.236180	2550.425595
413.616405	2550.733105
413.996568	2546.629606
414.376670	2550.113043
414.756711	2548.144473
415.136691	2549.366953
415.516609	2550.213867
415.896466	2551.088507
416.276262	2549.961809
416.655997	2551.247303
417.035670	2552.268137
417.415283	2551.917777
417.794834	2552.353836
418.174324	2549.346788
418.553753	2550.891902
418.933121	2552.865513
419.312428	2551.653116
419.691674	2551.305276
420.070859	2550.864175
420.449983	2550.198743
420.829045	2551.849721
421.208047	2554.551779
421.586988	2551.562375
421.965867	2553.157900
422.344686	2551.222097
422.723444	2552.673950
423.102141	2552.615976
423.480777	2553.823333
423.859352	2552.063970
424.237866	2553.606563
424.616319	2553.268806
424.994712	2554.191337
425.373044	2553.278888
425.751314	2550.405430
426.129524	2547.287477
426.507673	2551.990873
426.885762	2545.916283
427.263789	2554.864331
427.641756	2553.795606
428.019662	2556.495144
428.397508	2554.382901
428.775292	2554.153528
429.153016	2552.220246
429.530679	2552.989022
429.908282	2554.476162
430.285824	2556.079249
430.663305	2553.195709
431.040726	2555.126471
431.418086	2553.230997
431.795385	2555.134033
432.172624	2557.815927
432.549802	2553.069680
432.926920	2556.711914
433.303977	2552.603373
433.680974	2557.594116
434.057910	2555.718807
434.434786	2555.464228
434.811601	2558.004970
435.188355	2557.092521
435.565050	2555.930535
435.941683	2555.738971
436.318257	2555.297870
436.694770	2555.978426
437.071222	2554.297201
437.447614	2558.617470
437.823946	2555.494475
438.200218	2556.888354
438.576429	2556.311142
438.952580	2558.551935
439.328670	2558.456153
439.704700	2558.088149
440.080670	2558.766184
440.456580	2556.049002
440.832429	2555.774259
441.208218	2560.225598
441.583947	2556.696790
441.959616	2559.245094
442.335224	2558.299877
442.710773	2557.153015
443.086261	2559.119065
443.461689	2558.614949
443.837057	2559.451781
444.212365	2558.877089
444.587612	2555.759136
444.962800	2554.571944
445.337927	2557.649568
445.712995	2553.024310
446.088002	2557.997408
446.462949	2557.699980
446.837837	2561.911864
447.212664	2557.551266
447.587431	2559.857594
447.962139	2558.463715
448.336786	2560.964127
448.711374	2561.317008
449.085901	2560.911195
449.460369	2559.008159
449.834776	2559.542522
450.209124	2558.912378
450.583412	2561.390105
450.957640	2558.816596
451.331808	2560.089487
451.705917	2560.974209
452.079965	2559.933211
452.453954	2559.701318
452.827883	2562.400856
453.201752	2559.852553
453.575562	2563.414128
453.949311	2561.952193
454.323001	2560.828016
454.696632	2561.022100
455.070202	2563.083932
455.443713	2560.132337
455.817164	2560.754919
456.190556	2559.328273
456.563888	2565.423028
456.937160	2561.286761
457.310373	2560.530588
457.683526	2561.516133
458.056619	2561.077553
458.429653	2563.308264
458.802628	2562.799107
459.175542	2560.845660
459.548398	2563.469581
459.921194	2564.997050
460.293930	2562.688202
460.666607	2561.647203
461.039224	2564.732390
461.411782	2563.850188
461.784280	2566.746331
462.156719	2566.406053
462.529099	2563.867832
462.901419	2561.649724
463.273680	2563.676268
463.645882	2555.426420
464.018024	2562.126113
464.390106	2560.008828
464.762130	2562.582337
465.134094	2566.811866
465.505999	2566.680796
465.877845	2566.819427
466.249631	2568.823286
466.621358	2568.452761
466.993026	2568.147771
467.364634	2569.944943
467.736184	2568.039387
468.107674	2567.595765
468.479105	2566.998388
468.850477	2567.492421
469.221790	2569.115673
469.593043	2569.171126
469.964238	2566.852195
470.335373	2568.039387
470.706449	2567.184911
471.077467	2567.419325
471.448425	2565.990157
471.819324	2568.470405
472.190164	2572.790674
472.560945	2570.300344
472.931667	2569.271949
473.302330	2564.694581
473.672934	2570.678431
474.043479	2568.188101
474.413965	2568.987123
474.784393	2567.532751
475.154761	2571.520303
475.525070	2569.266907
475.895321	2569.506362
476.265513	2566.312791
476.635645	2573.889646
477.005719	2569.166084
477.375734	2571.570715
477.745691	2569.753379
478.115588	2571.270766
478.485427	2572.024419
478.855207	2573.473750
479.224928	2573.340160
479.594591	2576.460634
479.964194	2573.196487
480.333739	2573.158678
480.703226	2574.038360
481.072653	2574.154306
481.442022	2571.850499
481.811333	2573.433421
482.180584	2573.302351
482.549777	2574.781930
482.918912	2568.992165
483.287988	2572.848647
483.657005	2574.076168
484.025964	2575.517938
484.394864	2576.639595
484.763706	2575.676735
485.132489	2573.940057
485.501213	2574.310582
485.869879	2575.780078
486.238487	2573.889646
486.607036	2574.713874
486.975527	2577.441138
487.343959	2576.339646
487.712333	2573.534244
488.080648	2574.769327
488.448905	2577.299986
488.817104	2578.618248
489.185244	2575.525500
489.553326	2577.035326
489.921350	2576.316961
490.289315	2575.601117
490.657222	2577.615058
491.025070	2579.749987
491.392861	2580.344843
491.760593	2581.373238
492.128267	2579.228227
492.495883	2576.926941
492.863440	2577.262177
493.230939	2579.739905
493.598380	2580.138156
493.965763	2579.288721
494.333088	2576.029615
494.700354	2577.103381
495.067563	2577.413412
495.434713	2575.414595
495.801805	2578.207394
496.168839	2576.019533
496.535815	2575.885942
496.902733	2576.788309
497.269593	2578.968608
497.636395	2579.928948
498.003139	2578.441808
498.369825	2580.622107
498.736453	2576.085068
499.103023	2577.123546
499.469535	2580.284349
499.835989	2578.870306
500.202385	2577.242013
500.568723	2572.515931
500.935003	2578.088927
501.301226	2574.560119
501.667390	2578.625810
502.033497	2580.143197
502.399546	2580.899370
502.765537	2579.538258
503.131470	2578.963567
503.497345	2580.370049
503.863163	2582.406675
504.228923	2580.604462
504.594625	2584.279464
504.960269	2579.994483
505.325856	2582.300811
505.691385	2581.983218
506.056856	2581.484144
506.422270	2579.639082
506.787625	2583.669484
507.152924	2583.956830
507.518164	2582.603280
507.883347	2585.363312
508.248472	2588.226687
508.613540	2583.036819
508.978550	2584.034968
509.343503	2586.268199
509.708398	2585.627972
510.073236	2585.585122
510.438016	2585.267530
510.802738	2586.590833
511.167403	2584.876840
511.532010	2586.701738
511.896561	2592.080649
512.261053	2588.655185
512.625488	2590.817840
512.989866	2590.459918
513.354186	2588.302304
513.718449	2593.363623
514.082655	2591.987388
514.446803	2590.406986
514.810894	2594.633994
515.174927	2594.976792
515.538904	2596.274889
515.902822	2593.729107
516.266684	2594.192893
516.630488	2594.742378
516.994235	2595.385126
517.357925	2598.263624
517.721558	2600.070878
518.085133	2599.715477
518.448651	2597.073912
518.812112	2595.937132
519.175516	2598.303954
519.538863	2597.149529
519.902152	2602.304109
520.265385	2604.489449
520.628560	2603.047679
520.991678	2606.576487
521.354739	2604.088678
521.717743	2605.953905
522.080690	2603.861826
522.443580	2610.296859
522.806413	2611.549585
523.169189	2610.632095
523.531908	2611.312651
523.894569	2613.508074
524.257174	2613.114864
524.619722	2614.181068
524.982213	2614.843979
525.344647	2617.233486
525.707025	2617.256172
526.069345	2617.941768
526.431608	2618.007303
526.793815	2620.275823
527.155964	2617.936727
527.518057	2617.982098
527.880093	2623.305556
528.242072	2622.110803
528.603995	2623.900412
528.965860	2622.617439
529.327669	2621.478138
529.689421	2625.253962
530.051117	2623.529887
530.412755	2627.088942
530.774337	2630.801752
531.135862	2628.205558
531.497331	2632.190590
531.858743	2629.518778
532.220098	2629.735548
532.581396	2631.467184
532.942638	2631.159674
533.303824	2634.678399
533.664953	2633.786115
534.026025	2633.365179
534.387040	2634.101187
534.747999	2636.357103
535.108902	2638.882722
535.469748	2634.743934
535.830537	2637.198976
536.191270	2641.357928
536.551947	2636.039511
536.912567	2637.488842
537.273131	2641.708288
537.633638	2638.613020
537.994089	2642.532517
538.354483	2647.351860
538.714821	2650.132056
539.075103	2645.600059
539.435328	2649.907725
539.795497	2647.515697
540.155609	2649.401089
540.515665	2646.935965
540.875665	2649.335554
541.235609	2652.012407
541.595496	2652.246820
541.955328	2652.788744
542.315102	2657.109013
542.674821	2655.069867
543.034483	2655.329486
543.394090	2659.276709
543.753640	2660.322749
544.113134	2662.646721
544.472571	2660.403407
544.831953	2661.434323
545.191278	2661.736792
545.550548	2664.781649
545.909761	2665.709222
546.268918	2666.445230
546.628019	2668.988492
546.987064	2669.474964
547.346053	2670.783143
547.704986	2670.737773
548.063863	2673.908658
548.422684	2675.363031
548.781449	2674.911848
549.140158	2675.612568
549.498811	2677.913855
549.857408	2677.911335
550.215949	2679.796726
550.574434	2681.414937
550.932864	2685.599094
551.291237	2683.900225
551.649555	2686.496420
552.007817	2689.110258
552.366022	2689.982377
552.724173	2690.415917
553.082267	2691.645958
553.440305	2697.050075
553.798288	2693.987574
554.156215	2699.638708
554.514086	2699.908409
554.871902	2694.345496
555.229661	2699.661393
555.587365	2698.514530
555.945014	2708.876622
556.302606	2708.211190
556.660143	2711.959288
557.017625	2715.498178
557.375050	2717.005483
557.732421	2717.504557
558.089735	2721.018241
558.446994	2721.333313
558.804197	2730.389746
559.161345	2731.740775
559.518437	2727.203737
559.875474	2733.265724
560.232455	2736.981055
560.589381	2741.976838
560.946251	2743.496746
561.303065	2746.768455
561.659825	2754.398241
562.016528	2753.037130
562.373177	2754.219280
562.729770	2757.475866
563.086307	2763.079108
563.442789	2769.612444
563.799216	2772.843823
564.155587	2774.903135
564.511904	2784.703138
564.868164	2783.248765
565.224370	2791.425516
565.580520	2790.530712
565.936615	2801.147382
566.292654	2798.457926
566.648638	2810.181129
567.004567	2809.989565
567.360441	2819.696307
567.716260	2818.652788
568.072023	2831.921105
568.427732	2835.903617
568.783385	2836.100222
569.138982	2849.902901
569.494525	2856.045547
569.850013	2865.525437
570.205445	2870.977445
570.560823	2869.301261
570.916145	2880.051522
571.271412	2883.804661
571.626625	2898.343348
571.981782	2907.488001
572.336884	2909.388516
572.691931	2915.994948
573.046923	2919.173396
573.401860	2930.584048
573.756743	2951.265381
574.111570	2956.601443
574.466342	2964.137968
574.821059	2978.016264
575.175722	2978.984166
575.530330	2993.938749
575.884882	3004.101715
576.239380	3017.034795
576.593823	3026.113913
576.948211	3032.995088
577.302544	3043.059752
577.656823	3048.849517
578.011047	3065.145047
578.365216	3076.744742
578.719330	3091.414499
579.073389	3101.688371
579.427394	3129.276085
579.781344	3124.086218
580.135239	3143.754279
580.489080	3152.477996
580.842866	3160.591733
581.196597	3205.838609
581.550273	3202.219061
581.903895	3228.866600
582.257463	3250.682193
582.610975	3260.005807
582.964434	3287.301135
583.317837	3303.228661
583.671186	3329.130109
584.024481	3355.064325
584.377721	3357.022813
584.730906	3380.287738
585.084037	3405.024680
585.437113	3420.241403
585.790135	3447.819035
586.143103	3454.944706
586.496016	3465.614308
586.848874	3511.824045
587.201679	3524.041281
587.554428	3535.774567
587.907124	3579.836772
588.259765	3596.437292
588.612352	3638.606544
588.964884	3637.658807
589.317362	3668.447654
589.669786	3704.151626
590.022155	3729.619535
590.374470	3774.473202
590.726731	3788.369142
591.078937	3801.582006
591.431090	3836.323118
591.783188	3841.581042
592.135232	3863.187427
592.487222	3914.939912
592.839157	3936.669806
593.191038	3967.395639
593.542866	3978.004747
593.894639	4000.793283
594.246358	4048.790109
594.598022	4065.945155
594.949633	4081.880243
595.301190	4097.069239
595.652692	4148.937671
596.004141	4194.411399
596.355535	4175.943132
596.706876	4206.263152
597.058162	4239.123913
597.409395	4274.091877
597.760573	4326.353519
598.111698	4335.412472
598.462768	4367.620404
598.813785	4394.787182
599.164748	4411.579266
599.515657	4451.074186
599.866511	4465.285198
600.217312	4536.080642
600.568060	4514.708671
600.918753	4601.991208
601.269392	4637.821209
601.619978	4637.130571
601.970510	4714.174525
602.320988	4729.789499
602.671412	4800.963030
603.021783	4828.326413
603.372100	4834.718596
603.722363	4890.869488
604.072572	4930.046815
604.422728	4977.355524
604.772830	5004.416438
605.122878	5011.458929
605.472872	5070.957148
605.822813	5117.676041
606.172701	5152.885980
606.522534	5225.781065
606.872314	5269.286222
607.222041	5275.806955
607.571714	5357.866857
607.921333	5393.006220
608.270899	5447.682575
608.620411	5538.216657
608.969870	5515.228995
609.319276	5574.177728
609.668627	5642.762626
610.017926	5712.814499
610.367171	5779.546773
610.716362	5862.236820
611.065500	5858.150965
611.414585	5930.511687
611.763616	5981.142516
612.112594	6027.337129
612.461518	6049.046858
612.810389	6153.320605
613.159207	6163.165978
613.507971	6199.444642
613.856682	6339.742474
614.205340	6373.218256
614.553945	6486.515668
614.902496	6446.090656
615.250994	6588.694816
615.599439	6619.014835
615.947830	6670.351426
616.296169	6715.580658
616.644454	6782.650689
616.992686	6807.082641
617.340864	6932.062927
617.688990	6941.636079
618.037063	7059.014305
618.385082	7074.450318
618.733048	7200.380862
619.080961	7213.016514
619.428821	7306.098899
619.776628	7344.920825
620.124382	7358.685695
620.472083	7441.259795
620.819731	7505.673138
621.167326	7457.625901
621.514868	7509.222111
621.862357	7502.635843
622.209793	7558.653145
622.557176	7558.065850
622.904506	7533.018878
623.251783	7557.695326
623.599007	7568.385092
623.946179	7592.950635
624.293297	7624.810727
624.640363	7607.776668
624.987376	7648.005076
625.334336	7615.305632
625.681243	7616.467618
626.028097	7660.809607
626.374899	7734.231492
626.721647	7692.810852
627.068343	7683.799789
627.414987	7709.744087
627.761577	7777.809747
628.108115	7855.330090
628.454600	7779.150693
628.801032	7840.241916
629.147412	7875.686269
629.493739	7930.579393
629.840014	7922.992457
630.186236	7997.009198
630.532405	7959.543343
630.878521	8087.376922
631.224585	8087.785255
631.570597	8087.500430
631.916556	8119.375646
632.262462	8157.862335
632.608316	8195.519754
632.954117	8208.609110
633.299866	8262.350331
633.645562	8280.498485
633.991206	8213.022640
634.336797	8172.763986
634.682336	8237.066424
635.027823	8210.262609
635.373257	8231.916885
635.718639	8199.124179
636.063968	8227.284065
636.409245	8167.443048
636.754470	8216.168320
637.099642	8195.880197
637.444762	8113.429605
637.789829	8193.047068
638.134845	8150.807240
638.479808	8203.441928
638.824719	8217.463897
639.169577	8183.831839
639.514383	8242.818380
639.859137	8192.782408
640.203839	8284.619628
640.548489	8222.076553
640.893086	8286.719268
641.237632	8223.387253
641.582125	8365.414201
641.926566	8325.294178
642.270955	8357.615536
642.615292	8377.901139
642.959576	8418.479907
643.303809	8486.800144
643.647990	8472.694996
643.992118	8562.740086
644.336195	8455.683622
