Dividing Wavelength (nm)	Counts (n)	Blue Motor Position (mm): 24.600000	Red Motor Position (mm): 0.000000	
326.493990	2197.653211
326.888308	2197.653211
327.282561	2197.653211
327.676750	2157.485297
328.070874	2153.835501
328.464933	2156.124185
328.858929	2155.788948
329.252859	2162.949908
329.646726	2172.719664
330.040528	2183.159893
330.434265	2193.474094
330.827938	2214.432691
331.221547	2231.232336
331.615091	2248.243710
332.008571	2269.305651
332.401986	2285.447425
332.795338	2304.132462
333.188625	2322.895637
333.581847	2341.600838
333.975006	2362.244363
334.368100	2382.053577
334.761129	2399.107801
335.154095	2415.569688
335.546996	2439.081630
335.939833	2478.072434
336.332606	2488.368991
336.725315	2502.965652
337.117960	2516.932169
337.510540	2528.115969
337.903056	2538.513348
338.295508	2548.192364
338.687896	2554.118240
339.080220	2565.367575
339.472480	2571.555591
339.864676	2574.345870
340.256807	2580.342322
340.648875	2582.598239
341.040879	2589.174424
341.432818	2590.505289
341.824694	2596.786566
342.216506	2594.843202
342.608253	2595.858994
342.999937	2596.537029
343.391557	2596.685743
343.783113	2595.927050
344.174605	2593.736668
344.566033	2591.793303
344.957397	2592.887234
345.348697	2591.453026
345.739934	2587.999835
346.131106	2588.559403
346.522215	2586.391707
346.913260	2585.446491
347.304241	2583.626634
347.695159	2576.054821
348.086012	2579.122363
348.476802	2577.347877
348.867528	2572.725139
349.258191	2568.369582
349.648789	2569.024932
350.039324	2564.898748
350.429796	2570.023081
350.820203	2567.638615
351.210548	2567.474777
351.600828	2565.072668
351.991045	2564.775239
352.381198	2563.706515
352.771288	2562.405897
353.161314	2560.384394
353.551276	2558.819116
353.941175	2559.136709
354.331010	2561.957234
354.720782	2560.853222
355.110490	2560.034034
355.500135	2559.819785
355.889717	2558.927501
356.279235	2562.194169
356.668689	2562.093346
357.058080	2559.804662
357.447408	2562.506720
357.836672	2561.672409
358.225873	2562.514282
358.615010	2559.597974
359.004084	2562.821792
359.393095	2565.070147
359.782043	2561.773232
360.170927	2563.885476
360.559748	2562.524364
360.948505	2565.027297
361.337199	2568.634243
361.725830	2565.276834
362.114398	2565.410425
362.502903	2566.826989
362.891344	2569.581980
363.279722	2568.021742
363.668037	2568.679613
364.056289	2570.514593
364.444478	2569.864284
364.832603	2569.871846
365.220665	2572.405026
365.608665	2570.958215
365.996601	2571.663976
366.384474	2569.670200
366.772284	2571.243040
367.160031	2572.551219
367.547715	2573.725808
367.935336	2571.578277
368.322893	2569.221537
368.710388	2568.548543
369.097820	2570.660787
369.485189	2566.816907
369.872495	2573.947619
370.259738	2575.172619
370.646918	2573.584656
371.034035	2576.097671
371.421090	2576.563978
371.808081	2577.481468
372.195010	2575.190263
372.581875	2578.020871
372.968678	2576.899214
373.355418	2577.216807
373.742096	2578.227558
374.128710	2577.733525
374.515262	2577.347877
374.901751	2578.623289
375.288177	2578.114133
375.674540	2576.009451
376.060841	2578.134297
376.447079	2579.777713
376.833254	2581.723599
377.219367	2579.306365
377.605417	2580.445666
377.991404	2579.613876
378.377329	2580.884247
378.763191	2579.029102
379.148991	2580.372569
379.534727	2580.377611
379.920402	2580.022209
380.306013	2583.051943
380.691563	2581.267374
381.077049	2583.692169
381.462474	2582.318455
381.847835	2581.272415
382.233134	2583.309042
382.618371	2582.298290
383.003545	2581.650502
383.388657	2582.394072
383.773706	2584.586974
384.158693	2583.785431
384.543618	2583.687128
384.928480	2584.135791
385.313280	2585.060842
385.698017	2584.491192
386.082692	2585.539752
386.467305	2585.534711
386.851856	2589.363467
387.236344	2586.217787
387.620770	2582.736871
388.005133	2582.636047
388.389435	2583.414906
388.773674	2581.799216
389.157851	2588.468662
389.541965	2587.155442
389.926018	2588.267016
390.310008	2588.854311
390.693936	2589.786924
391.077802	2587.059660
391.461606	2590.482603
391.845348	2589.063519
392.229027	2591.233735
392.612645	2589.577716
392.996200	2592.123499
393.379694	2592.713314
393.763125	2589.802048
394.146494	2589.673498
394.529801	2592.425968
394.913047	2592.176431
395.296230	2593.187182
395.679351	2590.994281
396.062410	2591.879003
396.445408	2589.718869
396.828343	2595.044848
397.211217	2592.322625
397.594028	2593.063674
397.976778	2594.394539
398.359466	2593.885382
398.742092	2594.074426
399.124656	2591.390011
399.507158	2594.805393
399.889598	2594.061823
400.271977	2595.017121
400.654294	2596.390836
401.036549	2595.571648
401.418742	2599.138265
401.800874	2595.702718
402.182944	2596.262286
402.564952	2597.459560
402.946898	2595.105342
403.328783	2595.347317
403.710606	2598.150198
404.092367	2597.212544
404.474067	2597.711618
404.855705	2593.265320
405.237282	2596.327821
405.618797	2599.894438
406.000250	2598.177925
406.381642	2600.393512
406.762972	2597.590630
407.144240	2594.341607
407.525447	2595.518716
407.906593	2595.415372
408.287677	2601.459716
408.668700	2598.762699
409.049661	2601.323605
409.430560	2598.661876
409.811399	2601.061465
410.192176	2602.271342
410.572891	2601.452154
410.953545	2601.875611
411.334138	2601.137082
411.714669	2601.671444
412.095139	2603.992896
412.475547	2604.814604
412.855894	2603.776126
413.236180	2601.830241
413.616405	2604.625561
413.996568	2602.646908
414.376670	2604.721342
414.756711	2605.235540
415.136691	2605.016250
415.516609	2603.211517
415.896466	2604.930550
416.276262	2606.591611
416.655997	2605.424583
417.035670	2606.369800
417.415283	2607.249481
417.794834	2607.829214
418.174324	2604.895262
418.553753	2606.402567
418.933121	2612.278032
419.312428	2606.611775
419.691674	2605.444748
420.070859	2608.905500
420.449983	2608.706375
420.829045	2609.515480
421.208047	2608.638319
421.586988	2611.539503
421.965867	2608.451796
422.344686	2614.584360
422.723444	2609.782661
423.102141	2610.254009
423.480777	2609.966663
423.859352	2612.862806
424.237866	2612.348608
424.616319	2611.002620
424.994712	2613.253495
425.373044	2612.535131
425.751314	2610.518669
426.129524	2607.773761
426.507673	2611.315172
426.885762	2609.230655
427.263789	2613.034205
427.641756	2612.429267
428.019662	2615.643002
428.397508	2614.624689
428.775292	2617.021758
429.153016	2616.648712
429.530679	2614.700307
429.908282	2614.659977
430.285824	2614.488578
430.663305	2615.186778
431.040726	2616.426902
431.418086	2615.660646
431.795385	2617.462859
432.172624	2616.888167
432.549802	2618.987808
432.926920	2617.722478
433.303977	2619.295318
433.680974	2619.035699
434.057910	2622.120885
434.434786	2621.415123
434.811601	2618.561830
435.188355	2619.930504
435.565050	2621.397479
435.941683	2619.272633
436.318257	2620.371605
436.694770	2624.477624
437.071222	2623.965947
437.447614	2623.781945
437.823946	2622.907305
438.200218	2624.356637
438.576429	2625.763119
438.952580	2626.090794
439.328670	2626.368057
439.704700	2627.164559
440.080670	2626.912502
440.456580	2628.001391
440.832429	2626.219343
441.208218	2627.320835
441.583947	2629.251597
441.959616	2629.039869
442.335224	2630.239663
442.710773	2628.802934
443.086261	2630.267390
443.461689	2629.498614
443.837057	2631.520116
444.212365	2634.607823
444.587612	2632.120014
444.962800	2632.868625
445.337927	2633.231588
445.712995	2628.455095
446.088002	2637.917341
446.462949	2636.949439
446.837837	2637.672845
447.212664	2641.068062
447.587431	2642.023360
447.962139	2642.966056
448.336786	2651.218425
448.711374	2653.295380
449.085901	2651.931748
449.460369	2651.722540
449.834776	2651.621717
450.209124	2656.216729
450.583412	2662.283758
450.957640	2666.321722
451.331808	2667.498831
451.705917	2669.033863
452.079965	2671.458658
452.453954	2678.486026
452.827883	2681.132632
453.201752	2690.098324
453.575562	2693.044878
453.949311	2701.493852
454.323001	2708.765717
454.696632	2718.782489
455.070202	2733.089284
455.443713	2747.847262
455.817164	2764.803183
456.190556	2780.735750
456.563888	2801.638894
456.937160	2821.458190
457.310373	2827.520178
457.683526	2847.914166
458.056619	2860.617873
458.429653	2885.122922
458.802628	2897.826630
459.175542	2931.304933
459.548398	2993.326248
459.921194	3039.871222
460.293930	3084.702203
460.666607	3171.180677
461.039224	3279.174795
461.411782	3375.387737
461.784280	3412.689755
462.156719	3471.444403
462.529099	3503.339783
462.901419	3502.656707
463.273680	3544.205897
463.645882	3591.718772
464.018024	3637.615957
464.390106	3728.001325
464.762130	3879.346846
465.134094	4041.515724
465.505999	4377.337228
465.877845	4922.195218
466.249631	5403.905195
466.621358	5462.753104
466.993026	5383.538933
467.364634	5405.936780
467.736184	5347.282955
468.107674	5355.721846
468.479105	5501.980843
468.850477	5564.292025
469.221790	5605.188385
469.593043	5608.749961
469.964238	5651.367875
470.335373	5700.355288
470.706449	5915.630201
471.077467	5935.189878
471.448425	6474.547969
471.819324	7592.544822
472.190164	8287.472921
472.560945	7629.246943
472.931667	7162.012640
473.302330	7156.681619
473.672934	7151.552245
474.043479	7434.078672
474.413965	7541.533386
474.784393	7597.623785
475.154761	7974.417267
475.525070	8141.957495
475.895321	8174.460334
476.265513	8544.392806
476.635645	8903.640553
477.005719	9021.606073
477.375734	9283.012585
477.745691	9658.545779
478.115588	10013.627012
478.485427	10447.524165
478.855207	11048.923737
479.224928	11970.668470
479.594591	13221.724059
479.964194	13481.729130
480.333739	13912.793154
480.703226	13888.280544
481.072653	14005.830169
481.442022	14529.124623
481.811333	15199.073805
482.180584	15459.303208
482.549777	15188.769687
482.918912	15285.519511
483.287988	15577.697226
483.657005	15654.539534
484.025964	15719.373814
484.394864	15943.175839
484.763706	16001.136505
485.132489	15946.661797
485.501213	16225.024230
485.869879	16448.526306
486.238487	16452.045032
486.607036	16848.221751
486.975527	16837.985688
487.343959	17264.212725
487.712333	17497.141759
488.080648	17417.559584
488.448905	17999.485178
488.817104	18016.141150
489.185244	18686.475980
489.553326	18921.698739
489.921350	19746.161807
490.289315	21566.335938
490.657222	23148.403770
491.025070	23774.968782
491.392861	23850.901161
491.760593	23430.252161
492.128267	23046.595147
492.495883	22419.100043
492.863440	21945.385337
493.230939	21400.350906
493.598380	21458.959361
493.965763	21278.904469
494.333088	21079.753686
494.700354	21163.953558
495.067563	21243.210579
495.434713	21159.686222
495.801805	21382.071683
496.168839	21401.137326
496.535815	21367.646421
496.902733	21675.184532
497.269593	21469.213068
497.636395	21786.455400
498.003139	21880.818238
498.369825	21778.021550
498.736453	22029.358357
499.103023	22027.127646
499.469535	22140.994709
499.835989	22407.926326
500.202385	22540.609495
500.568723	22167.599398
500.935003	22491.259119
501.301226	22186.460875
501.667390	23002.278364
502.033497	23333.086441
502.399546	23123.868474
502.765537	22846.753727
503.131470	23256.443259
503.497345	23457.900369
503.863163	22745.744127
504.228923	23409.749788
504.594625	23641.441219
504.960269	23200.816647
505.325856	23741.873607
505.691385	23216.645870
506.056856	23836.647299
506.422270	23851.773281
506.787625	23492.225586
507.152924	23931.380662
507.518164	23971.926662
507.883347	23808.802486
508.248472	23551.882600
508.613540	24337.871582
508.978550	24133.538493
509.343503	24143.923270
509.708398	24466.070645
510.073236	24626.747341
510.438016	24849.273954
510.802738	24566.707199
511.167403	24820.199099
511.532010	24533.430542
511.896561	25327.825648
512.261053	25308.084489
512.625488	25148.766384
512.989866	25074.490023
513.354186	24945.330620
513.718449	25045.367277
514.082655	25427.569918
514.446803	25186.559914
514.810894	25641.087989
515.174927	25132.571677
515.538904	25164.671224
515.902822	25663.019529
516.266684	25434.506545
516.630488	25333.121380
516.994235	25338.104560
517.357925	25623.567459
517.721558	25820.706821
518.085133	25902.237402
518.448651	25840.624420
518.812112	25561.725104
519.175516	25752.101758
519.538863	25926.613902
519.902152	25712.853855
520.265385	26017.785689
520.628560	25786.961337
520.991678	25818.836553
521.354739	25894.131227
521.717743	25941.016478
522.080690	25747.705872
522.443580	26073.709730
522.806413	26076.167292
523.169189	26170.469637
523.531908	26244.105771
523.894569	25830.194272
524.257174	25890.922532
524.619722	26119.735464
524.982213	25791.810927
525.344647	25870.044594
525.707025	25976.445707
526.069345	25997.303481
526.431608	25942.196108
526.793815	26132.976055
527.155964	25563.403808
527.518057	25758.136019
527.880093	25674.349522
528.242072	25904.508442
528.603995	25601.562822
528.965860	25410.613997
529.327669	25479.675284
529.689421	25456.453209
530.051117	25283.987774
530.412755	25464.241791
530.774337	25283.254286
531.135862	25141.678521
531.497331	25345.656209
531.858743	24895.919751
532.220098	25378.988318
532.581396	25051.852722
532.942638	25000.327088
533.303824	25095.153712
533.664953	25116.656754
534.026025	24789.455623
534.387040	25006.580639
534.747999	25074.701751
535.108902	25246.887402
535.469748	24718.987854
535.830537	24920.220633
536.191270	25026.263825
536.551947	24932.851244
536.912567	24593.936991
537.273131	24896.922940
537.633638	24623.460509
537.994089	24831.980276
538.354483	24388.923347
538.714821	24877.882502
539.075103	24923.129379
539.435328	24711.617687
539.795497	24258.851495
540.155609	24671.036398
540.515665	24962.931809
540.875665	24201.949471
541.235609	24475.061542
541.595496	24458.458502
541.955328	24803.076820
542.315102	24722.463729
542.674821	24290.036073
543.034483	24165.086034
543.394090	24339.754453
543.753640	24125.964159
544.113134	24742.000721
544.472571	24359.271280
544.831953	24638.150431
545.191278	24249.764815
545.550548	24181.023642
545.909761	24392.787391
546.268918	24630.434945
546.628019	24581.119858
546.987064	24288.127996
547.346053	24044.725965
547.704986	24175.672457
548.063863	24336.618855
548.422684	24313.336286
548.781449	23882.836871
549.140158	24284.997440
549.498811	23853.157078
549.857408	23594.112346
550.215949	24033.985787
550.574434	23711.583834
550.932864	23940.497589
551.291237	24072.084307
551.649555	23951.220123
552.007817	23998.075127
552.366022	23870.254151
552.724173	23924.832203
553.082267	23847.120296
553.440305	24315.841739
553.798288	23592.589918
554.156215	24117.275731
554.514086	24203.013155
554.871902	23579.603905
555.229661	23860.106308
555.587365	23718.641449
555.945014	23573.887237
556.302606	23834.582946
556.660143	23766.469396
557.017625	24033.993348
557.375050	23578.825047
557.732421	23953.705412
558.089735	23755.704012
558.446994	23832.904242
558.804197	23841.080994
559.161345	23819.953518
559.518437	23538.926835
559.875474	23749.231171
560.232455	23929.417132
560.589381	23754.383230
560.946251	23719.221182
561.303065	24058.659714
561.659825	24132.280725
562.016528	23747.479370
562.373177	23486.269463
562.729770	23837.101003
563.086307	23704.624521
563.442789	23872.941086
563.799216	23702.749212
564.155587	23706.267937
564.511904	23706.507392
564.868164	23624.177788
565.224370	23613.485500
565.580520	23509.080684
565.936615	23659.266739
566.292654	23328.080575
566.648638	23641.373163
567.004567	23456.206542
567.360441	23404.224684
567.716260	23136.153766
568.072023	23457.638229
568.427732	23222.370100
568.783385	23012.458974
569.138982	23240.220826
569.494525	23279.209109
569.850013	23027.332899
570.205445	23123.321509
570.560823	22928.634668
570.916145	22688.509387
571.271412	22867.344320
571.626625	22626.125108
571.981782	22742.953848
572.336884	22533.367877
572.691931	22677.489425
573.046923	22413.660638
573.401860	22292.743522
573.756743	22291.798306
574.111570	22201.725489
574.466342	22148.710195
574.821059	22231.617011
575.175722	21925.361874
575.530330	21911.420563
575.884882	21942.111107
576.239380	21850.140297
576.593823	21733.190568
576.948211	21722.652036
577.302544	21571.283830
577.656823	21432.437851
578.011047	21537.165301
578.365216	21416.346487
578.719330	21292.122374
579.073389	21186.449708
579.427394	21327.912046
579.781344	21114.146958
580.135239	21001.048672
580.489080	20969.143209
580.842866	20734.553115
581.196597	20917.118502
581.550273	20899.174514
581.903895	20797.174328
582.257463	21106.738983
582.610975	20638.307406
582.964434	20936.842016
583.317837	20656.463121
583.671186	20740.917572
584.024481	20707.726615
584.377721	20483.675053
584.730906	20535.561129
585.084037	20570.922302
585.437113	20468.569235
585.790135	20671.536171
586.143103	20143.132508
586.496016	20153.504682
586.848874	20397.272196
587.201679	20335.805408
587.554428	19999.061372
587.907124	20334.489666
588.259765	20114.334916
588.612352	20192.543377
588.964884	19761.721328
589.317362	19927.613098
589.669786	19982.861624
590.022155	20033.023625
590.374470	20208.037363
590.726731	20016.644916
591.078937	19756.110524
591.431090	19871.500015
591.783188	19624.344845
592.135232	19590.687581
592.487222	19686.714000
592.839157	19721.041737
593.191038	19600.336349
593.542866	19490.119082
593.894639	19203.506801
594.246358	19420.946890
594.598022	19334.322223
594.949633	19090.940356
595.301190	19033.700575
595.652692	19214.297391
596.004141	19445.940931
596.355535	18788.937432
596.706876	18790.394326
597.058162	18678.707562
597.409395	18904.760462
597.760573	18995.332353
598.111698	18772.082334
598.462768	18707.623621
598.813785	18674.286470
599.164748	18488.945928
599.515657	18528.007309
599.866511	18310.405903
600.217312	18673.041305
600.568060	18194.812246
600.918753	18521.607564
601.269392	18412.335513
601.619978	18188.387295
601.970510	18400.090551
602.320988	18343.599381
602.671412	18549.517913
603.021783	18449.932439
603.372100	18196.861475
603.722363	18326.335949
604.072572	18269.191950
604.422728	18403.163134
604.772830	18163.967946
605.122878	18112.631356
605.472872	18113.702601
605.822813	18097.835569
606.172701	18060.954487
606.522534	18262.744314
606.872314	18280.353065
607.222041	18108.948793
607.571714	18335.059666
607.921333	18165.462648
608.270899	18227.708295
608.620411	18421.684333
608.969870	18180.460081
609.319276	18189.549281
609.668627	18218.805617
610.017926	18352.123972
610.367171	18474.939083
610.716362	18504.583588
611.065500	18324.740424
611.414585	18457.353017
611.763616	18445.455894
612.112594	18392.314571
612.461518	18360.943471
612.810389	18563.975942
613.159207	18398.747083
613.507971	18309.740471
613.856682	18596.327547
614.205340	18528.266928
614.553945	18668.963012
614.902496	18411.748219
615.250994	18641.773548
615.599439	18593.365869
615.947830	18574.448939
616.296169	18615.042830
616.644454	18584.364888
616.992686	18555.350527
617.340864	18769.680224
617.688990	18535.896715
618.037063	18706.249906
618.385082	18545.139670
618.733048	18835.857972
619.080961	18692.172484
619.428821	18742.026975
619.776628	18626.415673
620.124382	18552.174601
620.472083	18584.967306
620.819731	18614.057285
621.167326	18307.086303
621.514868	18342.976798
621.862357	18104.338657
622.209793	18127.243140
622.557176	17953.930791
622.904506	17780.749513
623.251783	17683.666972
623.599007	17452.204914
623.946179	17408.069612
624.293297	17343.593254
624.640363	17107.364785
624.987376	17125.313813
625.334336	16913.154333
625.681243	16754.418481
626.028097	16762.262516
626.374899	16700.125254
626.721647	16564.472845
627.068343	16394.865744
627.414987	16333.598081
627.761577	16303.051209
628.108115	16348.459403
628.454600	16064.864252
628.801032	16162.123233
629.147412	16097.059581
629.493739	16125.932789
629.840014	15926.945844
630.186236	16030.319745
630.532405	15786.229596
630.878521	15991.820453
631.224585	15879.846344
631.570597	15704.547781
631.916556	15734.411576
632.262462	15715.726539
632.608316	15626.939217
632.954117	15577.286372
633.299866	15568.408900
633.645562	15489.955944
633.991206	15246.783285
634.336797	15116.998779
634.682336	15090.510036
635.027823	14981.916021
635.373257	14860.905643
635.718639	14750.085958
636.063968	14710.207911
636.409245	14463.183811
636.754470	14485.319517
637.099642	14344.245347
637.444762	14108.493267
637.789829	14144.479544
