Dividing Wavelength (nm)	Counts (n)	Blue Motor Position (mm): 30.000000	Red Motor Position (mm): 0.000000	
326.493990	2211.909594
326.888308	2211.909594
327.282561	2211.909594
327.676750	2172.581032
328.070874	2171.613130
328.464933	2170.395692
328.858929	2174.743687
329.252859	2179.323575
329.646726	2188.511078
330.040528	2197.675896
330.434265	2212.569985
330.827938	2230.332490
331.221547	2247.840418
331.615091	2266.263314
332.008571	2280.678494
332.401986	2301.785805
332.795338	2319.104689
333.188625	2341.903307
333.581847	2357.724969
333.975006	2378.096271
334.368100	2395.800804
334.761129	2415.466345
335.154095	2432.258428
335.546996	2459.858746
335.939833	2495.227481
336.332606	2508.526045
336.725315	2524.572038
337.117960	2534.891279
337.510540	2548.837632
337.903056	2558.080587
338.295508	2566.605178
338.687896	2580.052456
339.080220	2582.815008
339.472480	2590.003694
339.864676	2596.007708
340.256807	2602.253698
340.648875	2604.915427
341.040879	2606.019440
341.432818	2608.474482
341.824694	2614.493619
342.216506	2612.817436
342.608253	2614.060080
342.999937	2615.252313
343.391557	2617.719958
343.783113	2615.345574
344.174605	2615.204422
344.566033	2612.260388
344.957397	2614.760800
345.348697	2608.701333
345.739934	2609.205449
346.131106	2606.742845
346.522215	2605.001127
346.913260	2602.828389
347.304241	2601.855447
347.695159	2599.942329
348.086012	2600.532144
348.476802	2596.854622
348.867528	2590.356575
349.258191	2590.648962
349.648789	2589.318097
350.039324	2586.500092
350.429796	2588.435895
350.820203	2588.428333
351.210548	2586.963878
351.600828	2584.632344
351.991045	2583.140163
352.381198	2585.189392
352.771288	2583.533373
353.161314	2583.838363
353.551276	2579.361818
353.941175	2580.778382
354.331010	2579.639082
354.720782	2582.525142
355.110490	2581.000193
355.500135	2580.939699
355.889717	2580.796026
356.279235	2579.192939
356.668689	2580.710327
357.058080	2579.407188
357.447408	2583.119998
357.836672	2579.243351
358.225873	2583.334247
358.615010	2581.247210
359.004084	2582.512539
359.393095	2580.538927
359.782043	2584.342478
360.170927	2584.728126
360.559748	2582.371387
360.948505	2586.686615
361.337199	2588.077973
361.725830	2585.514546
362.114398	2584.463466
362.502903	2588.085535
362.891344	2589.272727
363.279722	2586.346337
363.668037	2589.171903
364.056289	2589.378591
364.444478	2589.030751
364.832603	2591.095104
365.220665	2594.492841
365.608665	2593.751792
365.996601	2592.882193
366.384474	2590.689291
366.772284	2593.199785
367.160031	2592.864549
367.547715	2596.796649
367.935336	2595.193562
368.322893	2593.900506
368.710388	2593.035948
369.097820	2591.831112
369.485189	2591.415217
369.872495	2595.652307
370.259738	2596.781525
370.646918	2595.685074
371.034035	2596.095928
371.421090	2595.672471
371.808081	2591.705083
372.195010	2595.218767
372.581875	2597.232708
372.968678	2596.867225
373.355418	2596.302616
373.742096	2598.702205
374.128710	2598.223295
374.515262	2598.399736
374.901751	2598.697164
375.288177	2602.452823
375.674540	2598.435024
376.060841	2599.261773
376.447079	2600.340580
376.833254	2602.115066
377.219367	2601.235385
377.605417	2601.472319
377.991404	2602.672113
378.377329	2600.776640
378.763191	2599.914602
379.148991	2601.658842
379.534727	2602.596496
379.920402	2602.576332
380.306013	2603.400560
380.691563	2601.366455
381.077049	2601.626074
381.462474	2604.295365
381.847835	2603.957608
382.233134	2603.375354
382.618371	2604.315530
383.003545	2607.627568
383.388657	2602.788060
383.773706	2606.871395
384.158693	2609.064297
384.543618	2607.531786
384.928480	2607.556992
385.313280	2607.209152
385.698017	2605.860643
386.082692	2608.905500
386.467305	2607.861981
386.851856	2609.633947
387.236344	2609.386930
387.620770	2606.826024
388.005133	2607.587238
388.389435	2609.276025
388.773674	2605.563215
389.157851	2611.473968
389.541965	2609.626385
389.926018	2610.397682
390.310008	2611.645367
390.693936	2612.431787
391.077802	2611.221910
391.461606	2612.789709
391.845348	2611.824328
392.229027	2612.441870
392.612645	2612.361211
392.996200	2614.841459
393.379694	2616.202570
393.763125	2613.253495
394.146494	2612.963629
394.529801	2615.474124
394.913047	2612.716612
395.296230	2614.324741
395.679351	2616.603342
396.062410	2616.074021
396.445408	2617.780452
396.828343	2617.447735
397.211217	2615.423712
397.594028	2614.448249
397.976778	2620.303549
398.359466	2618.365225
398.742092	2617.296501
399.124656	2620.021244
399.507158	2619.476800
399.889598	2621.939403
400.271977	2622.904784
400.654294	2621.349588
401.036549	2623.814713
401.418742	2620.767335
401.800874	2621.500823
402.182944	2621.495782
402.564952	2624.770011
402.946898	2624.457460
403.328783	2624.694394
403.710606	2626.224384
404.092367	2624.449898
404.474067	2624.515433
404.855705	2626.065588
405.237282	2627.189765
405.618797	2624.873355
406.000250	2626.229425
406.381642	2628.757564
406.762972	2624.039044
407.144240	2624.787655
407.525447	2626.400825
407.906593	2623.328241
408.287677	2628.104735
408.668700	2630.423665
409.049661	2627.945938
409.430560	2631.749489
409.811399	2632.853502
410.192176	2634.547329
410.572891	2633.019860
410.953545	2633.352576
411.334138	2632.493059
411.714669	2634.832154
412.095139	2634.292751
412.475547	2635.689151
412.855894	2636.697381
413.236180	2636.152937
413.616405	2636.420118
413.996568	2637.153606
414.376670	2638.214769
414.756711	2639.129738
415.136691	2637.897176
415.516609	2643.480254
415.896466	2639.812814
416.276262	2641.322640
416.655997	2644.412867
417.035670	2644.382620
417.415283	2646.041160
417.794834	2647.251037
418.174324	2646.278094
418.553753	2647.036788
418.933121	2646.903197
419.312428	2650.058960
419.691674	2648.902015
420.070859	2652.471152
420.449983	2650.701707
420.829045	2651.173055
421.208047	2653.270175
421.586988	2655.226142
421.965867	2658.790238
422.344686	2660.799138
422.723444	2661.462050
423.102141	2663.450785
423.480777	2670.039573
423.859352	2671.556960
424.237866	2683.499454
424.616319	2687.860052
424.994712	2700.727597
425.373044	2705.307485
425.751314	2717.585215
426.129524	2727.193655
426.507673	2744.620923
426.885762	2761.183634
427.263789	2786.649023
427.641756	2807.201807
428.019662	2833.521672
428.397508	2866.306816
428.775292	2893.040054
429.153016	2933.671754
429.530679	2968.117959
429.908282	3017.869106
430.285824	3041.655790
430.663305	3135.454019
431.040726	3150.973212
431.418086	3207.073692
431.795385	3292.160807
432.172624	3366.253166
432.549802	3426.416817
432.926920	3504.630318
433.303977	3552.554047
433.680974	3660.507837
434.057910	3755.934358
434.434786	3850.745859
434.811601	3912.603337
435.188355	4096.474383
435.565050	4138.772184
435.941683	4219.390317
436.318257	4431.080969
436.694770	4555.179054
437.071222	4681.066747
437.447614	4754.778499
437.823946	4833.125592
438.200218	4983.457840
438.576429	5038.207292
438.952580	5220.810487
439.328670	5362.787023
439.704700	5400.041150
440.080670	5508.788921
440.456580	5839.211350
440.832429	5873.511361
441.208218	5823.183001
441.583947	6078.411579
441.959616	6263.406802
442.335224	6305.865920
442.710773	6489.923488
443.086261	6724.684982
443.461689	6486.719835
443.837057	6926.368944
444.212365	7213.077007
444.587612	7149.772718
444.962800	7413.382214
445.337927	7411.481699
445.712995	7265.457117
446.088002	8058.962458
446.462949	7962.232798
446.837837	8071.532575
447.212664	8206.338070
447.587431	8646.655133
447.962139	9231.491993
448.336786	10828.501805
448.711374	11434.556882
449.085901	10111.354821
449.460369	9948.054204
449.834776	9677.369448
450.209124	10415.611141
450.583412	10809.768877
450.957640	11674.568738
451.331808	11186.428769
451.705917	10492.483696
452.079965	10049.013392
452.453954	10880.014836
452.827883	10664.792855
453.201752	10993.594553
453.575562	10668.447691
453.949311	11113.102666
454.323001	11148.839406
454.696632	11414.609037
455.070202	11726.308620
455.443713	12023.159485
455.817164	12506.023885
456.190556	12594.158378
456.563888	12992.351559
456.937160	13228.055748
457.310373	12671.802230
457.683526	12799.424080
458.056619	12437.118874
458.429653	12604.081889
458.802628	12157.302068
459.175542	12523.713294
459.548398	13478.946413
459.921194	13822.974916
460.293930	13905.433070
460.666607	14805.982272
461.039224	15804.423121
461.411782	16500.084707
461.784280	16479.970503
462.156719	16555.396247
462.529099	16283.423477
462.901419	15270.718683
463.273680	15099.858856
463.645882	14973.867819
464.018024	14740.913579
464.390106	14973.225072
464.762130	15698.016966
465.134094	16437.193792
465.505999	18360.562863
465.877845	21573.081002
466.249631	24417.796555
466.621358	24184.686040
466.993026	22768.880503
467.364634	22234.954255
467.736184	20822.221301
468.107674	20018.835298
468.479105	20148.816408
468.850477	19622.189751
469.221790	19211.643223
469.593043	18551.466318
469.964238	18012.756016
470.335373	17686.109411
470.706449	18088.912727
471.077467	17627.886605
471.448425	19431.041800
471.819324	23388.715574
472.190164	25512.578895
472.560945	22053.959188
472.931667	19638.850765
473.302330	18998.916613
473.672934	18477.512592
474.043479	18855.626856
474.413965	18666.452517
474.784393	18300.273184
475.154761	18961.627198
475.525070	18993.512496
475.895321	18637.770872
476.265513	19208.782368
476.635645	19787.721079
477.005719	19584.469318
477.375734	19784.076325
477.745691	20251.968498
478.115588	20753.729664
478.485427	21263.168507
478.855207	22306.397487
479.224928	24049.593199
479.594591	26264.590499
479.964194	26350.310279
480.333739	26555.074387
480.703226	26118.540711
481.072653	25790.948890
481.442022	26331.093401
481.811333	27221.096510
482.180584	27179.849789
482.549777	26233.065644
482.918912	25867.705498
483.287988	25989.356102
483.657005	25695.577821
484.025964	25401.716360
484.394864	25346.525808
484.763706	25050.607557
485.132489	24466.846982
485.501213	24631.664987
485.869879	24546.585433
486.238487	24341.518857
486.607036	24507.652602
486.975527	24178.616491
487.343959	24520.663820
487.712333	24477.319979
488.080648	24141.869000
488.448905	24615.397183
488.817104	24357.133831
489.185244	25011.336968
489.553326	25000.395144
489.921350	25966.670910
490.289315	28212.789774
490.657222	30013.535298
491.025070	30516.995332
491.392861	30314.474538
491.760593	29477.713576
492.128267	28568.672550
492.495883	27551.718064
492.863440	26671.903127
493.230939	25799.901979
493.598380	25644.354657
493.965763	25230.312088
494.333088	24805.667973
494.700354	24727.197373
495.067563	24609.461225
495.434713	24369.615728
495.801805	24508.779300
496.168839	24326.891949
496.535815	24146.688343
496.902733	24361.885118
497.269593	24030.187277
497.636395	24212.218302
498.003139	24203.247568
498.369825	23957.561894
498.736453	24151.270752
499.103023	24029.761300
499.469535	24048.559762
499.835989	24262.864254
500.202385	24279.298415
500.568723	23782.785091
500.935003	24052.822058
501.301226	23645.731241
501.667390	24475.051460
502.033497	24715.892585
502.399546	24451.312667
502.765537	24022.151678
503.131470	24409.919753
503.497345	24538.690986
503.863163	23749.349638
504.228923	24368.980542
504.594625	24565.882970
504.960269	24085.841616
505.325856	24587.363327
505.691385	23992.308047
506.056856	24593.614357
506.422270	24550.653644
506.787625	24140.023937
507.152924	24549.617687
507.518164	24575.120885
507.883347	24397.291662
508.248472	24080.427417
508.613540	24855.041034
508.978550	24635.108095
509.343503	24627.201045
509.708398	24897.316150
510.073236	25049.218719
510.438016	25253.559369
510.802738	24930.000471
511.167403	25173.062225
511.532010	24879.747729
511.896561	25654.734392
512.261053	25636.515662
512.625488	25465.353366
512.989866	25364.701688
513.354186	25218.331786
513.718449	25304.795136
514.082655	25704.412443
514.446803	25440.964263
514.810894	25884.399279
515.174927	25368.152358
515.538904	25400.219137
515.902822	25889.402624
516.266684	25649.778938
516.630488	25553.644134
516.994235	25543.541662
517.357925	25831.683933
517.721558	26001.817835
518.085133	26110.429494
518.448651	26030.723811
518.812112	25742.407619
519.175516	25940.459431
519.538863	26093.229077
519.902152	25879.960543
520.265385	26178.696800
520.628560	25968.455478
520.991678	25989.618242
521.354739	26048.488837
521.717743	26112.801357
522.080690	25913.222076
522.443580	26241.761634
522.806413	26228.465591
523.169189	26321.099313
523.531908	26373.539916
523.894569	25988.723438
524.257174	26051.521091
524.619722	26251.377635
524.982213	25931.445847
525.344647	26008.169688
525.707025	26131.093184
526.069345	26123.052543
526.431608	26071.582363
526.793815	26261.964058
527.155964	25722.182510
527.518057	25889.087552
527.880093	25805.212835
528.242072	26047.256275
528.603995	25742.828556
528.965860	25552.588012
529.327669	25584.622025
529.689421	25581.196561
530.051117	25411.128194
530.412755	25593.665855
530.774337	25394.857870
531.135862	25268.216524
531.497331	25474.293852
531.858743	25023.813824
532.220098	25498.330074
532.581396	25171.529714
532.942638	25123.119513
533.303824	25220.900254
533.664953	25228.214968
534.026025	24888.370623
534.387040	25134.250381
534.747999	25187.482445
535.108902	25360.832603
535.469748	24852.162535
535.830537	25038.455855
536.191270	25150.059440
536.551947	25041.563727
536.912567	24693.802249
537.273131	25024.764081
537.633638	24736.188271
537.994089	24947.016886
538.354483	24486.835157
538.714821	24978.551824
539.075103	25023.471025
539.435328	24823.017104
539.795497	24373.015986
540.155609	24770.873930
540.515665	25064.654732
540.875665	24296.990345
541.235609	24596.243319
541.595496	24567.980090
541.955328	24915.728965
542.315102	24820.234388
542.674821	24390.428131
543.034483	24257.054324
543.394090	24424.990282
543.753640	24210.186717
544.113134	24845.167934
544.472571	24448.653458
544.831953	24737.486368
545.191278	24353.297512
545.550548	24277.604587
545.909761	24476.755370
546.268918	24712.802358
546.628019	24675.409599
546.987064	24390.418049
547.346053	24141.367405
547.704986	24279.984012
548.063863	24416.344703
548.422684	24415.296143
548.781449	23971.982115
549.140158	24380.476893
549.498811	23941.074801
549.857408	23683.736500
550.215949	24126.919458
550.574434	23806.493637
550.932864	24020.495659
551.291237	24166.754656
551.649555	24028.947153
552.007817	24083.842798
552.366022	23950.905051
552.724173	24000.091589
553.082267	23936.336116
553.440305	24403.996397
553.798288	23679.149050
554.156215	24203.991138
554.514086	24295.853564
554.871902	23652.123424
555.229661	23945.027065
555.587365	23803.660509
555.945014	23658.427387
556.302606	23920.262397
556.660143	23863.251988
557.017625	24110.260965
557.375050	23653.129134
557.732421	24039.485686
558.089735	23847.301777
558.446994	23909.257558
558.804197	23935.489202
559.161345	23877.626838
559.518437	23637.735971
559.875474	23842.792465
560.232455	24008.785059
560.589381	23839.006559
560.946251	23817.155678
561.303065	24147.447036
561.659825	24227.873605
562.016528	23832.266536
562.373177	23566.622934
562.729770	23931.143728
563.086307	23801.127329
563.442789	23957.907213
563.799216	23783.037148
564.155587	23798.972236
564.511904	23787.874135
564.868164	23710.492424
565.224370	23696.999776
565.580520	23603.181382
565.936615	23739.652978
566.292654	23413.586106
566.648638	23727.660073
567.004567	23545.008987
567.360441	23494.665504
567.716260	23223.648032
568.072023	23556.154978
568.427732	23320.864164
568.783385	23089.535696
569.138982	23325.736439
569.494525	23361.662222
569.850013	23119.162557
570.205445	23206.061967
570.560823	23015.138347
570.916145	22774.077932
571.271412	22938.671605
571.626625	22706.821378
571.981782	22820.610303
572.336884	22622.868523
572.691931	22751.435590
573.046923	22495.801199
573.401860	22374.445502
573.756743	22376.963559
574.111570	22281.652983
574.466342	22229.822360
574.821059	22321.825938
575.175722	22013.965194
575.530330	22001.463132
575.884882	22024.191174
576.239380	21934.375457
576.593823	21832.685301
576.948211	21801.047020
577.302544	21650.303917
577.656823	21517.963546
578.011047	21619.570523
578.365216	21488.276191
578.719330	21359.774659
579.073389	21267.597161
579.427394	21412.477402
579.781344	21189.030778
580.135239	21075.814025
580.489080	21032.203003
580.842866	20806.694547
581.196597	20985.501753
581.550273	20970.055658
581.903895	20860.208916
582.257463	21184.145900
582.610975	20712.969415
582.964434	21025.203361
583.317837	20722.913091
583.671186	20818.090075
584.024481	20789.441198
584.377721	20565.513144
584.730906	20611.380082
585.084037	20644.470216
585.437113	20549.847759
585.790135	20747.080382
586.143103	20210.968794
586.496016	20229.316074
586.848874	20469.958073
587.201679	20397.229347
587.554428	20073.617517
587.907124	20403.709750
588.259765	20187.920639
588.612352	20258.637945
588.964884	19830.749848
589.317362	19994.234467
589.669786	20053.727644
590.022155	20090.331462
590.374470	20288.509302
590.726731	20088.491441
591.078937	19845.689307
591.431090	19933.193656
591.783188	19684.221149
592.135232	19663.368417
592.487222	19762.721997
592.839157	19785.099679
593.191038	19664.293468
593.542866	19548.478000
593.894639	19268.033570
594.246358	19487.003649
594.598022	19386.977075
594.949633	19153.153236
595.301190	19107.573643
595.652692	19289.458474
596.004141	19511.478451
596.355535	18838.791923
596.706876	18862.089616
597.058162	18743.045288
597.409395	18977.476586
597.760573	19055.916940
598.111698	18832.114915
598.462768	18769.652498
598.813785	18726.096929
599.164748	18551.678047
599.515657	18593.852340
599.866511	18384.021873
600.217312	18741.946317
600.568060	18259.255836
600.918753	18575.187468
601.269392	18475.894381
601.619978	18259.996885
601.970510	18466.979101
602.320988	18419.138551
602.671412	18621.218244
603.021783	18525.033028
603.372100	18246.816789
603.722363	18391.606289
604.072572	18341.560234
604.422728	18470.631417
604.772830	18240.815295
605.122878	18186.932922
605.472872	18186.154064
605.822813	18163.960384
606.172701	18134.298235
606.522534	18331.220827
606.872314	18352.519702
607.222041	18189.027522
607.571714	18408.612621
607.921333	18235.149038
608.270899	18315.419331
608.620411	18492.041197
608.969870	18256.589065
609.319276	18257.239374
609.668627	18291.897307
610.017926	18420.479497
610.367171	18543.347540
610.716362	18582.857583
611.065500	18390.986227
611.414585	18539.859062
611.763616	18516.470628
612.112594	18456.599365
612.461518	18424.514941
612.810389	18627.723853
613.159207	18479.019897
613.507971	18384.042038
613.856682	18673.784875
614.205340	18590.401670
614.553945	18751.227081
614.902496	18484.537439
615.250994	18717.678202
615.599439	18661.764244
615.947830	18644.339496
616.296169	18697.001909
616.644454	18658.913472
616.992686	18624.366444
617.340864	18838.151697
617.688990	18607.980174
618.037063	18783.019118
618.385082	18627.315519
618.733048	18907.807840
619.080961	18775.873282
619.428821	18812.209919
619.776628	18709.645123
620.124382	18638.917735
620.472083	18668.920162
620.819731	18688.643676
621.167326	18381.748313
621.514868	18425.321526
621.862357	18196.995065
622.209793	18204.697948
622.557176	18032.381228
622.904506	17856.686934
623.251783	17767.871885
623.599007	17529.521090
623.946179	17478.222309
624.293297	17417.607475
624.640363	17184.290272
624.987376	17191.683124
625.334336	16989.719377
625.681243	16828.165520
626.028097	16843.498190
626.374899	16766.590347
626.721647	16634.479348
627.068343	16465.940972
627.414987	16402.654327
627.761577	16378.938219
628.108115	16428.086948
628.454600	16142.414842
628.801032	16234.829274
629.147412	16161.677091
629.493739	16180.621747
629.840014	15992.309445
630.186236	16098.760970
630.532405	15862.378746
630.878521	16053.372942
631.224585	15943.672393
631.570597	15762.841163
631.916556	15804.264324
632.262462	15785.226407
632.608316	15701.651638
632.954117	15646.607279
633.299866	15639.809283
633.645562	15559.039916
633.991206	15316.807432
634.336797	15182.896742
634.682336	15154.933462
635.027823	15040.312747
635.373257	14917.928655
635.718639	14815.588191
636.063968	14772.819042
636.409245	14527.766033
636.754470	14551.512388
