Dividing Wavelength (nm)	Counts (n)	Blue Motor Position (mm): 17.900000	Red Motor Position (mm): 0.000000	
326.493990	2177.196208
326.888308	2177.196208
327.282561	2177.196208
327.676750	2139.531227
328.070874	2135.495784
328.464933	2136.105763
328.858929	2140.786475
329.252859	2144.786630
329.646726	2153.994298
330.040528	2163.930412
330.434265	2178.282577
330.827938	2197.877542
331.221547	2212.912783
331.615091	2231.050855
332.008571	2249.340161
332.401986	2265.726432
332.795338	2286.301901
333.188625	2305.382668
333.581847	2322.162149
333.975006	2342.069665
334.368100	2359.050792
334.761129	2378.423946
335.154095	2397.819786
335.546996	2418.017169
335.939833	2447.291149
336.332606	2463.518623
336.725315	2474.205869
337.117960	2487.882520
337.510540	2501.319715
337.903056	2509.012516
338.295508	2521.628004
338.687896	2529.439272
339.080220	2533.303316
339.472480	2542.798329
339.864676	2547.892415
340.256807	2552.449618
340.648875	2554.541697
341.040879	2558.075546
341.432818	2561.894220
341.824694	2564.974365
342.216506	2568.362020
342.608253	2566.353121
342.999937	2567.867987
343.391557	2568.087277
343.783113	2566.547205
344.174605	2567.207596
344.566033	2567.409242
344.957397	2562.456309
345.348697	2562.237018
345.739934	2562.030331
346.131106	2557.964641
346.522215	2558.771225
346.913260	2553.944320
347.304241	2553.929197
347.695159	2553.094886
348.086012	2552.671429
348.476802	2547.075748
348.867528	2546.276725
349.258191	2541.177598
349.648789	2542.430325
350.039324	2537.699202
350.429796	2540.053421
350.820203	2537.361445
351.210548	2537.346321
351.600828	2536.128883
351.991045	2537.008564
352.381198	2535.213913
352.771288	2534.258615
353.161314	2533.318439
353.551276	2531.785929
353.941175	2533.567977
354.331010	2532.605116
354.720782	2533.804911
355.110490	2531.816176
355.500135	2532.726104
355.889717	2532.411032
356.279235	2530.870959
356.668689	2531.937163
357.058080	2529.799714
357.447408	2531.745599
357.836672	2532.756351
358.225873	2534.291382
358.615010	2532.824406
359.004084	2537.303472
359.393095	2533.560415
359.782043	2534.979500
360.170927	2534.931609
360.559748	2536.048224
360.948505	2534.924047
361.337199	2537.152237
361.725830	2537.369007
362.114398	2538.962011
362.502903	2538.528472
362.891344	2536.872453
363.279722	2539.080478
363.668037	2541.187681
364.056289	2540.640715
364.444478	2541.172557
364.832603	2541.222969
365.220665	2543.849410
365.608665	2542.909235
365.996601	2540.965870
366.384474	2544.529966
366.772284	2544.885367
367.160031	2543.730943
367.547715	2544.613145
367.935336	2542.878988
368.322893	2541.056611
368.710388	2543.415871
369.097820	2545.018957
369.485189	2538.714995
369.872495	2544.650953
370.259738	2546.553989
370.646918	2547.935265
371.034035	2547.048022
371.421090	2545.215563
371.808081	2548.875440
372.195010	2545.906201
372.581875	2548.704041
372.968678	2549.674463
373.355418	2548.020965
373.742096	2547.771428
374.128710	2547.453835
374.515262	2550.571788
374.901751	2548.993907
375.288177	2549.694628
375.674540	2551.416182
376.060841	2549.692107
376.447079	2551.948023
376.833254	2550.589432
377.219367	2548.038609
377.605417	2549.419885
377.991404	2549.616490
378.377329	2551.186809
378.763191	2549.782848
379.148991	2552.164793
379.534727	2550.856614
379.920402	2549.979453
380.306013	2551.688404
380.691563	2553.956923
381.077049	2552.255534
381.462474	2552.152190
381.847835	2553.372149
382.233134	2551.827036
382.618371	2552.903322
383.003545	2556.021276
383.388657	2552.852911
383.773706	2555.786862
384.158693	2554.224104
384.543618	2554.360216
384.928480	2553.979608
385.313280	2557.331976
385.698017	2555.870041
386.082692	2556.905998
386.467305	2555.870041
386.851856	2555.917932
387.236344	2556.631255
387.620770	2552.474824
388.005133	2554.183775
388.389435	2556.535473
388.773674	2551.758980
389.157851	2556.797613
389.541965	2553.876265
389.926018	2558.385577
390.310008	2557.337017
390.693936	2558.073025
391.077802	2558.395659
391.461606	2558.055381
391.845348	2561.695094
392.229027	2559.469425
392.612645	2558.796431
392.996200	2559.000598
393.379694	2560.117213
393.763125	2559.103941
394.146494	2559.542522
394.529801	2562.284909
394.913047	2560.971689
395.296230	2563.797256
395.679351	2562.143757
396.062410	2562.219374
396.445408	2561.369940
396.828343	2562.645352
397.211217	2562.796587
397.594028	2560.737275
397.976778	2561.367419
398.359466	2564.140054
398.742092	2561.516133
399.124656	2561.306926
399.507158	2562.720969
399.889598	2565.924623
400.271977	2563.116700
400.654294	2564.949159
401.036549	2563.376319
401.418742	2562.572255
401.800874	2561.720300
402.182944	2565.654921
402.564952	2563.237687
402.946898	2563.462019
403.328783	2566.569890
403.710606	2568.195662
404.092367	2565.433110
404.474067	2565.581824
404.855705	2564.886145
405.237282	2565.818758
405.618797	2564.019066
406.000250	2567.290775
406.381642	2565.677606
406.762972	2563.474622
407.144240	2563.086453
407.525447	2566.406053
407.906593	2563.817420
408.287677	2567.305899
408.668700	2566.547205
409.049661	2566.884962
409.430560	2567.860426
409.811399	2567.716753
410.192176	2569.019891
410.572891	2568.064592
410.953545	2567.056362
411.334138	2568.813204
411.714669	2566.983265
412.095139	2568.808162
412.475547	2569.960066
412.855894	2570.524675
413.236180	2566.096022
413.616405	2569.241702
413.996568	2570.045766
414.376670	2571.180025
414.756711	2568.800601
415.136691	2572.263873
415.516609	2569.133317
415.896466	2568.520817
416.276262	2572.767989
416.655997	2568.377144
417.035670	2570.191959
417.415283	2570.073492
417.794834	2571.482495
418.174324	2568.840930
418.553753	2569.962587
418.933121	2571.454768
419.312428	2572.727660
419.691674	2573.569532
420.070859	2571.747155
420.449983	2574.721436
420.829045	2569.861764
421.208047	2573.002402
421.586988	2574.970973
421.965867	2574.434090
422.344686	2573.725808
422.723444	2574.741601
423.102141	2572.468040
423.480777	2574.688668
423.859352	2572.354614
424.237866	2574.126580
424.616319	2574.718915
424.994712	2576.463155
425.373044	2575.225551
425.751314	2574.277814
426.129524	2571.099367
426.507673	2569.939902
426.885762	2571.159861
427.263789	2571.661456
427.641756	2573.776220
428.019662	2577.725964
428.397508	2577.047928
428.775292	2576.949626
429.153016	2574.308061
429.530679	2576.201015
429.908282	2576.138000
430.285824	2577.279822
430.663305	2576.788309
431.040726	2576.516087
431.418086	2578.958526
431.795385	2575.258319
432.172624	2577.453741
432.549802	2577.375603
432.926920	2577.889801
433.303977	2576.861406
433.680974	2578.101530
434.057910	2579.949112
434.434786	2576.458113
434.811601	2575.160016
435.188355	2576.994996
435.565050	2576.929461
435.941683	2575.641447
436.318257	2581.728640
436.694770	2577.015161
437.071222	2577.917527
437.447614	2576.765624
437.823946	2581.534555
438.200218	2577.829307
438.576429	2577.690676
438.952580	2579.823084
439.328670	2581.095975
439.704700	2579.457600
440.080670	2581.118660
440.456580	2577.521797
440.832429	2581.196798
441.208218	2580.002045
441.583947	2582.056315
441.959616	2581.262333
442.335224	2581.118660
442.710773	2580.400296
443.086261	2580.286870
443.461689	2579.502970
443.837057	2580.710327
444.212365	2583.230904
444.587612	2581.332909
444.962800	2578.363670
445.337927	2580.160841
445.712995	2577.771334
446.088002	2581.884916
446.462949	2582.807447
446.837837	2583.190574
447.212664	2582.116809
447.587431	2583.944227
447.962139	2582.923393
448.336786	2585.466655
448.711374	2586.217787
449.085901	2586.253075
449.460369	2582.888105
449.834776	2585.943044
450.209124	2583.500605
450.583412	2586.905905
450.957640	2588.826584
451.331808	2584.924731
451.705917	2583.119998
452.079965	2583.402303
452.453954	2584.473548
452.827883	2583.167889
453.201752	2585.196954
453.575562	2583.430029
453.949311	2587.329362
454.323001	2585.630493
454.696632	2587.467993
455.070202	2590.134764
455.443713	2587.956985
455.817164	2585.670822
456.190556	2588.209043
456.563888	2590.520412
456.937160	2587.115113
457.310373	2586.235431
457.683526	2588.498909
458.056619	2587.389856
458.429653	2589.897830
458.802628	2591.556369
459.175542	2588.698035
459.548398	2591.447984
459.921194	2589.348344
460.293930	2589.766760
460.666607	2589.895309
461.039224	2592.864549
461.411782	2591.697522
461.784280	2591.057295
462.156719	2595.385126
462.529099	2593.073757
462.901419	2591.364805
463.273680	2588.226687
463.645882	2588.251893
464.018024	2589.890268
464.390106	2587.105030
464.762130	2593.474528
465.134094	2594.165166
465.505999	2594.235742
465.877845	2600.423759
466.249631	2603.072885
466.621358	2598.525764
466.993026	2598.142637
467.364634	2603.385437
467.736184	2600.668255
468.107674	2599.622215
468.479105	2599.047524
468.850477	2597.545260
469.221790	2598.697164
469.593043	2599.148347
469.964238	2599.846547
470.335373	2596.274889
470.706449	2598.215733
471.077467	2596.990733
471.448425	2600.645570
471.819324	2603.219079
472.190164	2604.156733
472.560945	2602.472988
472.931667	2599.430652
473.302330	2600.292689
473.672934	2598.273707
474.043479	2598.515682
474.413965	2600.862339
474.784393	2599.017277
475.154761	2600.738831
475.525070	2603.226640
475.895321	2601.316043
476.265513	2601.459716
476.635645	2604.756631
477.005719	2603.163626
477.375734	2601.782350
477.745691	2601.018615
478.115588	2603.960128
478.485427	2606.117742
478.855207	2605.323760
479.224928	2611.506736
479.594591	2608.983638
479.964194	2610.745521
480.333739	2608.497167
480.703226	2610.911879
481.072653	2611.234513
481.442022	2612.419184
481.811333	2612.567898
482.180584	2611.516818
482.549777	2613.666870
482.918912	2609.802826
483.287988	2614.690224
483.657005	2614.533948
484.025964	2611.670573
484.394864	2615.481685
484.763706	2613.523197
485.132489	2612.293156
485.501213	2614.362549
485.869879	2615.453959
486.238487	2614.745677
486.607036	2615.048146
486.975527	2617.735081
487.343959	2615.234669
487.712333	2618.488734
488.080648	2616.260544
488.448905	2619.449073
488.817104	2617.218363
489.185244	2620.638786
489.553326	2620.089300
489.921350	2622.299846
490.289315	2626.128602
490.657222	2628.329066
491.025070	2630.421145
491.392861	2634.353245
491.760593	2632.157822
492.128267	2631.646145
492.495883	2629.289406
492.863440	2627.628346
493.230939	2624.386884
493.598380	2627.590537
493.965763	2628.608850
494.333088	2628.631535
494.700354	2631.073974
495.067563	2632.760240
495.434713	2628.845784
495.801805	2635.527834
496.168839	2631.167236
496.535815	2634.864922
496.902733	2635.616054
497.269593	2635.366517
497.636395	2635.928605
498.003139	2642.159472
498.369825	2641.937661
498.736453	2639.802732
499.103023	2642.724081
499.469535	2648.125677
499.835989	2647.344298
500.202385	2645.647950
500.568723	2649.154072
500.935003	2652.481234
501.301226	2651.626758
501.667390	2662.243428
502.033497	2666.374654
502.399546	2668.721311
502.765537	2669.921106
503.131470	2676.300686
503.497345	2681.150276
503.863163	2681.286387
504.228923	2684.525328
504.594625	2690.070598
504.960269	2696.944211
505.325856	2698.035621
505.691385	2704.054758
506.056856	2711.828218
506.422270	2720.269630
506.787625	2721.837429
507.152924	2731.226578
507.518164	2736.648339
507.883347	2742.564133
508.248472	2751.431522
508.613540	2762.688419
508.978550	2772.972373
509.343503	2780.443363
509.708398	2791.672533
510.073236	2807.776499
510.438016	2820.167655
510.802738	2828.702328
511.167403	2845.852334
511.532010	2854.087059
511.896561	2879.842314
512.261053	2894.123902
512.625488	2911.339443
512.989866	2923.082811
513.354186	2938.644853
513.718449	2960.916670
514.082655	2986.210660
514.446803	3002.917044
514.810894	3034.111704
515.174927	3048.778941
515.538904	3069.966910
515.902822	3108.337653
516.266684	3132.164667
516.630488	3151.565547
516.994235	3179.198632
517.357925	3213.836400
517.721558	3256.285436
518.085133	3288.042185
518.448651	3322.407730
518.812112	3351.764890
519.175516	3391.733678
519.538863	3439.002057
519.902152	3472.213179
520.265385	3526.899616
520.628560	3562.820357
520.991678	3617.065693
521.354739	3665.591840
521.717743	3715.408523
522.080690	3755.586519
522.443580	3831.929752
522.806413	3873.700753
523.169189	3940.833799
523.531908	3994.517046
523.894569	4036.527502
524.257174	4108.419397
524.619722	4177.057227
524.982213	4213.847568
525.344647	4290.374804
525.707025	4359.705793
526.069345	4435.544911
526.431608	4506.277341
526.793815	4597.774283
527.155964	4609.384060
527.518057	4705.395356
527.880093	4776.362199
528.242072	4851.578735
528.603995	4908.029576
528.965860	4970.330676
529.327669	5077.631635
529.689421	5137.654134
530.051117	5202.349782
530.412755	5328.418957
530.774337	5370.719279
531.135862	5447.364982
531.497331	5558.290531
531.858743	5593.581129
532.220098	5764.395586
532.581396	5783.735972
532.942638	5911.773718
533.303824	5996.018961
533.664953	6106.649602
534.026025	6172.255179
534.387040	6281.882631
534.747999	6423.770947
535.108902	6525.929930
535.469748	6560.812194
535.830537	6701.140273
536.191270	6801.910418
536.551947	6928.773575
536.912567	6930.043945
537.273131	7105.962571
537.633638	7146.818602
537.994089	7337.873292
538.354483	7339.733477
538.714821	7561.264463
539.075103	7714.487813
539.435328	7776.246989
539.795497	7792.976058
540.155609	8012.019234
540.515665	8189.833333
540.875665	8124.923436
541.235609	8300.126217
541.595496	8447.217004
541.955328	8645.175554
542.315102	8744.577025
542.674821	8771.020398
543.034483	8849.990073
543.394090	8993.234459
543.753640	9064.241632
544.113134	9357.190644
544.472571	9405.217716
544.831953	9645.668152
545.191278	9617.936765
545.550548	9753.826108
545.909761	9890.259895
546.268918	10123.788827
546.628019	10224.768179
546.987064	10329.490589
547.346053	10362.273212
547.704986	10507.932312
548.063863	10706.263907
548.422684	10777.941553
548.781449	10802.121447
549.140158	11067.802858
549.498811	11092.330592
549.857408	11071.447612
550.215949	11395.692107
550.574434	11390.250181
550.932864	11604.355547
551.291237	11771.792431
551.649555	11884.013556
552.007817	12034.378573
552.366022	12128.340639
552.724173	12243.566293
553.082267	12365.993234
553.440305	12723.985734
553.798288	12530.861650
554.156215	12906.707396
554.514086	13076.690062
554.871902	12916.020928
555.229661	13171.257068
555.587365	13272.100309
555.945014	13296.191983
556.302606	13588.208382
556.660143	13646.365653
557.017625	13937.124283
557.375050	13843.353781
557.732421	14137.454696
558.089735	14208.242578
558.446994	14337.341487
558.804197	14501.612526
559.161345	14632.523730
559.518437	14565.458740
559.875474	14852.204612
560.232455	15030.918557
560.589381	15120.363749
560.946251	15183.680642
561.303065	15535.759867
561.659825	15704.106680
562.016528	15600.485762
562.373177	15600.868890
562.729770	15894.223715
563.086307	15989.924979
563.442789	16209.018567
563.799216	16231.459263
564.155587	16327.911659
564.511904	16463.551465
564.868164	16506.260121
565.224370	16661.631003
565.580520	16664.391035
565.936615	16900.075059
566.292654	16776.859177
566.648638	17158.308165
567.004567	17108.468797
567.360441	17201.969598
567.716260	17107.195906
568.072023	17485.416035
568.427732	17407.033655
568.783385	17340.954210
569.138982	17611.538143
569.494525	17776.860263
569.850013	17708.144294
570.205445	17864.974591
570.560823	17786.834185
570.916145	17749.721211
571.271412	17946.336293
571.626625	17900.121515
571.981782	18051.835040
572.336884	17979.703690
572.691931	18197.075724
573.046923	18042.607208
573.401860	18090.281400
573.756743	18185.145833
574.111570	18185.929733
574.466342	18214.102221
574.821059	18397.683400
575.175722	18223.342656
575.530330	18333.300303
575.884882	18418.092511
576.239380	18428.951157
576.593823	18400.302279
576.948211	18448.044527
577.302544	18395.485457
577.656823	18378.819402
578.011047	18545.127067
578.365216	18492.709150
578.719330	18472.741139
579.073389	18439.948434
579.427394	18645.239342
579.781344	18492.845261
580.135239	18496.694182
580.489080	18512.281430
580.842866	18359.098408
581.196597	18592.965097
581.550273	18605.237786
581.903895	18607.239124
582.257463	18933.737015
582.610975	18565.594152
582.964434	18881.795486
583.317837	18686.876752
583.671186	18803.420667
584.024481	18833.377724
584.377721	18670.951747
584.730906	18773.440925
585.084037	18858.510396
585.437113	18802.543506
585.790135	19019.648358
586.143103	18597.497094
586.496016	18635.038567
586.848874	18928.252239
587.201679	18905.254495
587.554428	18620.298233
587.907124	18966.164237
588.259765	18797.961097
588.612352	18915.614067
588.964884	18549.303663
589.317362	18748.467049
589.669786	18819.247370
590.022155	18912.589374
590.374470	19098.970914
590.726731	18966.378486
591.078937	18746.876565
591.431090	18879.297594
591.783188	18657.121341
592.135232	18657.643101
592.487222	18798.281211
592.839157	18849.738789
593.191038	18762.753679
593.542866	18684.867852
593.894639	18450.791956
594.246358	18678.389969
594.598022	18618.110372
594.949633	18395.024191
595.301190	18383.963900
595.652692	18550.329538
596.004141	18817.183017
596.355535	18189.995423
596.706876	18222.457933
597.058162	18127.177605
597.409395	18359.897431
597.760573	18479.503847
598.111698	18275.062374
598.462768	18235.340602
598.813785	18194.613120
599.164748	18043.630562
599.515657	18088.353159
599.866511	17898.238644
600.217312	18267.175488
600.568060	17821.013208
600.918753	18137.484244
601.269392	18051.754382
601.619978	17839.791507
601.970510	18064.581598
602.320988	18019.400256
602.671412	18235.912773
603.021783	18144.572106
603.372100	17895.271925
603.722363	18037.649233
604.072572	17980.646386
604.422728	18118.032952
604.772830	17904.885406
605.122878	17851.219802
605.472872	17855.961008
605.822813	17859.303293
606.172701	17810.270510
606.522534	18032.373666
606.872314	18059.739569
607.222041	17896.486843
607.571714	18118.169063
607.921333	17950.752344
608.270899	18030.440383
608.620411	18242.088186
608.969870	17987.489752
609.319276	17998.159355
609.668627	18036.656126
610.017926	18175.597888
610.367171	18295.957956
610.716362	18342.765070
611.065500	18160.020722
611.414585	18297.230848
611.763616	18277.734185
612.112594	18238.382938
612.461518	18197.889870
612.810389	18403.573988
613.159207	18258.229961
613.507971	18160.282862
613.856682	18455.744889
614.205340	18393.237102
614.553945	18543.632365
614.902496	18265.176671
615.250994	18534.321354
615.599439	18472.821798
615.947830	18461.199418
616.296169	18483.498962
616.644454	18479.405545
616.992686	18440.523125
617.340864	18648.453077
617.688990	18413.452129
618.037063	18584.634590
618.385082	18432.253112
618.733048	18718.066371
619.080961	18579.275844
619.428821	18629.105129
619.776628	18529.711219
620.124382	18441.387683
620.472083	18472.660481
620.819731	18503.998814
621.167326	18196.226289
621.514868	18253.287110
621.862357	17999.787647
622.209793	18020.400925
622.557176	17862.751442
622.904506	17688.130914
623.251783	17589.178105
623.599007	17379.072895
623.946179	17314.344479
624.293297	17269.435360
624.640363	17026.877723
624.987376	17029.287394
625.334336	16837.474011
625.681243	16679.232192
626.028097	16686.657811
626.374899	16619.986031
626.721647	16488.500136
627.068343	16333.222515
627.414987	16248.291676
627.761577	16224.003396
628.108115	16284.451872
628.454600	16004.239336
628.801032	16092.794765
629.147412	16006.129768
629.493739	16046.239709
629.840014	15854.524628
630.186236	15960.875330
630.532405	15716.273504
630.878521	15907.600416
631.224585	15799.555887
631.570597	15623.664988
631.916556	15656.097251
632.262462	15643.229706
632.608316	15566.896554
632.954117	15497.696635
633.299866	15501.984137
633.645562	15429.547797
633.991206	15179.183933
634.336797	15050.097627
634.682336	15010.917779
635.027823	14913.936061
635.373257	14799.494307
635.718639	14688.699828
636.063968	14643.906655
636.409245	14403.607454
636.754470	14426.269962
637.099642	14272.779430
637.444762	14043.858113
637.789829	14097.228809
638.134845	13931.710084
638.479808	13953.180358
638.824719	13915.956478
639.169577	13763.285134
639.514383	13806.576043
639.859137	13622.634421
640.203839	13700.928582
640.548489	13540.945044
