Dividing Wavelength (nm)	Counts (n)	Blue Motor Position (mm): 11.500000	Red Motor Position (mm): 0.000000	
326.493990	2161.571152
326.888308	2161.571152
327.282561	2161.571152
327.676750	2125.720986
328.070874	2117.607249
328.464933	2120.402569
328.858929	2121.816613
329.252859	2126.777108
329.646726	2138.722122
330.040528	2147.680253
330.434265	2161.460247
330.827938	2179.641168
331.221547	2197.990968
331.615091	2214.026878
332.008571	2232.742162
332.401986	2250.965933
332.795338	2268.998140
333.188625	2289.344237
333.581847	2305.304530
333.975006	2325.358240
334.368100	2342.498163
334.761129	2360.679085
335.154095	2377.758514
335.546996	2397.373644
335.939833	2422.435740
336.332606	2438.448965
336.725315	2448.969853
337.117960	2461.234981
337.510540	2475.234265
337.903056	2486.034937
338.295508	2495.068685
338.687896	2503.631084
339.080220	2509.163751
339.472480	2517.537107
339.864676	2524.725793
340.256807	2529.280475
340.648875	2533.656197
341.040879	2533.182328
341.432818	2534.755168
341.824694	2542.344625
342.216506	2539.501415
342.608253	2542.637012
342.999937	2543.463762
343.391557	2541.238092
343.783113	2542.982331
344.174605	2540.270191
344.566033	2541.797660
344.957397	2539.239275
345.348697	2536.441434
345.739934	2534.326670
346.131106	2534.228368
346.522215	2535.864222
346.913260	2535.350024
347.304241	2528.330218
347.695159	2527.044723
348.086012	2527.276617
348.476802	2523.594054
348.867528	2520.362674
349.258191	2516.178516
349.648789	2515.986953
350.039324	2510.928155
350.429796	2515.729854
350.820203	2514.887981
351.210548	2512.125429
351.600828	2509.007475
351.991045	2508.460510
352.381198	2507.674090
352.771288	2508.112670
353.161314	2509.299862
353.551276	2507.608555
353.941175	2505.561846
354.331010	2507.782475
354.720782	2506.769203
355.110490	2507.316168
355.500135	2507.353977
355.889717	2508.876405
356.279235	2506.217196
356.668689	2507.311127
357.058080	2506.222237
357.447408	2508.314316
357.836672	2507.069151
358.225873	2507.580828
358.615010	2506.832217
359.004084	2512.551406
359.393095	2508.019409
359.782043	2513.738598
360.170927	2506.595283
360.559748	2509.940088
360.948505	2513.110974
361.337199	2510.345901
361.725830	2512.271622
362.114398	2512.863958
362.502903	2511.931344
362.891344	2515.213135
363.279722	2513.365552
363.668037	2514.532580
364.056289	2513.302538
364.444478	2516.861593
364.832603	2515.273629
365.220665	2516.480986
365.608665	2517.277488
365.996601	2515.838238
366.384474	2517.073321
366.772284	2517.826974
367.160031	2518.953672
367.547715	2519.339320
367.935336	2519.412417
368.322893	2515.671880
368.710388	2516.264216
369.097820	2518.958713
369.485189	2517.176665
369.872495	2520.284536
370.259738	2522.016173
370.646918	2521.328055
371.034035	2522.434588
371.421090	2522.948786
371.808081	2524.103210
372.195010	2523.838550
372.581875	2519.140194
372.968678	2522.938704
373.355418	2521.373425
373.742096	2522.752181
374.128710	2522.832839
374.515262	2523.359640
374.901751	2522.631193
375.288177	2523.233611
375.674540	2525.487007
376.060841	2526.739734
376.447079	2525.565145
376.833254	2525.426513
377.219367	2523.173117
377.605417	2525.643283
377.991404	2525.373581
378.377329	2525.751667
378.763191	2527.057326
379.148991	2526.003725
379.534727	2529.799714
379.920402	2528.148736
380.306013	2526.870804
380.691563	2529.396422
381.077049	2526.533046
381.462474	2527.639580
381.847835	2526.792666
382.233134	2528.186545
382.618371	2527.296781
383.003545	2528.844415
383.388657	2527.619415
383.773706	2529.356093
384.158693	2528.678057
384.543618	2530.407173
384.928480	2529.214940
385.313280	2526.903571
385.698017	2529.920702
386.082692	2529.729138
386.467305	2531.745599
386.851856	2530.011443
387.236344	2530.253418
387.620770	2528.577234
388.005133	2527.059847
388.389435	2529.411545
388.773674	2528.920033
389.157851	2531.037317
389.541965	2532.239633
389.926018	2533.399098
390.310008	2531.286854
390.693936	2531.773326
391.077802	2532.196783
391.461606	2533.043697
391.845348	2533.066382
392.229027	2534.518234
392.612645	2534.732483
392.996200	2533.199972
393.379694	2534.067051
393.763125	2531.939684
394.146494	2534.901362
394.529801	2534.551002
394.913047	2533.046217
395.296230	2535.055117
395.679351	2534.389685
396.062410	2534.866074
396.445408	2536.766589
396.828343	2535.523944
397.211217	2536.522093
397.594028	2537.822710
397.976778	2536.930426
398.359466	2533.842719
398.742092	2537.492515
399.124656	2536.968235
399.507158	2536.207021
399.889598	2537.936136
400.271977	2538.994779
400.654294	2538.651980
401.036549	2540.731456
401.418742	2539.045190
401.800874	2539.206507
402.182944	2538.417567
402.564952	2538.319264
402.946898	2538.750283
403.328783	2539.004861
403.710606	2537.371527
404.092367	2538.664583
404.474067	2536.718698
404.855705	2536.650642
405.237282	2540.852444
405.618797	2538.304141
406.000250	2539.942516
406.381642	2538.835982
406.762972	2539.393030
407.144240	2538.697351
407.525447	2535.723070
407.906593	2537.852957
408.287677	2541.154913
408.668700	2540.408822
409.049661	2541.780016
409.430560	2541.071734
409.811399	2541.759852
410.192176	2538.775488
410.572891	2541.608617
410.953545	2541.926210
411.334138	2541.681714
411.714669	2542.700027
412.095139	2541.916127
412.475547	2542.289173
412.855894	2541.913607
413.236180	2542.193391
413.616405	2544.880326
413.996568	2539.362783
414.376670	2543.045346
414.756711	2543.499050
415.136691	2541.427135
415.516609	2542.904193
415.896466	2541.933771
416.276262	2543.703216
416.655997	2543.521735
417.035670	2544.782023
417.415283	2544.688762
417.794834	2544.509801
418.174324	2544.396375
418.553753	2544.381252
418.933121	2546.596839
419.312428	2548.782179
419.691674	2545.679349
420.070859	2544.560212
420.449983	2544.315717
420.829045	2547.544576
421.208047	2545.802857
421.586988	2544.648433
421.965867	2546.584236
422.344686	2547.027857
422.723444	2548.474668
423.102141	2545.671787
423.480777	2547.589946
423.859352	2547.179092
424.237866	2545.089534
424.616319	2546.990049
424.994712	2544.661036
425.373044	2545.802857
425.751314	2544.519883
426.129524	2542.521066
426.507673	2545.664225
426.885762	2542.153062
427.263789	2548.041129
427.641756	2546.740512
428.019662	2546.783361
428.397508	2547.819318
428.775292	2547.501726
429.153016	2549.472817
429.530679	2548.119267
429.908282	2548.484751
430.285824	2552.384083
430.663305	2548.540203
431.040726	2550.118085
431.418086	2549.200595
431.795385	2550.831408
432.172624	2549.296377
432.549802	2547.484082
432.926920	2548.676315
433.303977	2549.732436
433.680974	2549.803012
434.057910	2549.230842
434.434786	2547.443752
434.811601	2549.016593
435.188355	2549.087169
435.565050	2545.520552
435.941683	2548.542724
436.318257	2548.446942
436.694770	2549.356870
437.071222	2548.928372
437.447614	2551.431305
437.823946	2549.918959
438.200218	2549.185471
438.576429	2547.811757
438.952580	2550.901984
439.328670	2550.944834
439.704700	2550.513815
440.080670	2550.266799
440.456580	2548.877961
440.832429	2550.186140
441.208218	2549.954247
441.583947	2550.544062
441.959616	2553.888868
442.335224	2551.499361
442.710773	2552.497509
443.086261	2553.263765
443.461689	2550.171017
443.837057	2550.907025
444.212365	2550.516336
444.587612	2549.634134
444.962800	2547.481561
445.337927	2547.206818
445.712995	2546.347302
446.088002	2552.348795
446.462949	2549.724875
446.837837	2554.191337
447.212664	2553.651933
447.587431	2552.442057
447.962139	2549.775286
448.336786	2551.055739
448.711374	2550.990204
449.085901	2551.615307
449.460369	2552.028682
449.834776	2552.817623
450.209124	2553.785524
450.583412	2553.044474
450.957640	2555.514640
451.331808	2553.742674
451.705917	2552.661347
452.079965	2553.457849
452.453954	2557.629404
452.827883	2553.770401
453.201752	2553.588919
453.575562	2551.874927
453.949311	2552.880637
454.323001	2554.360216
454.696632	2554.723179
455.070202	2554.715617
455.443713	2553.936759
455.817164	2552.794937
456.190556	2556.832902
456.563888	2553.843497
456.937160	2556.157387
457.310373	2554.519012
457.683526	2554.705535
458.056619	2554.239228
458.429653	2553.856100
458.802628	2556.669064
459.175542	2554.095555
459.548398	2555.499516
459.921194	2556.106975
460.293930	2556.913560
460.666607	2556.485062
461.039224	2556.888354
461.411782	2559.464384
461.784280	2556.406924
462.156719	2555.504558
462.529099	2559.918088
462.901419	2554.942469
463.273680	2555.355843
463.645882	2552.568085
464.018024	2554.682849
464.390106	2551.428785
464.762130	2556.613611
465.134094	2558.743499
465.505999	2558.441030
465.877845	2557.584033
466.249631	2560.112172
466.621358	2559.164435
466.993026	2559.436657
467.364634	2563.933367
467.736184	2559.852553
468.107674	2558.418344
468.479105	2559.156873
468.850477	2558.746019
469.221790	2560.155022
469.593043	2558.430947
469.964238	2559.275341
470.335373	2558.115875
470.706449	2557.342058
471.077467	2561.432954
471.448425	2560.505382
471.819324	2560.356668
472.190164	2560.727193
472.560945	2562.040413
472.931667	2558.206616
473.302330	2562.662996
473.672934	2560.371792
474.043479	2559.285423
474.413965	2559.628221
474.784393	2559.734086
475.154761	2562.990671
475.525070	2561.349775
475.895321	2558.191492
476.265513	2561.727862
476.635645	2561.231308
477.005719	2560.308777
477.375734	2562.572255
477.745691	2561.657286
478.115588	2560.190310
478.485427	2562.899930
478.855207	2562.418500
479.224928	2561.490928
479.594591	2563.956052
479.964194	2566.718604
480.333739	2562.973027
480.703226	2562.239539
481.072653	2565.803635
481.442022	2563.250290
481.811333	2564.601320
482.180584	2561.057388
482.549777	2562.045455
482.918912	2559.905485
483.287988	2564.671896
483.657005	2563.459498
484.025964	2567.459654
484.394864	2567.588203
484.763706	2566.413614
485.132489	2564.319015
485.501213	2565.506207
485.869879	2565.748182
486.238487	2567.462174
486.607036	2561.818603
486.975527	2564.485373
487.343959	2564.928995
487.712333	2564.916392
488.080648	2566.622822
488.448905	2569.324881
488.817104	2567.598286
489.185244	2567.084088
489.553326	2565.362534
489.921350	2568.430076
490.289315	2568.586352
490.657222	2565.791032
491.025070	2569.594582
491.392861	2568.503173
491.760593	2566.857236
492.128267	2568.409911
492.495883	2569.085426
492.863440	2567.232802
493.230939	2566.728687
493.598380	2568.205745
493.965763	2568.830848
494.333088	2567.361351
494.700354	2566.842112
495.067563	2567.920919
495.434713	2565.707853
495.801805	2567.552915
496.168839	2567.973852
496.535815	2567.061403
496.902733	2569.415622
497.269593	2570.476784
497.636395	2566.138872
498.003139	2567.994016
498.369825	2565.357493
498.736453	2565.755744
499.103023	2566.960580
499.469535	2565.193655
499.835989	2567.255487
500.202385	2565.186093
500.568723	2563.968655
500.935003	2565.717935
501.301226	2561.190979
501.667390	2568.026784
502.033497	2569.521486
502.399546	2568.798080
502.765537	2567.774726
503.131470	2569.292113
503.497345	2567.731876
503.863163	2566.945456
504.228923	2568.636763
504.594625	2568.354459
504.960269	2568.581311
505.325856	2567.179870
505.691385	2570.423852
506.056856	2568.331773
506.422270	2569.045097
506.787625	2570.287741
507.152924	2570.045766
507.518164	2569.019891
507.883347	2570.023081
508.248472	2571.633729
508.613540	2571.890828
508.978550	2573.660273
509.343503	2567.472257
509.708398	2570.675910
510.073236	2573.244378
510.438016	2572.163050
510.802738	2571.865622
511.167403	2570.673389
511.532010	2570.345714
511.896561	2572.921744
512.261053	2570.665828
512.625488	2570.935529
512.989866	2571.837896
513.354186	2576.362332
513.718449	2572.886456
514.082655	2576.193453
514.446803	2575.495253
514.810894	2574.124059
515.174927	2576.422825
515.538904	2577.390727
515.902822	2574.837382
516.266684	2578.494740
516.630488	2578.391396
516.994235	2577.418453
517.357925	2582.953640
517.721558	2580.637230
518.085133	2580.054977
518.448651	2579.434915
518.812112	2576.594225
519.175516	2578.898032
519.538863	2577.635223
519.902152	2583.926583
520.265385	2583.135122
520.628560	2583.913980
520.991678	2582.608321
521.354739	2585.023034
521.717743	2582.981367
522.080690	2587.094948
522.443580	2586.585792
522.806413	2588.508992
523.169189	2588.876996
523.531908	2592.499065
523.894569	2588.861872
524.257174	2590.507809
524.619722	2589.991091
524.982213	2592.120978
525.344647	2594.366812
525.707025	2592.748602
526.069345	2593.860177
526.431608	2594.036617
526.793815	2594.626432
527.155964	2595.213726
527.518057	2594.651638
527.880093	2594.563418
528.242072	2597.290682
528.603995	2602.800663
528.965860	2600.022987
529.327669	2600.713625
529.689421	2601.941146
530.051117	2601.104315
530.412755	2598.669437
530.774337	2601.968872
531.135862	2602.674634
531.497331	2605.202773
531.858743	2608.091354
532.220098	2606.536158
532.581396	2609.248299
532.942638	2608.960953
533.303824	2608.839965
533.664953	2610.616972
534.026025	2609.684358
534.387040	2612.061263
534.747999	2609.379369
535.108902	2613.487909
535.469748	2610.964812
535.830537	2611.874740
536.191270	2612.557816
536.551947	2611.380707
536.912567	2612.068824
537.273131	2615.829525
537.633638	2611.047991
537.994089	2617.994701
538.354483	2617.193157
538.714821	2620.782459
539.075103	2619.270112
539.435328	2620.371605
539.795497	2621.331944
540.155609	2620.759773
540.515665	2620.681636
540.875665	2621.780607
541.235609	2620.739609
541.595496	2623.756739
541.955328	2622.491410
542.315102	2626.264713
542.674821	2625.390073
543.034483	2624.754888
543.394090	2627.441823
543.753640	2629.329735
544.113134	2631.469705
544.472571	2630.174128
544.831953	2631.247894
545.191278	2630.584982
545.550548	2630.292595
545.909761	2631.540281
546.268918	2634.091105
546.628019	2635.459778
546.987064	2634.597741
547.346053	2633.899541
547.704986	2634.270066
548.063863	2634.938019
548.422684	2636.026908
548.781449	2636.977165
549.140158	2633.287041
549.498811	2636.105046
549.857408	2635.026239
550.215949	2635.283338
550.574434	2637.345170
550.932864	2637.708133
551.291237	2637.549336
551.649555	2637.020015
552.007817	2638.484470
552.366022	2637.410705
552.724173	2636.919192
553.082267	2638.315592
553.440305	2640.271559
553.798288	2640.374903
554.156215	2640.528658
554.514086	2639.074285
554.871902	2637.907258
555.229661	2639.301137
555.587365	2635.903400
555.945014	2640.422794
556.302606	2641.453710
556.660143	2644.866571
557.017625	2646.562919
557.375050	2641.879687
557.732421	2645.169040
558.089735	2644.533855
558.446994	2645.663073
558.804197	2644.367497
559.161345	2646.003351
559.518437	2642.666107
559.875474	2648.143321
560.232455	2648.937303
560.589381	2651.636841
560.946251	2649.078455
561.303065	2649.350677
561.659825	2652.395534
562.016528	2650.300935
562.373177	2649.239772
562.729770	2650.116933
563.086307	2654.613642
563.442789	2652.801347
563.799216	2653.749084
564.155587	2653.164310
564.511904	2654.923673
564.868164	2652.907212
565.224370	2654.059115
565.580520	2652.917294
565.936615	2655.526091
566.292654	2653.534835
566.648638	2659.758140
567.004567	2655.707572
567.360441	2656.720844
567.716260	2654.873262
568.072023	2661.724190
568.427732	2657.356030
568.783385	2658.999446
569.138982	2659.430465
569.494525	2661.126813
569.850013	2663.415497
570.205445	2661.280568
570.560823	2660.978099
570.916145	2662.936587
571.271412	2663.647390
571.626625	2666.944304
571.981782	2665.316012
572.336884	2661.517502
572.691931	2662.873573
573.046923	2662.618994
573.401860	2664.295178
573.756743	2670.352124
574.111570	2669.800118
574.466342	2671.801456
574.821059	2673.974193
575.175722	2672.199707
575.530330	2674.367403
575.884882	2676.043587
576.239380	2677.180367
576.593823	2679.869823
576.948211	2680.169772
577.302544	2677.140038
577.656823	2680.557940
578.011047	2680.643640
578.365216	2682.234124
578.719330	2684.046419
579.073389	2685.999866
579.427394	2691.106555
579.781344	2687.429033
580.135239	2691.126719
580.489080	2690.516740
580.842866	2692.152594
581.196597	2702.532330
581.550273	2692.432378
581.903895	2702.348328
582.257463	2703.197762
582.610975	2705.488967
582.964434	2707.331508
583.317837	2708.203628
583.671186	2712.082796
584.024481	2719.757953
584.377721	2719.160576
584.730906	2719.548745
585.084037	2722.712069
585.437113	2726.097204
585.790135	2730.828327
586.143103	2729.686505
586.496016	2732.814541
586.848874	2737.177660
587.201679	2738.238823
587.554428	2740.769482
587.907124	2748.961357
588.259765	2749.536048
588.612352	2756.240783
588.964884	2756.989394
589.317362	2759.547780
589.669786	2764.808224
590.022155	2770.729059
590.374470	2773.723505
590.726731	2779.372117
591.078937	2778.391613
591.431090	2788.831843
591.783188	2787.541307
592.135232	2790.387039
592.487222	2797.210240
592.839157	2802.674851
593.191038	2808.482260
593.542866	2808.152065
593.894639	2813.843527
594.246358	2826.340548
594.598022	2827.908347
594.949633	2831.225426
595.301190	2830.350786
595.652692	2842.568022
596.004141	2849.144207
596.355535	2848.176306
596.706876	2853.729137
597.058162	2857.588140
597.409395	2865.742206
597.760573	2869.644059
598.111698	2875.075903
598.462768	2884.507902
598.813785	2888.354302
599.164748	2892.009138
599.515657	2901.917526
599.866511	2903.681930
600.217312	2915.359763
600.568060	2913.030750
600.918753	2935.511776
601.269392	2941.288938
601.619978	2942.801284
601.970510	2958.817030
602.320988	2966.885397
602.671412	2976.221613
603.021783	2983.795947
603.372100	2985.577995
603.722363	2998.727845
604.072572	3013.732839
604.422728	3021.622245
604.772830	3030.414017
605.122878	3032.528781
605.472872	3049.288097
605.822813	3059.501475
606.172701	3069.989596
606.522534	3085.591967
606.872314	3094.174531
607.222041	3101.224585
607.571714	3119.770990
607.921333	3135.940491
608.270899	3146.479023
608.620411	3170.553053
608.969870	3167.717404
609.319276	3191.854449
609.668627	3215.363870
610.017926	3233.791807
610.367171	3254.717637
610.716362	3279.598252
611.065500	3282.133952
611.414585	3304.917447
611.763616	3317.167451
612.112594	3334.980368
612.461518	3345.241637
612.810389	3373.719115
613.159207	3377.079044
613.507971	3397.788104
613.856682	3439.175977
614.205340	3454.715334
614.553945	3495.757888
614.902496	3486.305724
615.250994	3530.970347
615.599439	3549.012637
615.947830	3572.111204
616.296169	3592.580809
616.644454	3618.426805
616.992686	3631.314515
617.340864	3681.857123
617.688990	3700.287582
618.037063	3747.734922
618.385082	3758.462497
618.733048	3804.359682
619.080961	3823.987415
619.428821	3864.581306
619.776628	3890.661715
620.124382	3900.058426
620.472083	3929.513888
620.819731	3966.878920
621.167326	3959.607056
621.514868	3976.046259
621.862357	3988.129904
622.209793	4003.306298
622.557176	4011.709902
622.904506	4010.255529
623.251783	4028.824619
623.599007	4036.325856
623.946179	4055.504926
624.293297	4074.247936
624.640363	4078.943770
624.987376	4092.779217
625.334336	4090.772838
625.681243	4102.773305
626.028097	4122.963126
626.374899	4165.724713
626.721647	4159.234228
627.068343	4169.813089
627.414987	4191.071635
627.761577	4229.462542
628.108115	4262.842542
628.454600	4253.065224
628.801032	4286.843476
629.147412	4309.372392
629.493739	4342.891024
629.840014	4358.805947
630.186236	4393.231986
630.532405	4395.014034
630.878521	4456.868992
631.224585	4470.959017
631.570597	4492.888036
631.916556	4514.249926
632.262462	4535.914284
632.608316	4571.978699
632.954117	4593.015434
633.299866	4626.110609
633.645562	4645.753465
633.991206	4632.548162
634.336797	4621.543323
634.682336	4660.513963
635.027823	4652.914424
635.373257	4680.706305
635.718639	4669.943442
636.063968	4693.049570
636.409245	4682.266542
636.754470	4713.277200
637.099642	4720.276842
637.444762	4696.666598
637.789829	4741.976489
638.134845	4737.441971
638.479808	4770.219553
638.824719	4788.423160
639.169577	4784.992655
639.514383	4822.017409
639.859137	4820.079085
640.203839	4865.242783
640.548489	4848.049927
640.893086	4892.182709
641.237632	4866.510633
641.582125	4949.666986
641.926566	4935.738278
642.270955	4960.202998
642.615292	4983.246112
642.959576	5009.223178
643.303809	5060.025406
643.647990	5061.068924
643.992118	5123.009582
644.336195	5079.794290
