Dividing Wavelength (nm)	Counts (n)	Blue Motor Position (mm): 34.000000	Red Motor Position (mm): 0.000000	
326.493990	2224.325956
326.888308	2224.325956
327.282561	2224.325956
327.676750	2185.080573
328.070874	2181.050170
328.464933	2182.401200
328.858929	2187.112158
329.252859	2191.223219
329.646726	2201.040866
330.040528	2210.772813
330.434265	2224.676316
330.827938	2243.905797
331.221547	2260.418097
331.615091	2279.927362
332.008571	2295.108797
332.401986	2314.660912
332.795338	2333.920640
333.188625	2350.614421
333.581847	2372.389685
333.975006	2389.398538
334.368100	2408.244892
334.761129	2425.931780
335.154095	2445.962805
335.546996	2472.842237
335.939833	2511.331447
336.332606	2525.759229
336.725315	2537.800025
337.117960	2550.667570
337.510540	2562.857080
337.903056	2573.846796
338.295508	2583.992118
338.687896	2593.071236
339.080220	2598.729931
339.472480	2605.661518
339.864676	2612.467075
340.256807	2616.817591
340.648875	2621.596605
341.040879	2622.922428
341.432818	2625.369909
341.824694	2628.445012
342.216506	2628.651700
342.608253	2629.733027
342.999937	2631.275620
343.391557	2632.198152
343.783113	2628.767646
344.174605	2627.434261
344.566033	2626.312604
344.957397	2627.283027
345.348697	2624.961575
345.739934	2624.989302
346.131106	2621.944445
346.522215	2619.199536
346.913260	2617.833384
347.304241	2616.104268
347.695159	2616.505040
348.086012	2613.210646
348.476802	2611.007661
348.867528	2608.212342
349.258191	2606.826024
349.648789	2604.028184
350.039324	2600.557349
350.429796	2605.069182
350.820203	2602.790581
351.210548	2600.411156
351.600828	2600.517020
351.991045	2596.776484
352.381198	2597.603233
352.771288	2599.017277
353.161314	2597.814962
353.551276	2595.864035
353.941175	2594.981833
354.331010	2594.820516
354.720782	2596.390836
355.110490	2597.545260
355.500135	2598.223295
355.889717	2594.044179
356.279235	2596.907554
356.668689	2594.883531
357.058080	2594.656679
357.447408	2597.429313
357.836672	2597.426793
358.225873	2593.101483
358.615010	2595.521237
359.004084	2597.260435
359.393095	2598.238419
359.782043	2600.438882
360.170927	2601.184973
360.559748	2600.615323
360.948505	2600.368306
361.337199	2600.456526
361.725830	2602.717484
362.114398	2601.956270
362.502903	2603.047679
362.891344	2604.179418
363.279722	2603.697988
363.668037	2603.163626
364.056289	2603.277052
364.444478	2607.443566
364.832603	2605.038935
365.220665	2605.976590
365.608665	2606.682351
365.996601	2609.142434
366.384474	2606.324429
366.772284	2605.618668
367.160031	2608.265274
367.547715	2610.435490
367.935336	2606.735283
368.322893	2608.986159
368.710388	2606.334512
369.097820	2607.715788
369.485189	2604.920468
369.872495	2610.438011
370.259738	2610.823659
370.646918	2612.830038
371.034035	2614.559154
371.421090	2610.627054
371.808081	2613.719802
372.195010	2609.573453
372.581875	2612.330964
372.968678	2613.268619
373.355418	2615.093517
373.742096	2613.689555
374.128710	2611.660491
374.515262	2613.344236
374.901751	2616.817591
375.288177	2615.738784
375.674540	2616.202570
376.060841	2614.773403
376.447079	2615.867334
376.833254	2616.056377
377.219367	2617.762807
377.605417	2617.581326
377.991404	2619.547376
378.377329	2617.840945
378.763191	2617.868672
379.148991	2620.144753
379.534727	2619.880092
379.920402	2617.820781
380.306013	2618.372787
380.691563	2621.193313
381.077049	2621.833539
381.462474	2618.871861
381.847835	2621.999897
382.233134	2620.222891
382.618371	2622.040227
383.003545	2620.966461
383.388657	2621.452932
383.773706	2623.557614
384.158693	2623.870165
384.543618	2623.297994
384.928480	2623.388735
385.313280	2626.002573
385.698017	2625.619446
386.082692	2627.272944
386.467305	2629.977523
386.851856	2627.376288
387.236344	2628.845784
387.620770	2623.812192
388.005133	2624.301184
388.389435	2627.124230
388.773674	2625.430402
389.157851	2630.708491
389.541965	2630.539612
389.926018	2631.336114
390.310008	2631.668830
390.693936	2634.393574
391.077802	2633.491207
391.461606	2636.921713
391.845348	2634.834675
392.229027	2633.801238
392.612645	2637.047742
392.996200	2635.006074
393.379694	2635.089253
393.763125	2639.734677
394.146494	2638.572691
394.529801	2637.645118
394.913047	2640.372382
395.296230	2640.997486
395.679351	2640.233751
396.062410	2638.539923
396.445408	2641.741056
396.828343	2642.479585
397.211217	2642.250212
397.594028	2643.873464
397.976778	2643.669297
398.359466	2647.712302
398.742092	2645.695841
399.124656	2641.678041
399.507158	2644.556540
399.889598	2650.542910
400.271977	2649.975781
400.654294	2648.831439
401.036549	2649.121305
401.418742	2647.961840
401.800874	2651.709937
402.182944	2653.597850
402.564952	2654.250679
402.946898	2651.838487
403.328783	2655.021976
403.710606	2654.686739
404.092367	2654.900988
404.474067	2657.794610
404.855705	2657.845022
405.237282	2659.256545
405.618797	2661.537667
406.000250	2666.709891
406.381642	2671.040242
406.762972	2670.493277
407.144240	2675.075686
407.525447	2683.910308
407.906593	2685.916687
408.287677	2700.140302
408.668700	2708.435521
409.049661	2725.514950
409.430560	2740.673700
409.811399	2753.097624
410.192176	2782.248096
410.572891	2806.430511
410.953545	2843.036849
411.334138	2855.357429
411.714669	2902.461971
412.095139	2927.501382
412.475547	2985.469610
412.855894	3040.158568
413.236180	3111.760596
413.616405	3135.325470
413.996568	3218.668346
414.376670	3286.421454
414.756711	3337.432889
415.136691	3424.821291
415.516609	3529.299205
415.896466	3606.708643
416.276262	3722.945048
416.655997	3807.180208
417.035670	3938.527471
417.415283	4119.383907
417.794834	4227.015062
418.174324	4284.388434
418.553753	4359.952809
418.933121	4563.202050
419.312428	4693.536042
419.691674	4719.268611
420.070859	5008.187221
420.449983	4994.129963
420.829045	5251.899283
421.208047	5261.464872
421.586988	5516.096073
421.965867	5625.289986
422.344686	5796.830369
422.723444	5931.623262
423.102141	5690.749369
423.480777	6215.662034
423.859352	6040.093769
424.237866	6529.420929
424.616319	6545.625718
424.994712	6901.261478
425.373044	6746.208188
425.751314	7148.474621
426.129524	7156.157339
426.507673	7364.916561
426.885762	7573.441370
427.263789	7597.066737
427.641756	7636.518807
428.019662	7818.338103
428.397508	8085.423475
428.775292	7929.871111
429.153016	8328.109662
429.530679	8262.183973
429.908282	8381.346767
430.285824	8215.586067
430.663305	8859.933749
431.040726	8463.598233
431.418086	8515.244855
431.795385	8855.172379
432.172624	8987.787493
432.549802	8969.679668
432.926920	9098.713042
433.303977	9033.714925
433.680974	9266.873331
434.057910	9393.522239
434.434786	9485.465324
434.811601	9388.390345
435.188355	9955.399165
435.565050	9722.792765
435.941683	9684.606024
436.318257	10197.188027
436.694770	10326.596967
437.071222	10427.236041
437.447614	10314.024329
437.823946	10218.310461
438.200218	10391.809333
438.576429	10213.347445
438.952580	10459.038160
439.328670	10537.659996
439.704700	10324.078910
440.080670	10327.748870
440.456580	10906.591799
440.832429	10651.756431
441.208218	10271.983626
441.583947	10621.537234
441.959616	10751.528427
442.335224	10565.661085
442.710773	10718.478623
443.086261	10917.576473
443.461689	10224.916893
443.837057	10849.954435
444.212365	11147.132975
444.587612	10795.162134
444.962800	11031.551920
445.337927	10811.094701
445.712995	10376.189318
446.088002	11479.244191
446.462949	11124.967022
446.837837	11094.465520
447.212664	11103.829464
447.587431	11602.674322
447.962139	12301.244654
448.336786	14551.575402
448.711374	15119.463903
449.085901	12989.820899
449.460369	12595.958070
449.834776	12048.198896
450.209124	12900.698341
450.583412	13302.601810
450.957640	14254.810237
451.331808	13437.626596
451.705917	12409.856314
452.079965	11732.632748
452.453954	12621.856998
452.827883	12250.669278
453.201752	12538.347764
453.575562	12053.988661
453.949311	12476.102117
454.323001	12427.843151
454.696632	12650.377326
455.070202	12941.854321
455.443713	13192.659286
455.817164	13643.058656
456.190556	13647.237773
456.563888	14007.239172
456.937160	14182.499926
457.310373	13521.423175
457.683526	13597.441255
458.056619	13150.739571
458.429653	13288.219398
458.802628	12742.474165
459.175542	13102.536058
459.548398	14045.219225
459.921194	14379.722468
460.293930	14440.407878
460.666607	15336.233519
461.039224	16354.826380
461.411782	17057.205304
461.784280	16955.515149
462.156719	17006.214033
462.529099	16693.496136
462.901419	15607.235867
463.273680	15416.876857
463.645882	15272.052069
464.018024	15004.467623
464.390106	15221.935438
464.762130	15955.977849
465.134094	16697.645006
465.505999	18677.270833
465.877845	21939.124224
466.249631	24771.662870
466.621358	24473.022396
466.993026	23024.545141
467.364634	22473.983085
467.736184	21016.298162
468.107674	20213.083558
468.479105	20350.800320
468.850477	19812.334513
469.221790	19395.728518
469.593043	18716.065033
469.964238	18162.251433
470.335373	17829.003437
470.706449	18251.341224
471.077467	17798.275084
471.448425	19632.398088
471.819324	23627.136945
472.190164	25688.200092
472.560945	22170.500582
472.931667	19777.522825
473.302330	19139.774013
473.672934	18645.531729
474.043479	18994.374534
474.413965	18803.382858
474.784393	18434.418288
475.154761	19105.105998
475.525070	19110.653788
475.895321	18778.131719
476.265513	19361.105873
476.635645	19935.626012
477.005719	19717.091993
477.375734	19922.027500
477.745691	20392.556197
478.115588	20899.683671
478.485427	21428.412489
478.855207	22483.752841
479.224928	24234.863165
479.594591	26465.540974
479.964194	26520.376125
480.333739	26721.533287
480.703226	26285.692769
481.072653	25954.635155
481.442022	26527.708483
481.811333	27423.763497
482.180584	27364.189662
482.549777	26417.244200
482.918912	26054.462604
483.287988	26184.521853
483.657005	25843.770100
484.025964	25594.666524
484.394864	25518.940831
484.763706	25203.125146
485.132489	24626.152485
485.501213	24813.176772
485.869879	24731.200049
486.238487	24530.141189
486.607036	24676.067470
486.975527	24374.220822
487.343959	24701.449679
487.712333	24641.722089
488.080648	24308.050636
488.448905	24795.918382
488.817104	24544.803385
489.185244	25214.008997
489.553326	25178.070611
489.921350	26157.861711
490.289315	28441.738817
490.657222	30231.454296
491.025070	30729.832848
491.392861	30529.668793
491.760593	29668.105354
492.128267	28774.172666
492.495883	27733.270179
492.863440	26855.159152
493.230939	25991.612019
493.598380	25829.977503
493.965763	25422.475832
494.333088	24994.204607
494.700354	24909.001545
495.067563	24782.226608
495.434713	24547.833119
495.801805	24684.942421
496.168839	24501.303269
496.535815	24328.495036
496.902733	24549.156422
497.269593	24228.090374
497.636395	24410.297839
498.003139	24378.621749
498.369825	24125.520538
498.736453	24322.987575
499.103023	24198.191291
499.469535	24224.186001
499.835989	24425.882566
500.202385	24448.592964
500.568723	23966.179747
500.935003	24209.241500
501.301226	23820.934022
501.667390	24666.280070
502.033497	24888.219388
502.399546	24619.351968
502.765537	24191.854561
503.131470	24578.732871
503.497345	24699.040008
503.863163	23925.658952
504.228923	24527.013153
504.594625	24724.860798
504.960269	24259.527010
505.325856	24751.130251
505.691385	24152.954497
506.056856	24762.523258
506.422270	24725.974893
506.787625	24300.345233
507.152924	24712.454518
507.518164	24745.758901
507.883347	24561.172012
508.248472	24244.151491
508.613540	25010.308573
508.978550	24796.384689
509.343503	24802.431553
509.708398	25045.289139
510.073236	25213.018410
510.438016	25423.451295
510.802738	25086.346817
511.167403	25353.590985
511.532010	25048.029006
511.896561	25823.953324
512.261053	25798.324098
512.625488	25630.960311
512.989866	25524.755802
513.354186	25357.697005
513.718449	25469.035929
514.082655	25854.747212
514.446803	25588.276861
514.810894	26052.267182
515.174927	25539.831373
515.538904	25569.884211
515.902822	26063.060292
516.266684	25816.278167
516.630488	25725.260135
516.994235	25692.086822
517.357925	26001.447310
517.721558	26178.167478
518.085133	26278.902335
518.448651	26196.023245
518.812112	25925.698932
519.175516	26130.780632
519.538863	26287.452132
519.902152	26058.974437
520.265385	26353.587029
520.628560	26134.569059
520.991678	26159.026217
521.354739	26215.819857
521.717743	26282.158921
522.080690	26075.073362
522.443580	26414.186740
522.806413	26403.365903
523.169189	26503.468095
523.531908	26545.891925
523.894569	26157.649982
524.257174	26227.848050
524.619722	26409.634578
524.982213	26093.748316
525.344647	26162.431517
525.707025	26305.628012
526.069345	26277.180781
526.431608	26232.150674
526.793815	26430.439420
527.155964	25888.313735
527.518057	26059.022328
527.880093	25977.446376
528.242072	26213.619393
528.603995	25917.978405
528.965860	25710.202208
529.327669	25764.422338
529.689421	25742.773103
530.051117	25594.424548
530.412755	25764.714725
530.774337	25552.068774
531.135862	25438.541989
531.497331	25634.660518
531.858743	25188.064698
532.220098	25670.104870
532.581396	25353.913619
532.942638	25283.317300
533.303824	25386.330759
533.664953	25398.510186
534.026025	25061.335132
534.387040	25295.526975
534.747999	25355.247004
535.108902	25520.233887
535.469748	25017.477093
535.830537	25190.595358
536.191270	25314.254862
536.551947	25181.901888
536.912567	24835.191491
537.273131	25193.529309
537.633638	24884.672937
537.994089	25103.718633
538.354483	24637.631192
538.714821	25136.103005
539.075103	25174.231772
539.435328	24957.857888
539.795497	24513.086966
540.155609	24911.333079
540.515665	25220.065943
540.875665	24452.913233
541.235609	24745.983232
541.595496	24702.866244
541.955328	25065.327726
542.315102	24986.118596
542.674821	24518.115517
543.034483	24396.031374
543.394090	24582.496093
543.753640	24367.311920
544.113134	25001.358004
544.472571	24595.046045
544.831953	24897.757251
545.191278	24506.147818
545.550548	24428.269552
545.909761	24629.207424
546.268918	24873.718509
546.628019	24834.097561
546.987064	24540.475555
547.346053	24281.274547
547.704986	24397.586570
548.063863	24563.795933
548.422684	24573.172479
548.781449	24094.252781
549.140158	24506.611604
549.498811	24085.874383
549.857408	23827.164888
550.215949	24243.962447
550.574434	23928.605507
550.932864	24134.466065
551.291237	24309.797396
551.649555	24168.514018
552.007817	24215.379105
552.366022	24090.693726
552.724173	24117.202634
553.082267	24071.779317
553.440305	24550.267996
553.798288	23808.419358
554.156215	24316.252593
554.514086	24414.222377
554.871902	23793.346308
555.229661	24083.822634
555.587365	23930.954684
555.945014	23799.252020
556.302606	24051.733169
556.660143	23997.462627
557.017625	24245.578137
557.375050	23774.883082
557.732421	24162.046218
558.089735	23980.274813
558.446994	24038.832856
558.804197	24071.950716
559.161345	24007.308001
559.518437	23776.874338
559.875474	23957.133396
560.232455	24141.758094
560.589381	23966.610766
560.946251	23961.423418
561.303065	24273.027220
561.659825	24352.995043
562.016528	23954.920330
562.373177	23682.846736
562.729770	24063.131218
563.086307	23911.596654
563.442789	24089.136010
563.799216	23909.262599
564.155587	23921.124434
564.511904	23900.438060
564.868164	23840.385314
565.224370	23819.547705
565.580520	23736.696342
565.936615	23876.742116
566.292654	23556.787643
566.648638	23832.548841
567.004567	23666.425178
567.360441	23609.341672
567.716260	23341.883255
568.072023	23661.126925
568.427732	23434.199384
568.783385	23204.133726
569.138982	23442.497124
569.494525	23486.564370
569.850013	23238.045568
570.205445	23336.411082
570.560823	23135.516060
570.916145	22889.122104
571.271412	23081.479932
571.626625	22827.798988
571.981782	22953.784985
572.336884	22745.224888
572.691931	22889.969018
573.046923	22610.570628
573.401860	22498.493175
573.756743	22505.213033
574.111570	22415.092326
574.466342	22338.572652
574.821059	22425.537597
575.175722	22130.367957
575.530330	22126.854272
575.884882	22150.220020
576.239380	22047.287221
576.593823	21944.430038
576.948211	21925.177872
577.302544	21766.852873
577.656823	21629.231894
578.011047	21727.322665
578.365216	21604.119386
578.719330	21475.638018
579.073389	21378.222762
579.427394	21509.504490
579.781344	21298.743930
580.135239	21167.542860
580.489080	21132.736213
580.842866	20905.143241
581.196597	21103.225299
581.550273	21080.139335
581.903895	20954.511260
582.257463	21284.038884
582.610975	20819.783903
582.964434	21120.377825
583.317837	20830.571972
583.671186	20907.152140
584.024481	20879.241792
584.377721	20653.133439
584.730906	20716.919159
585.084037	20728.624718
585.437113	20636.497632
585.790135	20855.460149
586.143103	20316.253292
586.496016	20331.018832
586.848874	20573.659649
587.201679	20498.201137
587.554428	20174.218783
587.907124	20504.908393
588.259765	20281.723909
588.612352	20352.375680
588.964884	19918.644886
589.317362	20101.588359
589.669786	20143.457662
590.022155	20173.792805
590.374470	20381.526152
590.726731	20170.435397
591.078937	19942.648340
591.431090	20040.603000
591.783188	19786.072622
592.135232	19747.500233
592.487222	19861.737820
592.839157	19876.067300
593.191038	19761.106307
593.542866	19637.310692
593.894639	19352.485500
594.246358	19573.146886
594.598022	19472.722060
594.949633	19227.487570
595.301190	19198.745431
595.652692	19358.837354
596.004141	19597.566235
596.355535	18928.446324
596.706876	18940.167006
597.058162	18837.163630
597.409395	19058.674451
597.760573	19142.087903
598.111698	18912.087779
598.462768	18843.664198
598.813785	18815.453901
599.164748	18631.933216
599.515657	18671.299587
599.866511	18462.752093
600.217312	18824.848092
600.568060	18349.063992
600.918753	18655.354417
601.269392	18551.057985
601.619978	18334.023709
601.970510	18542.523312
602.320988	18486.889138
602.671412	18695.439152
603.021783	18607.251727
603.372100	18328.985076
603.722363	18471.566551
604.072572	18417.101924
604.422728	18567.035922
604.772830	18316.629208
605.122878	18273.053474
605.472872	18260.453110
605.822813	18242.249503
606.172701	18207.800778
606.522534	18400.077948
606.872314	18433.435263
607.222041	18263.926465
607.571714	18477.172314
607.921333	18311.996387
608.270899	18383.545484
608.620411	18563.282783
608.969870	18327.674376
609.319276	18331.099840
609.668627	18363.673255
610.017926	18491.728645
610.367171	18611.783724
610.716362	18662.573349
611.065500	18471.332137
611.414585	18605.678887
611.763616	18603.070090
612.112594	18528.027474
612.461518	18501.460593
612.810389	18701.987611
613.159207	18546.767963
613.507971	18454.285475
613.856682	18742.838601
614.205340	18659.533533
614.553945	18809.976688
614.902496	18556.721721
615.250994	18782.517523
615.599439	18729.431652
615.947830	18715.507985
616.296169	18777.730947
616.644454	18733.265450
616.992686	18708.001707
617.340864	18920.766126
617.688990	18670.845883
618.037063	18849.007821
618.385082	18688.232822
618.733048	18980.670157
619.080961	18851.541001
619.428821	18878.725423
619.776628	18770.421274
620.124382	18701.594401
620.472083	18745.192820
620.819731	18763.958515
621.167326	18450.456719
621.514868	18494.171084
621.862357	18259.956556
622.209793	18272.567002
622.557176	18109.016848
622.904506	17936.233821
623.251783	17845.908947
623.599007	17594.947705
623.946179	17553.592600
624.293297	17480.531157
624.640363	17232.821460
624.987376	17248.018018
625.334336	17049.136937
625.681243	16886.549643
626.028097	16897.952733
626.374899	16833.330182
626.721647	16691.222576
627.068343	16532.239707
627.414987	16455.830938
627.761577	16440.541119
628.108115	16471.534132
628.454600	16193.869899
628.801032	16295.683563
629.147412	16226.559261
629.493739	16242.580048
629.840014	16051.842951
630.186236	16145.031201
630.532405	15909.251394
630.878521	16112.939215
631.224585	16009.114131
631.570597	15830.400186
631.916556	15856.304155
632.262462	15834.728017
632.608316	15746.114615
632.954117	15702.032245
633.299866	15682.333936
633.645562	15599.832933
633.991206	15363.334762
634.336797	15234.137551
634.682336	15210.413881
635.027823	15098.853146
635.373257	14971.395133
635.718639	14875.799732
636.063968	14816.639271
