Dividing Wavelength (nm)	Counts (n)	Blue Motor Position (mm): 13.700000	Red Motor Position (mm): 0.000000	
326.493990	2169.944508
326.888308	2169.944508
327.282561	2169.944508
327.676750	2127.964300
328.070874	2126.830040
328.464933	2126.066305
328.858929	2130.031173
329.252859	2135.258849
329.646726	2142.704634
330.040528	2154.044709
330.434265	2168.202790
330.827938	2187.167611
331.221547	2203.828624
331.615091	2219.239431
332.008571	2238.539489
332.401986	2257.958013
332.795338	2273.114243
333.188625	2294.955042
333.581847	2312.820891
333.975006	2331.921823
334.368100	2352.459483
334.761129	2369.075127
335.154095	2386.572972
335.546996	2404.622823
335.939833	2432.412183
336.332606	2447.835594
336.725315	2458.953858
337.117960	2473.928606
337.510540	2484.341109
337.903056	2494.892244
338.295508	2501.458347
338.687896	2511.228103
339.080220	2518.247910
339.472480	2526.102028
339.864676	2528.922553
340.256807	2537.686599
340.648875	2543.279759
341.040879	2542.795809
341.432818	2544.789585
341.824694	2551.978270
342.216506	2548.716644
342.608253	2552.817622
342.999937	2550.022303
343.391557	2554.075390
343.783113	2550.647406
344.174605	2550.796120
344.566033	2547.678166
344.957397	2547.811757
345.348697	2547.494164
345.739934	2542.901673
346.131106	2544.948381
346.522215	2542.465613
346.913260	2539.934954
347.304241	2537.537885
347.695159	2536.718698
348.086012	2537.305992
348.476802	2532.393388
348.867528	2530.613860
349.258191	2525.313087
349.648789	2526.989271
350.039324	2519.714886
350.429796	2525.928108
350.820203	2520.523991
351.210548	2523.614218
351.600828	2521.282685
351.991045	2518.943589
352.381198	2517.716068
352.771288	2517.509381
353.161314	2514.855213
353.551276	2518.850328
353.941175	2518.711696
354.331010	2516.385204
354.720782	2517.617766
355.110490	2518.225225
355.500135	2516.828825
355.889717	2517.224556
356.279235	2516.538959
356.668689	2519.450225
357.058080	2515.881088
357.447408	2517.577437
357.836672	2514.935872
358.225873	2518.686490
358.615010	2519.714886
359.004084	2522.744619
359.393095	2518.815040
359.782043	2520.554238
360.170927	2520.755884
360.559748	2521.133971
360.948505	2521.373425
361.337199	2522.807634
361.725830	2522.830319
362.114398	2521.812006
362.502903	2524.859383
362.891344	2523.886441
363.279722	2520.110616
363.668037	2526.754857
364.056289	2523.954496
364.444478	2526.228057
364.832603	2525.161852
365.220665	2526.031452
365.608665	2524.622449
365.996601	2525.950793
366.384474	2526.961544
366.772284	2528.312574
367.160031	2529.025897
367.547715	2529.545136
367.935336	2526.018849
368.322893	2527.400125
368.710388	2525.948272
369.097820	2528.289888
369.485189	2524.314939
369.872495	2530.114786
370.259738	2533.121834
370.646918	2529.222502
371.034035	2533.099149
371.421090	2529.431710
371.808081	2534.205682
372.195010	2531.859025
372.581875	2533.434386
372.968678	2534.432534
373.355418	2532.413552
373.742096	2536.506969
374.128710	2532.400949
374.515262	2533.767102
374.901751	2534.896321
375.288177	2532.635363
375.674540	2534.646783
376.060841	2534.205682
376.447079	2534.011598
376.833254	2535.360107
377.219367	2534.427493
377.605417	2536.443955
377.991404	2534.888759
378.377329	2537.084181
378.763191	2536.015457
379.148991	2536.726259
379.534727	2536.194418
379.920402	2537.111908
380.306013	2536.010416
380.691563	2537.600900
381.077049	2535.090405
381.462474	2536.804397
381.847835	2535.755837
382.233134	2536.514531
382.618371	2538.578883
383.003545	2536.670807
383.388657	2537.482432
383.773706	2538.404964
384.158693	2538.505787
384.543618	2536.748945
384.928480	2540.529810
385.313280	2539.251878
385.698017	2541.109543
386.082692	2541.001158
386.467305	2541.021323
386.851856	2542.057280
387.236344	2540.736497
387.620770	2535.788605
388.005133	2538.273894
388.389435	2540.688606
388.773674	2535.896990
389.157851	2540.998637
389.541965	2539.914789
389.926018	2544.560213
390.310008	2542.188350
390.693936	2542.679862
391.077802	2544.688762
391.461606	2543.148689
391.845348	2541.815304
392.229027	2547.594987
392.612645	2543.171375
392.996200	2545.326468
393.379694	2543.400747
393.763125	2542.047197
394.146494	2544.093906
394.529801	2546.077600
394.913047	2544.285470
395.296230	2544.451828
395.679351	2544.545089
396.062410	2546.306972
396.445408	2546.082641
396.828343	2548.169679
397.211217	2545.321427
397.594028	2545.966694
397.976778	2544.247661
398.359466	2546.072559
398.742092	2549.094730
399.124656	2549.762683
399.507158	2544.277908
399.889598	2545.306303
400.271977	2546.420398
400.654294	2548.835111
401.036549	2546.697662
401.418742	2549.016593
401.800874	2548.464586
402.182944	2548.489792
402.564952	2548.895605
402.946898	2550.042467
403.328783	2547.048022
403.710606	2548.378887
404.092367	2549.084648
404.474067	2552.704197
404.855705	2546.611962
405.237282	2549.482899
405.618797	2549.298897
406.000250	2550.894422
406.381642	2549.336706
406.762972	2549.306459
407.144240	2545.538196
407.525447	2545.938968
407.906593	2548.419216
408.287677	2550.448280
408.668700	2548.852755
409.049661	2552.079093
409.430560	2554.231666
409.811399	2553.409958
410.192176	2553.820812
410.572891	2551.748898
410.953545	2552.290822
411.334138	2555.930535
411.714669	2551.559855
412.095139	2553.372149
412.475547	2552.411810
412.855894	2551.756460
413.236180	2554.975236
413.616405	2553.339382
413.996568	2553.871224
414.376670	2555.807027
414.756711	2555.875082
415.136691	2553.079762
415.516609	2552.747046
415.896466	2553.525905
416.276262	2553.662016
416.655997	2552.794937
417.035670	2552.497509
417.415283	2553.223435
417.794834	2551.249824
418.174324	2553.641851
418.553753	2557.021945
418.933121	2555.156718
419.312428	2555.169321
419.691674	2557.057233
420.070859	2552.409289
420.449983	2554.229146
420.829045	2555.900288
421.208047	2558.168807
421.586988	2553.470452
421.965867	2555.925494
422.344686	2559.945814
422.723444	2559.817265
423.102141	2558.783828
423.480777	2553.314176
423.859352	2553.364588
424.237866	2558.803993
424.616319	2556.411965
424.994712	2556.422047
425.373044	2557.841132
425.751314	2554.725699
426.129524	2555.479352
426.507673	2555.658313
426.885762	2551.461552
427.263789	2558.002449
427.641756	2557.871379
428.019662	2560.351627
428.397508	2555.960782
428.775292	2557.082439
429.153016	2555.721327
429.530679	2559.683674
429.908282	2558.524209
430.285824	2557.931873
430.663305	2557.006821
431.040726	2560.956565
431.418086	2559.691236
431.795385	2560.974209
432.172624	2560.139898
432.549802	2559.015721
432.926920	2559.204764
433.303977	2558.932542
433.680974	2561.420352
434.057910	2557.848694
434.434786	2559.328273
434.811601	2561.173335
435.188355	2559.779456
435.565050	2559.355999
435.941683	2560.825495
436.318257	2559.688715
436.694770	2560.795248
437.071222	2558.004970
437.447614	2563.489745
437.823946	2558.831719
438.200218	2559.071174
438.576429	2560.928839
438.952580	2560.402038
439.328670	2562.980589
439.704700	2562.090825
440.080670	2562.599982
440.456580	2561.586710
440.832429	2562.574776
441.208218	2562.332800
441.583947	2562.985630
441.959616	2565.725497
442.335224	2561.495969
442.710773	2559.945814
443.086261	2561.274158
443.461689	2562.216854
443.837057	2560.218036
444.212365	2562.473953
444.587612	2559.857594
444.962800	2559.749209
445.337927	2559.633262
445.712995	2558.713252
446.088002	2560.333983
446.462949	2563.998902
446.837837	2562.867163
447.212664	2564.109807
447.587431	2564.835733
447.962139	2563.096535
448.336786	2562.811710
448.711374	2564.624005
449.085901	2564.036710
449.460369	2566.527040
449.834776	2563.535116
450.209124	2563.492266
450.583412	2564.203068
450.957640	2567.464695
451.331808	2564.142575
451.705917	2562.156360
452.079965	2565.770867
452.453954	2562.594940
452.827883	2564.324056
453.201752	2563.920764
453.575562	2563.867832
453.949311	2566.431258
454.323001	2564.959242
454.696632	2566.184242
455.070202	2566.506876
455.443713	2565.009653
455.817164	2566.814386
456.190556	2565.284396
456.563888	2567.124417
456.937160	2565.458316
457.310373	2567.270611
457.683526	2566.622822
458.056619	2565.191135
458.429653	2567.651218
458.802628	2567.091650
459.175542	2567.310940
459.548398	2567.938563
459.921194	2566.038048
460.293930	2568.397308
460.666607	2567.656259
461.039224	2566.708522
461.411782	2567.716753
461.784280	2571.424521
462.156719	2571.548030
462.529099	2569.022412
462.901419	2568.001578
463.273680	2566.355641
463.645882	2567.288255
464.018024	2569.738255
464.390106	2565.889334
464.762130	2569.377813
465.134094	2571.084243
465.505999	2573.680438
465.877845	2573.940057
466.249631	2573.009964
466.621358	2573.299831
466.993026	2575.273442
467.364634	2578.144379
467.736184	2571.084243
468.107674	2571.301013
468.479105	2571.500139
468.850477	2573.413257
469.221790	2570.887638
469.593043	2571.810170
469.964238	2570.154151
470.335373	2573.241857
470.706449	2573.367886
471.077467	2573.196487
471.448425	2572.258832
471.819324	2575.142372
472.190164	2573.047773
472.560945	2574.655901
472.931667	2574.640777
473.302330	2573.221693
473.672934	2571.933678
474.043479	2573.619944
474.413965	2573.841755
474.784393	2574.353432
475.154761	2575.628844
475.525070	2572.286559
475.895321	2576.687486
476.265513	2575.399471
476.635645	2575.933833
477.005719	2574.391240
477.375734	2571.532906
477.745691	2573.314954
478.115588	2575.124728
478.485427	2576.246385
478.855207	2576.004410
479.224928	2578.179667
479.594591	2578.615727
479.964194	2579.795357
480.333739	2580.669997
480.703226	2579.339133
481.072653	2578.058680
481.442022	2581.829463
481.811333	2577.637743
482.180584	2578.134297
482.549777	2578.494740
482.918912	2576.911817
483.287988	2580.690162
483.657005	2579.409709
484.025964	2581.393403
484.394864	2581.224524
484.763706	2579.888619
485.132489	2581.879874
485.501213	2581.983218
485.869879	2579.318968
486.238487	2578.840059
486.607036	2583.364494
486.975527	2579.082034
487.343959	2582.230235
487.712333	2582.270564
488.080648	2579.946592
488.448905	2580.551530
488.817104	2582.192426
489.185244	2583.044381
489.553326	2582.799885
489.921350	2584.067735
490.289315	2584.649988
490.657222	2587.425144
491.025070	2586.116964
491.392861	2585.466655
491.760593	2587.823395
492.128267	2585.708631
492.495883	2583.026737
492.863440	2582.633527
493.230939	2582.595718
493.598380	2587.672160
493.965763	2582.290728
494.333088	2584.140832
494.700354	2582.109247
495.067563	2584.397931
495.434713	2584.788620
495.801805	2584.745770
496.168839	2584.592015
496.535815	2585.612849
496.902733	2581.758887
497.269593	2584.047571
497.636395	2587.094948
498.003139	2585.728795
498.369825	2583.709813
498.736453	2583.840883
499.103023	2584.173599
499.469535	2587.614187
499.835989	2582.774679
500.202385	2582.134453
500.568723	2579.578588
500.935003	2582.943558
501.301226	2580.790985
501.667390	2587.868765
502.033497	2586.011100
502.399546	2585.413723
502.765537	2585.817016
503.131470	2584.851635
503.497345	2583.064546
503.863163	2585.849783
504.228923	2587.142839
504.594625	2588.438416
504.960269	2585.489341
505.325856	2587.679722
505.691385	2589.111410
506.056856	2588.801379
506.422270	2589.812130
506.787625	2591.785742
507.152924	2590.273396
507.518164	2592.057964
507.883347	2591.105186
508.248472	2592.390680
508.613540	2591.470670
508.978550	2591.997470
509.343503	2593.116606
509.708398	2591.916812
510.073236	2593.378746
510.438016	2594.288675
510.802738	2595.276741
511.167403	2595.186000
511.532010	2595.115424
511.896561	2596.715990
512.261053	2593.161977
512.625488	2601.457195
512.989866	2595.032245
513.354186	2598.122472
513.718449	2598.737493
514.082655	2604.285283
514.446803	2601.966352
514.810894	2603.385437
515.174927	2604.592793
515.538904	2604.060951
515.902822	2603.156064
516.266684	2606.785695
516.630488	2606.299224
516.994235	2607.506580
517.357925	2608.217383
517.721558	2610.342229
518.085133	2610.001951
518.448651	2607.897269
518.812112	2607.136055
519.175516	2610.387599
519.538863	2606.568925
519.902152	2610.861468
520.265385	2613.220728
520.628560	2616.535287
520.991678	2615.219545
521.354739	2617.891357
521.717743	2617.198198
522.080690	2619.547376
522.443580	2621.508385
522.806413	2621.072325
523.169189	2623.517285
523.531908	2624.170114
523.894569	2623.096348
524.257174	2625.095166
524.619722	2623.885289
524.982213	2628.049282
525.344647	2627.494755
525.707025	2630.837040
526.069345	2629.037348
526.431608	2630.562297
526.793815	2630.453912
527.155964	2630.365692
527.518057	2630.426186
527.880093	2634.103708
528.242072	2636.326857
528.603995	2635.434572
528.965860	2636.389871
529.327669	2636.525982
529.689421	2639.263329
530.051117	2637.700571
530.412755	2639.061682
530.774337	2640.679893
531.135862	2640.397588
531.497331	2642.406488
531.858743	2644.924544
532.220098	2646.540234
532.581396	2643.865902
532.942638	2644.148207
533.303824	2647.004020
533.664953	2649.680873
534.026025	2649.680873
534.387040	2652.768580
534.747999	2655.150525
535.108902	2654.714465
535.469748	2654.207829
535.830537	2655.931904
536.191270	2658.071874
536.551947	2652.813950
536.912567	2657.315701
537.273131	2659.342244
537.633638	2655.757984
537.994089	2662.107317
538.354483	2663.780980
538.714821	2668.519665
539.075103	2667.839109
539.435328	2666.939263
539.795497	2668.005467
540.155609	2670.730211
540.515665	2670.145437
540.875665	2673.580983
541.235609	2675.652898
541.595496	2676.759431
541.955328	2677.097188
542.315102	2682.733198
542.674821	2681.485513
543.034483	2682.002231
543.394090	2686.861903
543.753640	2690.105886
544.113134	2690.499096
544.472571	2691.766946
544.831953	2697.564273
545.191278	2693.649817
545.550548	2697.642411
545.909761	2700.447813
546.268918	2706.598021
546.628019	2708.654811
546.987064	2709.927703
547.346053	2708.765717
547.704986	2712.579350
548.063863	2715.954402
548.422684	2717.307952
548.781449	2720.740978
549.140158	2723.168293
549.498811	2726.397152
549.857408	2724.080742
550.215949	2731.702967
550.574434	2735.100704
550.932864	2739.171436
551.291237	2743.738722
551.649555	2748.658888
552.007817	2750.803899
552.366022	2753.720206
552.724173	2754.811616
553.082267	2755.474528
553.440305	2765.589603
553.798288	2765.869387
554.156215	2775.097219
554.514086	2781.459155
554.871902	2773.040428
555.229661	2784.592232
555.587365	2786.036523
555.945014	2795.498769
556.302606	2805.641570
556.660143	2808.366314
557.017625	2820.520536
557.375050	2820.127326
557.732421	2827.162256
558.089735	2835.039059
558.446994	2839.563494
558.804197	2849.237469
559.161345	2859.133254
559.518437	2858.699714
559.875474	2866.745396
560.232455	2874.964997
560.589381	2883.431615
560.946251	2890.287584
561.303065	2903.676889
561.659825	2917.509815
562.016528	2920.746236
562.373177	2924.111206
562.729770	2932.845005
563.086307	2951.789661
563.442789	2963.901033
563.799216	2971.850933
564.155587	2978.583394
564.511904	2999.509224
564.868164	3001.939060
565.224370	3017.586801
565.580520	3025.042668
565.936615	3042.790050
566.292654	3043.417674
566.648638	3072.643763
567.004567	3079.381265
567.360441	3094.779470
567.716260	3101.645521
568.072023	3130.044861
568.427732	3142.191522
568.783385	3149.097902
569.138982	3175.233764
569.494525	3193.969213
569.850013	3216.800598
570.205445	3227.399624
570.560823	3232.755850
570.916145	3257.265940
571.271412	3274.577263
571.626625	3299.155408
571.981782	3324.116682
572.336884	3328.353771
572.691931	3352.999973
573.046923	3354.676156
573.401860	3387.665467
573.756743	3422.522525
574.111570	3435.374947
574.466342	3454.755663
574.821059	3484.558964
575.175722	3493.653206
575.530330	3528.101931
575.884882	3550.217473
576.239380	3582.395158
576.593823	3599.076336
576.948211	3620.344964
577.302544	3634.918940
577.656823	3657.755367
578.011047	3692.867003
578.365216	3715.279973
578.719330	3750.905807
579.073389	3769.888272
579.427394	3822.422136
579.781344	3819.611693
580.135239	3857.448073
580.489080	3881.416239
580.842866	3894.886202
581.196597	3970.173314
581.550273	3975.080878
581.903895	4033.613715
582.257463	4075.341866
582.610975	4087.790995
582.964434	4144.637567
583.317837	4167.811751
583.671186	4215.395202
584.024481	4263.044188
584.377721	4267.074591
584.730906	4315.943536
585.084037	4362.922049
585.437113	4391.460021
585.790135	4441.044810
586.143103	4445.102939
586.496016	4470.238132
586.848874	4559.539652
587.201679	4584.014454
587.554428	4592.677677
587.907124	4672.912681
588.259765	4694.314900
588.612352	4767.751908
588.964884	4756.293366
589.317362	4817.840813
589.669786	4872.063464
590.022155	4918.603396
590.374470	4994.876054
590.726731	5021.581566
591.078937	5031.570613
591.431090	5089.178398
591.783188	5094.963122
592.135232	5130.193226
592.487222	5213.755392
592.839157	5256.811887
593.191038	5303.641686
593.542866	5311.999919
593.894639	5340.603426
594.246358	5421.645015
594.598022	5442.245690
594.949633	5463.645388
595.301190	5489.433411
595.652692	5573.764353
596.004141	5654.385006
596.355535	5599.184371
596.706876	5648.068440
597.058162	5690.260377
597.409395	5757.844606
597.760573	5840.852245
598.111698	5853.218196
598.462768	5893.519700
598.813785	5930.373055
599.164748	5946.582886
599.515657	6008.306773
599.866511	6022.921078
600.217312	6141.909953
600.568060	6095.488488
600.918753	6228.005299
601.269392	6271.782679
601.619978	6260.818169
601.970510	6384.076902
602.320988	6414.447333
602.671412	6510.808989
603.021783	6548.458846
603.372100	6538.048863
603.722363	6641.798330
604.072572	6683.627304
604.422728	6748.433858
604.772830	6783.464836
605.122878	6790.590507
605.472872	6877.449587
605.822813	6938.238341
606.172701	6988.690209
606.522534	7089.046979
606.872314	7157.800756
607.222041	7154.521485
607.571714	7277.376925
607.921333	7305.889691
608.270899	7382.704273
608.620411	7517.787031
608.969870	7466.364741
609.319276	7544.202677
609.668627	7639.079713
610.017926	7744.114674
610.367171	7829.431162
610.716362	7931.786750
611.065500	7906.891011
611.414585	8021.877210
611.763616	8082.824760
612.112594	8133.410218
612.461518	8164.909868
612.810389	8296.655383
613.159207	8286.812530
613.507971	8331.721649
613.856682	8528.107359
614.205340	8559.344868
614.553945	8703.733597
614.902496	8627.150908
615.250994	8826.962082
615.599439	8853.370167
615.947830	8905.359586
616.296169	8954.977143
616.644454	9037.347076
616.992686	9055.701917
617.340864	9221.321465
617.688990	9200.199031
618.037063	9352.041105
618.385082	9352.945992
618.733048	9523.432774
619.080961	9527.700111
619.428821	9624.097055
619.776628	9662.586264
620.124382	9673.913737
620.472083	9760.374567
620.819731	9839.233336
621.167326	9755.877857
621.514868	9823.179782
621.862357	9785.235017
622.209793	9850.112146
622.557176	9836.964817
622.904506	9792.428743
623.251783	9812.570673
623.599007	9796.501996
623.946179	9823.162138
624.293297	9856.756387
624.640363	9796.277664
624.987376	9842.726856
625.334336	9795.579464
625.681243	9786.951530
626.028097	9829.997942
626.374899	9891.091686
626.721647	9837.373150
627.068343	9806.211258
627.414987	9829.738323
627.761577	9897.735927
628.108115	9980.728442
628.454600	9852.128608
628.801032	9937.767729
629.147412	9960.586512
629.493739	10026.766780
629.840014	9991.990380
630.186236	10073.916692
630.532405	10003.590075
630.878521	10164.770887
631.224585	10147.426797
631.570597	10125.432243
631.916556	10148.714812
632.262462	10188.250061
632.608316	10214.819462
632.954117	10216.440193
633.299866	10268.875755
633.645562	10276.992013
633.991206	10165.700980
634.336797	10113.618299
634.682336	10175.803452
635.027823	10133.689653
635.373257	10139.066043
635.718639	10093.980484
636.063968	10104.370302
636.409245	10013.949646
636.754470	10071.401156
637.099642	10025.198981
637.444762	9909.018029
637.789829	10000.671247
638.134845	9937.654303
638.479808	9984.317744
638.824719	9998.927008
639.169577	9930.526112
639.514383	10008.293472
639.859137	9920.683259
640.203839	10022.728816
640.548489	9937.281258
640.893086	9984.859668
641.237632	9902.494776
641.582125	10067.980733
641.926566	9993.840483
642.270955	10029.524291
642.615292	10039.936794
642.959576	10080.326519
643.303809	10156.866358
643.647990	10127.738571
643.992118	10215.489936
