Dividing Wavelength (nm)	Counts (n)	Blue Motor Position (mm): 20.300000	Red Motor Position (mm): 0.000000	
326.493990	2185.849349
326.888308	2185.849349
327.282561	2185.849349
327.676750	2144.872330
328.070874	2141.497277
328.464933	2141.099026
328.858929	2144.819398
329.252859	2150.480613
329.646726	2158.803558
330.040528	2172.770075
330.434265	2184.679801
330.827938	2202.563294
331.221547	2218.359750
331.615091	2237.291803
332.008571	2253.423496
332.401986	2273.928389
332.795338	2292.991512
333.188625	2312.664615
333.581847	2332.650269
333.975006	2349.964112
334.368100	2367.320805
334.761129	2389.151522
335.154095	2403.770868
335.546996	2430.499066
335.939833	2457.446553
336.332606	2471.876856
336.725315	2485.525780
337.117960	2498.179077
337.510540	2510.532424
337.903056	2521.902747
338.295508	2528.098325
338.687896	2537.406815
339.080220	2545.964174
339.472480	2554.098076
339.864676	2557.556307
340.256807	2563.252811
340.648875	2568.790518
341.040879	2569.274469
341.432818	2572.520972
341.824694	2577.196643
342.216506	2575.961560
342.608253	2577.836869
342.999937	2574.794533
343.391557	2581.166551
343.783113	2577.967939
344.174605	2575.911148
344.566033	2576.042218
344.957397	2575.344018
345.348697	2574.176991
345.739934	2569.108111
346.131106	2570.207083
346.522215	2567.333625
346.913260	2567.303378
347.304241	2564.394632
347.695159	2560.961607
348.086012	2560.167625
348.476802	2558.163766
348.867528	2553.518343
349.258191	2548.295707
349.648789	2550.564227
350.039324	2545.064328
350.429796	2552.893240
350.820203	2547.887374
351.210548	2549.969371
351.600828	2546.717826
351.991045	2546.324616
352.381198	2544.477033
352.771288	2546.697662
353.161314	2544.338402
353.551276	2542.387475
353.941175	2543.947712
354.331010	2543.410829
354.720782	2542.889070
355.110490	2542.014430
355.500135	2540.756662
355.889717	2537.737011
356.279235	2546.105326
356.668689	2540.794471
357.058080	2542.203473
357.447408	2541.354039
357.836672	2546.140614
358.225873	2541.449821
358.615010	2543.867054
359.004084	2545.666746
359.393095	2544.199770
359.782043	2545.848227
360.170927	2546.664894
360.559748	2548.096582
360.948505	2545.926365
361.337199	2548.918290
361.725830	2549.654298
362.114398	2549.041798
362.502903	2549.646737
362.891344	2552.139587
363.279722	2551.108671
363.668037	2549.167827
364.056289	2548.552806
364.444478	2551.927859
364.832603	2550.700338
365.220665	2551.637992
365.608665	2553.334341
365.996601	2552.873075
366.384474	2553.230997
366.772284	2551.249824
367.160031	2551.224618
367.547715	2557.095042
367.935336	2553.503219
368.322893	2554.594629
368.710388	2550.173537
369.097820	2551.680842
369.485189	2552.469783
369.872495	2557.049671
370.259738	2556.061605
370.646918	2554.050185
371.034035	2560.212995
371.421090	2558.824157
371.808081	2558.904816
372.195010	2558.879610
372.581875	2557.974723
372.968678	2557.652089
373.355418	2558.375495
373.742096	2558.501523
374.128710	2558.037737
374.515262	2560.603685
374.901751	2559.086297
375.288177	2560.908674
375.674540	2561.465722
376.060841	2560.616287
376.447079	2560.588561
376.833254	2560.737275
377.219367	2561.490928
377.605417	2562.768860
377.991404	2561.841288
378.377329	2561.808520
378.763191	2563.623336
379.148991	2563.373799
379.534727	2561.533778
379.920402	2562.882286
380.306013	2563.784653
380.691563	2567.709191
381.077049	2562.652914
381.462474	2562.431103
381.847835	2564.808007
382.233134	2566.322874
382.618371	2564.039231
383.003545	2565.604509
383.388657	2565.841443
383.773706	2565.329766
384.158693	2565.125600
384.543618	2566.973182
384.928480	2564.699622
385.313280	2566.751372
385.698017	2566.363203
386.082692	2567.588203
386.467305	2566.607699
386.851856	2570.045766
387.236344	2570.708677
387.620770	2565.619633
388.005133	2562.693243
388.389435	2566.048131
388.773674	2561.962276
389.157851	2568.709860
389.541965	2569.287072
389.926018	2569.458471
390.310008	2568.389747
390.693936	2567.741958
391.077802	2570.726322
391.461606	2567.378995
391.845348	2571.192628
392.229027	2566.940415
392.612645	2571.774882
392.996200	2570.386044
393.379694	2572.697413
393.763125	2572.432752
394.146494	2571.089285
394.529801	2572.536096
394.913047	2573.602300
395.296230	2572.594069
395.679351	2572.253791
396.062410	2573.226734
396.445408	2571.681620
396.828343	2572.599110
397.211217	2573.768658
397.594028	2573.375448
397.976778	2571.555591
398.359466	2573.589697
398.742092	2575.291086
399.124656	2573.718246
399.507158	2572.654563
399.889598	2574.272773
400.271977	2575.896025
400.654294	2574.602969
401.036549	2573.186405
401.418742	2575.293607
401.800874	2575.918710
402.182944	2573.904769
402.564952	2579.334092
402.946898	2578.187229
403.328783	2575.364183
403.710606	2576.737897
404.092367	2575.807805
404.474067	2577.408371
404.855705	2576.231262
405.237282	2579.480285
405.618797	2576.833679
406.000250	2581.837025
406.381642	2577.673032
406.762972	2577.917527
407.144240	2577.390727
407.525447	2577.461303
407.906593	2574.227403
408.287677	2577.713361
408.668700	2578.136818
409.049661	2579.374421
409.430560	2576.354770
409.811399	2580.115471
410.192176	2581.075810
410.572891	2580.135635
410.953545	2584.087900
411.334138	2581.393403
411.714669	2580.362487
412.095139	2581.907601
412.475547	2580.339802
412.855894	2582.651171
413.236180	2580.533886
413.616405	2582.787282
413.996568	2581.065728
414.376670	2581.650502
414.756711	2584.279464
415.136691	2581.504308
415.516609	2580.506160
415.896466	2579.911304
416.276262	2582.492375
416.655997	2584.529001
417.035670	2583.440112
417.415283	2587.316759
417.794834	2585.998497
418.174324	2584.788620
418.553753	2583.331727
418.933121	2584.246696
419.312428	2586.288363
419.691674	2586.369022
420.070859	2584.856676
420.449983	2586.487489
420.829045	2585.446491
421.208047	2585.254927
421.586988	2585.544793
421.965867	2584.415575
422.344686	2585.726275
422.723444	2584.042529
423.102141	2585.829618
423.480777	2585.627972
423.859352	2587.936821
424.237866	2584.042529
424.616319	2585.416244
424.994712	2589.590319
425.373044	2588.864393
425.751314	2585.759042
426.129524	2584.355081
426.507673	2586.477407
426.885762	2580.140676
427.263789	2588.771132
427.641756	2587.727613
428.019662	2589.451687
428.397508	2589.600402
428.775292	2588.685432
429.153016	2590.366657
429.530679	2590.855649
429.908282	2587.926738
430.285824	2590.873293
430.663305	2589.638210
431.040726	2590.583427
431.418086	2589.179465
431.795385	2588.151070
432.172624	2588.629979
432.549802	2591.155598
432.926920	2591.516040
433.303977	2593.033427
433.680974	2590.500247
434.057910	2590.875813
434.434786	2591.871441
434.811601	2591.558890
435.188355	2595.294385
435.565050	2591.919332
435.941683	2588.934969
436.318257	2593.270362
436.694770	2592.688108
437.071222	2592.277254
437.447614	2595.168356
437.823946	2594.586103
438.200218	2592.284816
438.576429	2592.572162
438.952580	2594.659199
439.328670	2592.388160
439.704700	2591.526122
440.080670	2593.860177
440.456580	2595.082656
440.832429	2594.661720
441.208218	2592.526791
441.583947	2597.018459
441.959616	2596.768922
442.335224	2592.826740
442.710773	2595.561566
443.086261	2594.349168
443.461689	2596.569797
443.837057	2596.595002
444.212365	2596.463932
444.587612	2595.435537
444.962800	2594.946545
445.337927	2593.391349
445.712995	2592.501586
446.088002	2598.258583
446.462949	2597.426793
446.837837	2599.042483
447.212664	2596.887389
447.587431	2598.485435
447.962139	2599.866711
448.336786	2601.772267
448.711374	2602.301589
449.085901	2598.185487
449.460369	2599.533995
449.834776	2601.174891
450.209124	2600.151537
450.583412	2602.145313
450.957640	2604.557505
451.331808	2602.167998
451.705917	2600.305292
452.079965	2600.282607
452.453954	2604.877618
452.827883	2602.057093
453.201752	2601.134562
453.575562	2603.173708
453.949311	2601.905858
454.323001	2602.309150
454.696632	2602.866198
455.070202	2601.545416
455.443713	2602.485591
455.817164	2603.645056
456.190556	2605.129676
456.563888	2604.925509
456.937160	2604.774275
457.310373	2605.684203
457.683526	2604.229830
458.056619	2604.902824
458.429653	2606.316868
458.802628	2604.970880
459.175542	2607.350304
459.548398	2610.238885
459.921194	2609.765017
460.293930	2608.771910
460.666607	2606.863833
461.039224	2608.542537
461.411782	2610.480861
461.784280	2609.149996
462.156719	2612.512446
462.529099	2611.907507
462.901419	2611.599997
463.273680	2612.323402
463.645882	2606.150510
464.018024	2609.127311
464.390106	2606.452979
464.762130	2612.870368
465.134094	2613.621500
465.505999	2614.735595
465.877845	2621.364712
466.249631	2624.785135
466.621358	2624.684312
466.993026	2623.033334
467.364634	2626.146246
467.736184	2622.831688
468.107674	2617.624176
468.479105	2621.556276
468.850477	2622.778756
469.221790	2620.590895
469.593043	2617.815740
469.964238	2619.562499
470.335373	2620.651389
470.706449	2621.117695
471.077467	2622.287243
471.448425	2623.827316
471.819324	2629.354941
472.190164	2633.768471
472.560945	2631.091618
472.931667	2627.454426
473.302330	2626.151287
473.672934	2629.238994
474.043479	2629.677575
474.413965	2630.955507
474.784393	2630.829478
475.154761	2634.597741
475.525070	2633.055148
475.895321	2635.880714
476.265513	2634.612864
476.635645	2637.256949
477.005719	2636.969604
477.375734	2640.155613
477.745691	2644.664925
478.115588	2645.476551
478.485427	2649.070893
478.855207	2655.458035
479.224928	2659.927018
479.594591	2668.302895
479.964194	2672.426559
480.333739	2673.200376
480.703226	2677.739935
481.072653	2678.218845
481.442022	2686.375432
481.811333	2694.398428
482.180584	2695.535208
482.549777	2697.647452
482.918912	2697.559232
483.287988	2710.416695
483.657005	2713.453990
484.025964	2717.590257
484.394864	2723.261555
484.763706	2727.518809
485.132489	2727.828840
485.501213	2742.193608
485.869879	2750.456059
486.238487	2758.728592
486.607036	2766.028183
486.975527	2772.664862
487.343959	2790.427368
487.712333	2799.463636
488.080648	2815.534835
488.448905	2826.418686
488.817104	2842.197497
489.185244	2864.428986
489.553326	2886.042933
489.921350	2917.051070
490.289315	2987.034888
490.657222	3040.062786
491.025070	3075.739032
491.392861	3102.063937
491.760593	3113.923251
492.128267	3129.177783
492.495883	3135.088536
492.863440	3153.070332
493.230939	3165.829492
493.598380	3207.860112
493.965763	3235.594020
494.333088	3260.545211
494.700354	3298.285809
495.067563	3342.872294
495.434713	3379.740773
495.801805	3428.067794
496.168839	3476.631750
496.535815	3529.707538
496.902733	3593.611725
497.269593	3626.737147
497.636395	3706.223540
498.003139	3765.094135
498.369825	3830.339268
498.736453	3895.503744
499.103023	3953.885346
499.469535	4028.895195
499.835989	4117.616982
500.202385	4201.466494
500.568723	4240.104418
500.935003	4329.688242
501.301226	4392.506060
501.667390	4534.747257
502.033497	4669.141898
502.399546	4709.912230
502.765537	4783.059372
503.131470	4903.048916
503.497345	5014.423128
503.863163	5031.396693
504.228923	5195.496333
504.594625	5332.560265
504.960269	5361.546899
505.325856	5542.768818
505.691385	5586.203400
506.056856	5757.353094
506.422270	5897.580350
506.787625	5930.065545
507.152924	6142.565303
507.518164	6237.943934
507.883347	6322.262273
508.248472	6388.397170
508.613540	6646.146325
508.978550	6771.726509
509.343503	6892.210086
509.708398	7079.617501
510.073236	7226.582259
510.438016	7405.853251
510.802738	7502.376224
511.167403	7694.426541
511.532010	7773.514683
511.896561	8092.927232
512.261053	8269.070189
512.625488	8362.427317
512.989866	8485.411306
513.354186	8582.687931
513.718449	8795.868245
514.082655	9023.463738
514.446803	9149.638778
514.810894	9421.513246
515.174927	9431.582951
515.538904	9606.039642
515.902822	9909.270087
516.266684	10033.322800
516.630488	10146.315223
516.994235	10311.539040
517.357925	10577.137272
517.721558	10829.202526
518.085133	11034.972343
518.448651	11170.037458
518.812112	11272.138467
519.175516	11473.741771
519.538863	11750.722928
519.902152	11820.114411
520.265385	12130.410033
520.628560	12220.603837
520.991678	12427.397009
521.354739	12643.770894
521.717743	12872.825801
522.080690	12936.321654
522.443580	13308.794868
522.806413	13454.640490
523.169189	13717.456004
523.531908	13883.383063
523.894569	13921.993260
524.257174	14123.132778
524.619722	14408.111725
524.982213	14411.711109
525.344647	14658.636907
525.707025	14876.417274
526.069345	15083.472586
526.431608	15248.023409
526.793815	15536.190886
527.155964	15369.532861
527.518057	15651.532486
527.880093	15811.687423
528.242072	16057.458797
528.603995	16072.352886
528.965860	16127.190557
529.327669	16392.940023
529.689421	16509.282293
530.051117	16574.850060
530.412755	16900.543887
530.774337	16892.639357
531.135862	16982.727297
531.497331	17277.090352
531.858743	17131.128784
532.220098	17655.139082
532.581396	17531.797171
532.942638	17732.848469
533.303824	17919.676151
533.664953	18095.380527
534.026025	18030.722688
534.387040	18323.782605
534.747999	18575.197550
535.108902	18801.840265
535.469748	18603.985059
535.830537	18893.223782
536.191270	19082.405683
536.551947	19200.993786
536.912567	19045.769097
537.273131	19402.657584
537.633638	19313.015786
537.994089	19641.772113
538.354483	19405.190763
538.714821	19924.714435
539.075103	20097.767164
539.435328	20057.352234
539.795497	19820.407921
540.155609	20273.395923
540.515665	20618.311669
540.875665	20118.289701
541.235609	20450.632810
541.595496	20572.220399
541.955328	20951.708379
542.315102	20991.427630
542.674821	20772.991913
543.034483	20756.625807
543.394090	20972.293930
543.753640	20892.240407
544.113134	21539.781660
544.472571	21303.810290
544.831953	21666.007111
545.191278	21389.371273
545.550548	21462.664609
545.909761	21692.430319
546.268918	21989.470227
546.628019	22035.654758
546.987064	21884.967108
547.346053	21762.915732
547.704986	21933.102565
548.063863	22154.303355
548.422684	22192.631248
548.781449	21898.318604
549.140158	22324.326351
549.498811	22029.479345
549.857408	21827.515598
550.215949	22309.384371
550.574434	22063.121485
550.932864	22328.923883
551.291237	22506.995081
551.649555	22459.802319
552.007817	22555.576681
552.366022	22493.290704
552.724173	22586.395775
553.082267	22569.107137
553.440305	23066.255647
553.798288	22441.591151
554.156215	22977.468325
554.514086	23099.416357
554.871902	22535.676726
555.229661	22842.814065
555.587365	22761.928752
555.945014	22638.538949
556.302606	22943.448099
556.660143	22896.552765
557.017625	23192.967570
557.375050	22784.059417
557.732421	23178.323018
558.089735	23032.401779
558.446994	23117.564511
558.804197	23161.601511
559.161345	23168.913704
559.518437	22920.404984
559.875474	23171.968644
560.232455	23351.791643
560.589381	23220.351118
560.946251	23197.766748
561.303065	23548.149626
561.659825	23653.832375
562.016528	23290.491212
562.373177	23061.524525
562.729770	23405.469849
563.086307	23317.317712
563.442789	23491.154341
563.799216	23321.781654
564.155587	23372.198233
564.511904	23368.122460
564.868164	23304.364467
565.224370	23309.062822
565.580520	23220.431776
565.936615	23367.935938
566.292654	23042.647924
566.648638	23376.526064
567.004567	23200.647768
567.360441	23157.422394
567.716260	22909.314446
568.072023	23240.929108
568.427732	23007.662316
568.783385	22811.057316
569.138982	23041.692625
569.494525	23077.583120
569.850013	22837.740144
570.205445	22939.037089
570.560823	22745.650866
570.916145	22536.042209
571.271412	22698.805944
571.626625	22465.050160
571.981782	22581.402512
572.336884	22389.662225
572.691931	22517.911700
573.046923	22271.787445
573.401860	22160.771155
573.756743	22156.130773
574.111570	22082.839958
574.466342	22011.643742
574.821059	22108.280141
575.175722	21805.246301
575.530330	21803.592802
575.884882	21825.627686
576.239380	21732.845249
576.593823	21626.958333
576.948211	21621.271912
577.302544	21467.753654
577.656823	21336.708860
578.011047	21433.995567
578.365216	21316.289666
578.719330	21193.182168
579.073389	21095.484607
579.427394	21237.851833
579.781344	21027.907940
580.135239	20919.729819
580.489080	20900.780122
580.842866	20658.469501
581.196597	20830.952579
581.550273	20827.569965
581.903895	20723.144984
582.257463	21032.656707
582.610975	20563.350489
582.964434	20852.145590
583.317837	20580.865978
583.671186	20672.955256
584.024481	20626.899275
584.377721	20419.251627
584.730906	20454.685897
585.084037	20505.183136
585.437113	20394.497041
585.790135	20599.225861
586.143103	20080.385266
586.496016	20082.399207
586.848874	20333.849440
587.201679	20273.108577
587.554428	19938.680952
587.907124	20271.402147
588.259765	20046.445697
588.612352	20129.652462
588.964884	19694.172387
589.317362	19870.396002
589.669786	19919.340565
590.022155	19987.224743
590.374470	20146.918414
590.726731	19964.544591
591.078937	19701.048521
591.431090	19818.807354
591.783188	19547.479851
592.135232	19534.698006
592.487222	19624.483476
592.839157	19665.276493
593.191038	19543.209994
593.542866	19430.215051
593.894639	19159.016098
594.246358	19369.585094
594.598022	19286.804307
594.949633	19029.438279
595.301190	18995.168515
595.652692	19152.449995
596.004141	19406.090609
596.355535	18736.000276
596.706876	18741.611080
597.058162	18641.397982
597.409395	18853.386063
597.760573	18951.028172
598.111698	18728.370489
598.462768	18655.389705
598.813785	18615.599878
599.164748	18457.663048
599.515657	18475.808682
599.866511	18270.888298
600.217312	18641.569382
600.568060	18165.137493
600.918753	18482.112644
601.269392	18376.777735
601.619978	18148.907499
601.970510	18364.154686
602.320988	18303.582702
602.671412	18515.452315
603.021783	18410.888702
603.372100	18163.491557
603.722363	18285.058982
604.072572	18226.500939
604.422728	18363.587556
604.772830	18120.281307
605.122878	18065.642761
605.472872	18064.508501
605.822813	18058.101194
606.172701	18014.417076
606.522534	18223.559425
606.872314	18242.380573
607.222041	18077.310511
607.571714	18285.285834
607.921333	18125.075444
608.270899	18188.185649
608.620411	18387.689312
608.969870	18137.980798
609.319276	18149.996388
609.668627	18179.933280
610.017926	18309.377508
610.367171	18424.562832
610.716362	18471.773238
611.065500	18282.740051
611.414585	18427.547195
611.763616	18404.297394
612.112594	18352.252521
612.461518	18320.049631
612.810389	18527.495632
613.159207	18354.279065
613.507971	18273.842414
613.856682	18552.587975
614.205340	18486.558942
614.553945	18630.708216
614.902496	18366.178709
615.250994	18614.538715
615.599439	18553.399601
615.947830	18546.374753
616.296169	18588.289427
616.644454	18548.537408
616.992686	18525.219551
617.340864	18733.154544
617.688990	18498.466147
618.037063	18682.082615
618.385082	18522.860291
618.733048	18796.814235
619.080961	18655.949273
619.428821	18698.834369
619.776628	18601.313248
620.124382	18522.933388
620.472083	18549.911123
620.819731	18580.160566
621.167326	18272.196478
621.514868	18317.176173
621.862357	18067.863389
622.209793	18087.717973
622.557176	17915.718845
622.904506	17748.899503
623.251783	17654.753434
623.599007	17434.679342
623.946179	17379.614819
624.293297	17320.928226
624.640363	17070.201399
624.987376	17094.101509
625.334336	16880.769961
625.681243	16728.481744
626.028097	16732.333186
626.374899	16672.731624
626.721647	16537.661468
627.068343	16371.089142
627.414987	16293.835980
627.761577	16268.342865
628.108115	16321.388406
628.454600	16034.055240
628.801032	16132.448481
629.147412	16063.334262
629.493739	16081.673979
629.840014	15897.755043
630.186236	15991.064280
630.532405	15759.443425
630.878521	15952.388548
631.224585	15849.985069
631.570597	15683.105233
631.916556	15710.529110
632.262462	15689.147056
632.608316	15601.662872
632.954117	15541.151382
633.299866	15547.629264
633.645562	15469.229240
633.991206	15221.607763
634.336797	15083.356639
634.682336	15059.186827
635.027823	14952.584067
635.373257	14840.168857
635.718639	14725.850611
636.063968	14680.006358
636.409245	14434.411425
636.754470	14467.090705
637.099642	14316.201408
637.444762	14080.978649
637.789829	14127.435403
638.134845	13966.935147
638.479808	13981.930059
638.824719	13943.284573
639.169577	13786.870172
