Dividing Wavelength (nm)	Counts (n)	Blue Motor Position (mm): 12.500000	Red Motor Position (mm): 0.000000	
326.493990	2165.601554
326.888308	2165.601554
327.282561	2165.601554
327.676750	2123.523043
328.070874	2119.164966
328.464933	2120.841149
328.858929	2124.145626
329.252859	2128.256687
329.646726	2137.378655
330.040528	2151.244348
330.434265	2164.028714
330.827938	2184.705007
331.221547	2197.401153
331.615091	2217.059132
332.008571	2235.058572
332.401986	2252.866448
332.795338	2273.663728
333.188625	2291.451440
333.581847	2309.032464
333.975006	2326.343786
334.368100	2346.044615
334.761129	2362.566997
335.154095	2379.434698
335.546996	2401.043604
335.939833	2424.694177
336.332606	2440.180602
336.725315	2455.228446
337.117960	2467.624643
337.510540	2480.204843
337.903056	2490.130874
338.295508	2497.909375
338.687896	2506.091167
339.080220	2513.630213
339.472480	2519.619104
339.864676	2525.970958
340.256807	2532.653007
340.648875	2533.741896
341.040879	2538.984696
341.432818	2540.426466
341.824694	2545.553320
342.216506	2542.568957
342.608253	2542.521066
342.999937	2545.371838
343.391557	2542.710109
343.783113	2546.475851
344.174605	2543.307486
344.566033	2545.334030
344.957397	2544.345963
345.348697	2541.066693
345.739934	2540.151723
346.131106	2535.410518
346.522215	2532.093439
346.913260	2532.436238
347.304241	2535.539068
347.695159	2531.352389
348.086012	2531.014632
348.476802	2527.415248
348.867528	2522.303518
349.258191	2518.895698
349.648789	2519.646830
350.039324	2514.991325
350.429796	2518.499968
350.820203	2517.118692
351.210548	2518.094155
351.600828	2515.989473
351.991045	2512.702641
352.381198	2512.211128
352.771288	2510.628206
353.161314	2512.553927
353.551276	2511.858248
353.941175	2513.163906
354.331010	2513.216838
354.720782	2511.117198
355.110490	2512.400172
355.500135	2510.537465
355.889717	2507.936230
356.279235	2510.746673
356.668689	2509.078051
357.058080	2511.288597
357.447408	2510.398833
357.836672	2511.492764
358.225873	2510.489574
358.615010	2510.930675
359.004084	2512.362363
359.393095	2515.805471
359.782043	2511.782630
360.170927	2511.966632
360.559748	2514.315810
360.948505	2516.528877
361.337199	2514.731705
361.725830	2513.345388
362.114398	2517.058198
362.502903	2517.491737
362.891344	2518.865451
363.279722	2517.199350
363.668037	2519.359484
364.056289	2519.470390
364.444478	2519.800585
364.832603	2519.750174
365.220665	2520.145904
365.608665	2520.914680
365.996601	2521.978364
366.384474	2522.074146
366.772284	2521.849814
367.160031	2523.205885
367.547715	2520.045081
367.935336	2524.471214
368.322893	2517.995852
368.710388	2518.568023
369.097820	2524.335103
369.485189	2517.534587
369.872495	2525.802079
370.259738	2522.454753
370.646918	2527.059847
371.034035	2521.582633
371.421090	2524.922398
371.808081	2524.090607
372.195010	2525.287881
372.581875	2528.516740
372.968678	2528.990609
373.355418	2524.884589
373.742096	2527.039682
374.128710	2525.436595
374.515262	2528.723428
374.901751	2524.239321
375.288177	2530.439941
375.674540	2529.119158
376.060841	2527.909281
376.447079	2526.762419
376.833254	2528.993129
377.219367	2529.726617
377.605417	2530.084539
377.991404	2530.112266
378.377329	2527.896678
378.763191	2529.630835
379.148991	2528.070598
379.534727	2527.644621
379.920402	2528.050434
380.306013	2528.612522
380.691563	2534.445137
381.077049	2530.810465
381.462474	2532.821886
381.847835	2530.225692
382.233134	2531.395239
382.618371	2534.026722
383.003545	2530.923891
383.388657	2531.024714
383.773706	2530.722245
384.158693	2531.680064
384.543618	2533.477236
384.928480	2532.179139
385.313280	2533.406660
385.698017	2532.970600
386.082692	2530.941535
386.467305	2534.198121
386.851856	2535.256763
387.236344	2533.028573
387.620770	2533.139478
388.005133	2531.223840
388.389435	2533.429345
388.773674	2527.974816
389.157851	2538.755324
389.541965	2535.355066
389.926018	2535.367668
390.310008	2536.743903
390.693936	2537.721887
391.077802	2536.854809
391.461606	2535.052596
391.845348	2535.939839
392.229027	2536.141486
392.612645	2534.929088
392.996200	2537.260622
393.379694	2537.137113
393.763125	2537.986548
394.146494	2536.020498
394.529801	2538.692309
394.913047	2538.367155
395.296230	2539.912269
395.679351	2538.346990
396.062410	2538.039480
396.445408	2537.237937
396.828343	2537.759696
397.211217	2540.582742
397.594028	2540.620551
397.976778	2538.205838
398.359466	2541.611138
398.742092	2541.492670
399.124656	2540.451672
399.507158	2540.933102
399.889598	2543.148689
400.271977	2541.812784
400.654294	2540.416384
401.036549	2540.940664
401.418742	2544.280428
401.800874	2541.202804
402.182944	2544.308155
402.564952	2539.990407
402.946898	2541.706919
403.328783	2541.913607
403.710606	2541.880839
404.092367	2541.686755
404.474067	2539.657690
404.855705	2542.241282
405.237282	2545.936448
405.618797	2540.618030
406.000250	2544.235058
406.381642	2543.471323
406.762972	2542.369831
407.144240	2538.089892
407.525447	2542.332023
407.906593	2538.888914
408.287677	2543.345294
408.668700	2542.072403
409.049661	2546.193546
409.430560	2545.555840
409.811399	2544.136756
410.192176	2544.603062
410.572891	2544.098947
410.953545	2544.819832
411.334138	2543.993083
411.714669	2544.905532
412.095139	2547.204298
412.475547	2545.142466
412.855894	2545.901159
413.236180	2547.065666
413.616405	2544.557692
413.996568	2548.058773
414.376670	2544.192208
414.756711	2545.389482
415.136691	2548.643547
415.516609	2545.263453
415.896466	2544.729091
416.276262	2548.593136
416.655997	2547.635316
417.035670	2546.576674
417.415283	2551.212015
417.794834	2548.673794
418.174324	2547.438711
418.553753	2548.789741
418.933121	2548.575492
419.312428	2548.431819
419.691674	2547.980635
420.070859	2550.415513
420.449983	2548.963660
420.829045	2548.635985
421.208047	2552.978939
421.586988	2546.606921
421.965867	2550.042467
422.344686	2553.520863
422.723444	2550.929710
423.102141	2550.591953
423.480777	2550.919628
423.859352	2551.012889
424.237866	2547.441232
424.616319	2550.909546
424.994712	2552.298384
425.373044	2551.985832
425.751314	2550.508774
426.129524	2547.521890
426.507673	2550.672612
426.885762	2546.692621
427.263789	2549.445091
427.641756	2548.983825
428.019662	2552.106820
428.397508	2551.585060
428.775292	2550.281922
429.153016	2551.196892
429.530679	2554.098076
429.908282	2552.147149
430.285824	2552.729402
430.663305	2550.947354
431.040726	2551.824515
431.418086	2551.665719
431.795385	2553.621687
432.172624	2550.165976
432.549802	2551.953065
432.926920	2553.006666
433.303977	2551.448949
433.680974	2553.851059
434.057910	2552.121943
434.434786	2553.412479
434.811601	2551.587581
435.188355	2553.944320
435.565050	2550.901984
435.941683	2552.971378
436.318257	2553.243600
436.694770	2553.382232
437.071222	2552.691594
437.447614	2554.642520
437.823946	2555.615463
438.200218	2551.217056
438.576429	2553.535987
438.952580	2552.023641
439.328670	2551.040616
439.704700	2555.386090
440.080670	2553.578837
440.456580	2555.340720
440.832429	2553.480534
441.208218	2554.498847
441.583947	2554.400545
441.959616	2558.110834
442.335224	2555.151677
442.710773	2557.309291
443.086261	2555.406255
443.461689	2555.484393
443.837057	2557.982285
444.212365	2554.617314
444.587612	2552.089176
444.962800	2553.294012
445.337927	2554.556821
445.712995	2552.333672
446.088002	2554.695452
446.462949	2554.108158
446.837837	2554.319886
447.212664	2554.224104
447.587431	2558.350289
447.962139	2555.708724
448.336786	2557.571431
448.711374	2556.858107
449.085901	2557.190823
449.460369	2556.618652
449.834776	2557.536143
450.209124	2556.411965
450.583412	2555.439022
450.957640	2557.387428
451.331808	2558.977913
451.705917	2557.427758
452.079965	2560.253324
452.453954	2558.564538
452.827883	2560.575958
453.201752	2558.693087
453.575562	2559.419013
453.949311	2555.807027
454.323001	2558.562017
454.696632	2557.508416
455.070202	2558.461194
455.443713	2556.573282
455.817164	2557.384908
456.190556	2557.853735
456.563888	2558.829198
456.937160	2557.790721
457.310373	2559.292985
457.683526	2560.215516
458.056619	2559.214847
458.429653	2558.897254
458.802628	2559.857594
459.175542	2557.016904
459.548398	2560.497820
459.921194	2557.984805
460.293930	2558.408262
460.666607	2561.521175
461.039224	2560.727193
461.411782	2559.789538
461.784280	2558.574620
462.156719	2561.838767
462.529099	2561.808520
462.901419	2561.107800
463.273680	2559.517316
463.645882	2556.900957
464.018024	2557.329455
464.390106	2555.887685
464.762130	2560.323901
465.134094	2562.022769
465.505999	2562.446226
465.877845	2563.189797
466.249631	2563.071329
466.621358	2562.516803
466.993026	2567.016032
467.364634	2568.059551
467.736184	2564.603840
468.107674	2563.646021
468.479105	2561.541339
468.850477	2565.438151
469.221790	2561.984961
469.593043	2565.075188
469.964238	2564.427400
470.335373	2561.846329
470.706449	2564.503017
471.077467	2564.341700
471.448425	2566.514437
471.819324	2565.481001
472.190164	2566.222051
472.560945	2566.496793
472.931667	2564.525702
473.302330	2565.765826
473.672934	2567.938563
474.043479	2566.665672
474.413965	2564.298850
474.784393	2566.249777
475.154761	2567.515107
475.525070	2568.067113
475.895321	2562.973027
476.265513	2564.351782
476.635645	2568.331773
477.005719	2566.504355
477.375734	2565.012174
477.745691	2566.511917
478.115588	2569.518965
478.485427	2567.215158
478.855207	2567.557956
479.224928	2569.975190
479.594591	2568.558625
479.964194	2571.542988
480.333739	2568.891342
480.703226	2569.841599
481.072653	2572.735221
481.442022	2568.883780
481.811333	2570.781774
482.180584	2568.667010
482.549777	2570.978379
482.918912	2567.762123
483.287988	2571.293451
483.657005	2572.795715
484.025964	2572.465520
484.394864	2569.670200
484.763706	2572.084912
485.132489	2571.842937
485.501213	2571.820252
485.869879	2569.244222
486.238487	2573.398133
486.607036	2569.440827
486.975527	2572.447876
487.343959	2571.832855
487.712333	2571.535427
488.080648	2570.426373
488.448905	2573.201528
488.817104	2571.974007
489.185244	2572.498287
489.553326	2574.504666
489.921350	2573.012485
490.289315	2573.826631
490.657222	2575.669173
491.025070	2574.199677
491.392861	2573.594738
491.760593	2574.897876
492.128267	2574.189594
492.495883	2574.184553
492.863440	2572.767989
493.230939	2575.336457
493.598380	2574.272773
493.965763	2574.706312
494.333088	2571.948801
494.700354	2574.224882
495.067563	2571.434604
495.434713	2572.790674
495.801805	2573.209090
496.168839	2573.902248
496.535815	2573.945098
496.902733	2573.781261
497.269593	2575.490212
497.636395	2573.662794
498.003139	2571.260684
498.369825	2576.309399
498.736453	2576.478278
499.103023	2573.022567
499.469535	2573.302351
499.835989	2573.483833
500.202385	2572.571384
500.568723	2567.232802
500.935003	2571.137176
501.301226	2566.892524
501.667390	2574.343349
502.033497	2575.064234
502.399546	2573.594738
502.765537	2574.091292
503.131470	2575.434759
503.497345	2574.290417
503.863163	2576.067424
504.228923	2575.018864
504.594625	2577.547003
504.960269	2579.858372
505.325856	2575.520459
505.691385	2573.181363
506.056856	2575.636405
506.422270	2575.114646
506.787625	2578.991293
507.152924	2578.446849
507.518164	2578.230079
507.883347	2577.214287
508.248472	2579.308886
508.613540	2580.370049
508.978550	2580.407857
509.343503	2578.734194
509.708398	2579.969277
510.073236	2578.691345
510.438016	2580.181006
510.802738	2581.882395
511.167403	2582.121850
511.532010	2580.128073
511.896561	2583.314083
512.261053	2581.542117
512.625488	2581.307703
512.989866	2582.925914
513.354186	2582.358784
513.718449	2584.831470
514.082655	2587.299115
514.446803	2584.355081
514.810894	2588.241811
515.174927	2585.569999
515.538904	2586.575709
515.902822	2589.779362
516.266684	2587.977150
516.630488	2587.379773
516.994235	2588.398086
517.357925	2589.797007
517.721558	2591.362285
518.085133	2592.441092
518.448651	2587.427664
518.812112	2587.329362
519.175516	2589.108889
519.538863	2590.797676
519.902152	2594.792790
520.265385	2597.283120
520.628560	2597.147009
520.991678	2597.126844
521.354739	2597.278079
521.717743	2599.647421
522.080690	2598.722369
522.443580	2600.882504
522.806413	2602.669593
523.169189	2602.011722
523.531908	2603.642536
523.894569	2603.942484
524.257174	2604.126486
524.619722	2606.677310
524.982213	2605.132197
525.344647	2608.227465
525.707025	2612.542693
526.069345	2609.860799
526.431608	2609.850717
526.793815	2610.743001
527.155964	2609.936416
527.518057	2608.224944
527.880093	2613.407251
528.242072	2616.179885
528.603995	2611.935234
528.965860	2613.782817
529.327669	2614.498660
529.689421	2616.983949
530.051117	2616.391614
530.412755	2616.308435
530.774337	2619.254989
531.135862	2619.179372
531.497331	2617.813219
531.858743	2619.975874
532.220098	2621.568879
532.581396	2623.920577
532.942638	2622.529218
533.303824	2624.543159
533.664953	2624.482666
534.026025	2623.451750
534.387040	2624.984260
534.747999	2627.988788
535.108902	2630.862246
535.469748	2626.852008
535.830537	2628.913840
536.191270	2630.653038
536.551947	2627.721607
536.912567	2626.741102
537.273131	2630.552215
537.633638	2626.806637
537.994089	2635.447175
538.354483	2632.828296
538.714821	2638.910448
539.075103	2636.226033
539.435328	2633.788636
539.795497	2636.946918
540.155609	2636.836013
540.515665	2637.337608
540.875665	2637.272073
541.235609	2638.550005
541.595496	2637.287196
541.955328	2641.030253
542.315102	2643.981849
542.674821	2641.103350
543.034483	2643.702065
543.394090	2641.425984
543.753640	2644.349853
544.113134	2649.764052
544.472571	2645.554689
544.831953	2649.136428
545.191278	2647.498053
545.550548	2648.604587
545.909761	2650.336223
546.268918	2652.244300
546.628019	2652.922335
546.987064	2653.610452
547.346053	2650.716830
547.704986	2654.215391
548.063863	2654.580875
548.422684	2656.395690
548.781449	2654.235556
549.140158	2657.131698
549.498811	2658.618839
549.857408	2656.791421
550.215949	2658.651606
550.574434	2659.375012
550.932864	2664.476660
551.291237	2660.332831
551.649555	2663.523882
552.007817	2662.981957
552.366022	2664.940446
552.724173	2664.464057
553.082267	2664.806855
553.440305	2669.880777
553.798288	2667.849192
554.156215	2672.061076
554.514086	2672.323216
554.871902	2663.349962
555.229661	2667.657628
555.587365	2668.718791
555.945014	2671.693071
556.302606	2674.314471
556.660143	2678.652384
557.017625	2680.996521
557.375050	2677.840758
557.732421	2680.104237
558.089735	2683.605318
558.446994	2682.740760
558.804197	2688.838036
559.161345	2686.675381
559.518437	2686.617407
559.875474	2688.354085
560.232455	2689.727799
560.589381	2691.761905
560.946251	2691.376257
561.303065	2695.893130
561.659825	2701.108204
562.016528	2700.536033
562.373177	2696.556042
562.729770	2700.357072
563.086307	2704.097608
563.442789	2707.714636
563.799216	2707.029039
564.155587	2711.235882
564.511904	2714.558002
564.868164	2711.402240
565.224370	2715.510781
565.580520	2713.718650
565.936615	2721.691235
566.292654	2717.726368
566.648638	2726.712224
567.004567	2723.140567
567.360441	2728.448902
567.716260	2730.273800
568.072023	2736.955849
568.427732	2736.547516
568.783385	2738.069944
569.138982	2742.105388
569.494525	2746.052611
569.850013	2751.426481
570.205445	2751.928076
570.560823	2752.016296
570.916145	2756.505444
571.271412	2762.217071
571.626625	2765.972731
571.981782	2770.048503
572.336884	2767.666558
572.691931	2774.043618
573.046923	2772.196035
573.401860	2778.273146
573.756743	2792.133798
574.111570	2793.578089
574.466342	2795.438275
574.821059	2800.237453
575.175722	2800.113945
575.530330	2808.862867
575.884882	2815.930565
576.239380	2820.407110
576.593823	2825.982626
576.948211	2828.931701
577.302544	2831.306084
577.656823	2832.954542
578.011047	2843.198166
578.365216	2850.102027
578.719330	2857.978829
579.073389	2862.241125
579.427394	2875.854761
579.781344	2873.777806
580.135239	2881.205946
580.489080	2888.747512
580.842866	2894.106258
581.196597	2915.984866
581.550273	2913.940678
581.903895	2927.309818
582.257463	2940.177363
582.610975	2943.144083
582.964434	2957.592029
583.317837	2969.647949
583.671186	2981.378714
584.024481	2995.894716
584.377721	2997.046620
584.730906	3008.328722
585.084037	3024.702390
585.437113	3028.841177
585.790135	3045.910524
586.143103	3052.350598
586.496016	3058.377298
586.848874	3080.550813
587.201679	3089.619849
587.554428	3095.969182
587.907124	3121.336268
588.259765	3129.127371
588.612352	3156.878923
588.964884	3156.775580
589.317362	3172.940039
589.669786	3190.921835
590.022155	3206.461192
590.374470	3233.315418
590.726731	3243.145668
591.078937	3247.541555
591.431090	3270.153650
591.783188	3274.904938
592.135232	3287.941362
592.487222	3317.830363
592.839157	3328.741940
593.191038	3349.937472
593.542866	3353.425950
593.894639	3372.095863
594.246358	3401.826068
594.598022	3412.117584
594.949633	3422.378852
595.301190	3433.802107
595.652692	3463.265131
596.004141	3489.159017
596.355535	3482.577791
596.706876	3503.385153
597.058162	3524.628576
597.409395	3547.782595
597.760573	3573.396698
598.111698	3586.239038
598.462768	3607.326184
598.813785	3622.038792
599.164748	3637.114362
599.515657	3661.218639
599.866511	3673.942512
600.217312	3717.263667
600.568060	3710.069941
600.918753	3763.755708
601.269392	3782.231537
601.619978	3784.948719
601.970510	3839.715815
602.320988	3857.241386
602.671412	3901.422058
603.021783	3913.951846
603.372100	3924.936520
603.722363	3961.116882
604.072572	3991.159638
604.422728	4022.465203
604.772830	4049.710119
605.122878	4053.327147
605.472872	4094.495730
605.822813	4129.534270
606.172701	4153.509998
606.522534	4203.435065
606.872314	4233.283737
607.222041	4245.652208
607.571714	4297.765135
607.921333	4327.538190
608.270899	4367.270044
608.620411	4432.409313
608.969870	4422.395061
609.319276	4464.791165
609.668627	4517.836707
610.017926	4566.284716
610.367171	4613.485039
610.716362	4674.641797
611.065500	4677.875697
611.414585	4734.013986
611.763616	4768.923977
612.112594	4810.407632
612.461518	4833.967464
612.810389	4903.686622
613.159207	4907.212909
613.507971	4944.905616
613.856682	5045.625350
614.205340	5073.785235
614.553945	5160.445190
614.902496	5140.388960
615.250994	5239.074587
615.599439	5270.662457
615.947830	5310.931194
616.296169	5345.231205
616.644454	5406.282099
616.992686	5426.247588
617.340864	5528.598135
617.688990	5542.960382
618.037063	5634.664012
618.385082	5658.876674
618.733048	5751.432258
619.080961	5774.601402
619.428821	5842.094890
619.776628	5875.893306
620.124382	5893.665894
620.472083	5963.979908
620.819731	6018.673906
621.167326	5988.429504
621.514868	6029.411564
621.862357	6036.254930
622.209793	6069.836577
622.557176	6078.446867
622.904506	6064.508077
623.251783	6088.652683
623.599007	6102.140290
623.946179	6127.729187
624.293297	6151.883876
624.640363	6148.589482
624.987376	6176.688873
625.334336	6169.104457
625.681243	6177.661816
626.028097	6207.006373
626.374899	6276.634790
626.721647	6246.670171
627.068343	6253.997488
627.414987	6281.580162
627.761577	6346.164904
628.108115	6405.844604
628.454600	6350.674216
628.801032	6414.202837
629.147412	6437.762669
629.493739	6496.799622
629.840014	6501.412278
630.186236	6563.345373
630.532405	6543.596653
630.878521	6647.479711
631.224585	6661.360528
631.570597	6671.755387
631.916556	6695.529468
632.262462	6735.899028
632.608316	6775.895543
632.954117	6791.271062
633.299866	6839.862744
633.645562	6868.325099
633.991206	6817.190155
634.336797	6792.314581
634.682336	6844.840884
635.027823	6833.284038
635.373257	6853.294899
635.718639	6832.132135
636.063968	6864.544233
636.409245	6824.504869
636.754470	6869.260233
637.099642	6856.576690
637.444762	6809.552807
637.789829	6876.872375
638.134845	6858.802359
638.479808	6901.576550
638.824719	6917.153715
639.169577	6902.557054
639.514383	6951.320135
639.859137	6922.401556
640.203839	6996.849316
640.548489	6958.602082
640.893086	7014.967223
641.237632	6967.635830
641.582125	7094.811538
641.926566	7060.060344
642.270955	7096.056703
642.615292	7115.959179
642.959576	7155.905282
643.303809	7223.323153
643.647990	7211.909980
643.992118	7295.063813
644.336195	7212.409055
