Dividing Wavelength (nm)	Counts (n)	Blue Motor Position (mm): 3.400000	Red Motor Position (mm): 0.000000	
326.493990	2160.247849
326.888308	2160.247849
327.282561	2160.247849
327.676750	2120.780656
328.070874	2116.934255
328.464933	2115.701693
328.858929	2122.184617
329.252859	2127.198044
329.646726	2136.256998
330.040528	2146.495581
330.434265	2157.681902
330.827938	2179.126970
331.221547	2193.673220
331.615091	2209.338605
332.008571	2232.850547
332.401986	2249.531725
332.795338	2270.709612
333.188625	2284.882816
333.581847	2306.305199
333.975006	2324.541573
334.368100	2341.260560
334.761129	2358.458457
335.154095	2375.837834
335.546996	2392.912223
335.939833	2409.835376
336.332606	2422.506316
336.725315	2438.275045
337.117960	2450.386417
337.510540	2460.882100
337.903056	2470.634212
338.295508	2480.855151
338.687896	2490.720689
339.080220	2495.295537
339.472480	2500.765188
339.864676	2508.228617
340.256807	2516.417971
340.648875	2519.125071
341.040879	2522.636234
341.432818	2525.098838
341.824694	2528.362985
342.216506	2527.160670
342.608253	2527.637059
342.999937	2527.198479
343.391557	2528.801566
343.783113	2534.457740
344.174605	2528.965403
344.566033	2526.659075
344.957397	2526.407018
345.348697	2522.459794
345.739934	2524.186389
346.131106	2519.183044
346.522215	2521.070956
346.913260	2516.201202
347.304241	2514.547703
347.695159	2513.458814
348.086012	2513.738598
348.476802	2511.089472
348.867528	2504.858605
349.258191	2503.769716
349.648789	2499.933398
350.039324	2497.987513
350.429796	2505.365241
350.820203	2497.914416
351.210548	2497.349807
351.600828	2499.419200
351.991045	2500.374499
352.381198	2498.416011
352.771288	2497.369971
353.161314	2496.586072
353.551276	2494.055413
353.941175	2492.832933
354.331010	2496.729745
354.720782	2493.788232
355.110490	2493.810917
355.500135	2493.576503
355.889717	2494.622543
356.279235	2494.367964
356.668689	2493.639518
357.058080	2493.566421
357.447408	2495.461895
357.836672	2495.555156
358.225873	2493.374857
358.615010	2496.112203
359.004084	2497.127996
359.393095	2495.343428
359.782043	2494.985506
360.170927	2497.727893
360.559748	2499.459530
360.948505	2500.112359
361.337199	2501.765858
361.725830	2500.137565
362.114398	2499.555312
362.502903	2498.007677
362.891344	2500.021618
363.279722	2500.351814
363.668037	2505.846672
364.056289	2504.745179
364.444478	2501.196207
364.832603	2504.351969
365.220665	2503.636126
365.608665	2503.721825
365.996601	2505.201404
366.384474	2504.374655
366.772284	2506.249964
367.160031	2503.210148
367.547715	2505.100581
367.935336	2507.648884
368.322893	2504.881291
368.710388	2501.309633
369.097820	2504.694768
369.485189	2502.993378
369.872495	2505.665190
370.259738	2505.385406
370.646918	2508.500839
371.034035	2508.460510
371.421090	2509.884636
371.808081	2507.842968
372.195010	2510.272805
372.581875	2510.751714
372.968678	2509.519152
373.355418	2509.287259
373.742096	2511.059225
374.128710	2510.817249
374.515262	2512.684997
374.901751	2508.924296
375.288177	2512.382528
375.674540	2509.567043
376.060841	2514.164575
376.447079	2510.925634
376.833254	2515.134998
377.219367	2510.338340
377.605417	2513.549555
377.991404	2513.733557
378.377329	2515.066942
378.763191	2514.522497
379.148991	2516.254134
379.534727	2510.164420
379.920402	2513.400841
380.306013	2515.079545
380.691563	2515.563496
381.077049	2515.954185
381.462474	2515.024092
381.847835	2516.128105
382.233134	2512.803464
382.618371	2516.208763
383.003545	2514.890502
383.388657	2512.523680
383.773706	2515.044257
384.158693	2513.068124
384.543618	2516.884278
384.928480	2519.256141
385.313280	2515.316479
385.698017	2516.216325
386.082692	2519.304032
386.467305	2513.554596
386.851856	2520.062725
387.236344	2519.034330
387.620770	2512.899246
388.005133	2517.252282
388.389435	2515.089627
388.773674	2512.904287
389.157851	2519.246058
389.541965	2517.811850
389.926018	2518.489885
390.310008	2521.302849
390.693936	2518.973836
391.077802	2520.329907
391.461606	2521.154135
391.845348	2520.166069
392.229027	2519.971985
392.612645	2519.893847
392.996200	2520.949968
393.379694	2522.283354
393.763125	2520.345030
394.146494	2522.056502
394.529801	2520.750843
394.913047	2521.537263
395.296230	2521.469207
395.679351	2520.639938
396.062410	2522.396780
396.445408	2523.054650
396.828343	2520.498785
397.211217	2520.229083
397.594028	2524.798889
397.976778	2522.003570
398.359466	2523.692356
398.742092	2522.185051
399.124656	2524.098169
399.507158	2524.957686
399.889598	2524.687984
400.271977	2522.379136
400.654294	2525.063550
401.036549	2523.284023
401.418742	2524.314939
401.800874	2523.004239
402.182944	2528.065557
402.564952	2524.884589
402.946898	2525.905423
403.328783	2526.568334
403.710606	2526.709487
404.092367	2528.345341
404.474067	2523.296626
404.855705	2524.672861
405.237282	2525.688653
405.618797	2525.607995
406.000250	2526.827954
406.381642	2527.294261
406.762972	2525.476925
407.144240	2522.595905
407.525447	2525.570186
407.906593	2524.927439
408.287677	2525.897861
408.668700	2526.197810
409.049661	2526.056657
409.430560	2528.342821
409.811399	2526.253262
410.192176	2526.422141
410.572891	2528.675537
410.953545	2527.473222
411.334138	2528.403314
411.714669	2525.335772
412.095139	2529.656041
412.475547	2527.942049
412.855894	2529.771988
413.236180	2527.937008
413.616405	2531.349869
413.996568	2530.747451
414.376670	2531.049920
414.756711	2530.253418
415.136691	2531.475898
415.516609	2530.510517
415.896466	2531.612009
416.276262	2532.680733
416.655997	2529.973634
417.035670	2530.621422
417.415283	2530.099663
417.794834	2532.872297
418.174324	2531.052441
418.553753	2531.554036
418.933121	2531.148223
419.312428	2529.630835
419.691674	2531.193593
420.070859	2530.137471
420.449983	2530.442461
420.829045	2531.982534
421.208047	2533.124355
421.586988	2528.501617
421.965867	2533.371372
422.344686	2531.896834
422.723444	2536.917823
423.102141	2534.614016
423.480777	2530.228212
423.859352	2535.372710
424.237866	2531.332225
424.616319	2535.221475
424.994712	2536.086033
425.373044	2532.365661
425.751314	2531.657379
426.129524	2532.489170
426.507673	2532.829447
426.885762	2532.350538
427.263789	2536.275076
427.641756	2533.850281
428.019662	2535.894469
428.397508	2535.072761
428.775292	2539.299768
429.153016	2535.970086
429.530679	2535.440765
429.908282	2536.597710
430.285824	2534.140147
430.663305	2536.443955
431.040726	2535.420601
431.418086	2536.630478
431.795385	2536.532175
432.172624	2536.222144
432.549802	2537.273225
432.926920	2538.289017
433.303977	2536.711136
433.680974	2537.061496
434.057910	2537.953780
434.434786	2537.331198
434.811601	2536.219623
435.188355	2537.361445
435.565050	2533.260466
435.941683	2534.674510
436.318257	2537.283307
436.694770	2538.742721
437.071222	2535.932278
437.447614	2535.145858
437.823946	2537.026208
438.200218	2536.895138
438.576429	2538.624254
438.952580	2539.234233
439.328670	2538.152906
439.704700	2535.962525
440.080670	2538.974614
440.456580	2538.871270
440.832429	2538.127700
441.208218	2536.902700
441.583947	2541.482588
441.959616	2539.536703
442.335224	2538.737680
442.710773	2537.989068
443.086261	2536.683410
443.461689	2539.821528
443.837057	2539.277083
444.212365	2536.912782
444.587612	2536.529654
444.962800	2536.423790
445.337927	2537.038811
445.712995	2532.453882
446.088002	2538.435211
446.462949	2539.824048
446.837837	2539.451003
447.212664	2539.844213
447.587431	2538.979655
447.962139	2538.911600
448.336786	2541.152393
448.711374	2540.517207
449.085901	2539.962680
449.460369	2538.447813
449.834776	2539.380427
450.209124	2543.718340
450.583412	2542.758000
450.957640	2541.719522
451.331808	2540.549975
451.705917	2540.988555
452.079965	2542.750438
452.453954	2542.548792
452.827883	2540.837320
453.201752	2541.890922
453.575562	2541.018802
453.949311	2540.880170
454.323001	2542.470654
454.696632	2541.681714
455.070202	2542.742877
455.443713	2541.303627
455.817164	2542.100129
456.190556	2538.473019
456.563888	2540.759183
456.937160	2541.447300
457.310373	2542.992414
457.683526	2542.674821
458.056619	2540.925541
458.429653	2543.564585
458.802628	2540.620551
459.175542	2542.016950
459.548398	2545.447456
459.921194	2544.255223
460.293930	2539.549306
460.666607	2541.011240
461.039224	2541.457382
461.411782	2541.550644
461.784280	2542.629451
462.156719	2542.185829
462.529099	2544.875285
462.901419	2546.294369
463.273680	2540.945705
463.645882	2539.453524
464.018024	2539.143493
464.390106	2534.636701
464.762130	2543.458720
465.134094	2544.524924
465.505999	2544.061138
465.877845	2542.364790
466.249631	2545.775131
466.621358	2541.434697
466.993026	2544.580377
467.364634	2548.976263
467.736184	2543.557023
468.107674	2542.112732
468.479105	2544.187167
468.850477	2544.779503
469.221790	2545.596170
469.593043	2544.955943
469.964238	2542.853782
470.335373	2544.262784
470.706449	2542.750438
471.077467	2543.816642
471.448425	2544.013247
471.819324	2544.751776
472.190164	2545.089534
472.560945	2543.269677
472.931667	2543.557023
473.302330	2543.859492
473.672934	2546.501057
474.043479	2544.391334
474.413965	2544.900490
474.784393	2545.414688
475.154761	2544.449307
475.525070	2545.560882
475.895321	2544.623227
476.265513	2546.193546
476.635645	2546.175902
477.005719	2545.523073
477.375734	2545.394523
477.745691	2545.462579
478.115588	2545.374359
478.485427	2542.170706
478.855207	2546.193546
479.224928	2543.766231
479.594591	2544.817311
479.964194	2545.944009
480.333739	2544.867723
480.703226	2546.536345
481.072653	2543.383103
481.442022	2545.167672
481.811333	2545.359235
482.180584	2542.674821
482.549777	2544.247661
482.918912	2541.384286
483.287988	2547.332847
483.657005	2547.506767
484.025964	2548.136911
484.394864	2545.419729
484.763706	2545.273536
485.132489	2547.862168
485.501213	2547.700851
485.869879	2546.430481
486.238487	2548.159596
486.607036	2547.600028
486.975527	2546.246478
487.343959	2546.775800
487.712333	2546.705223
488.080648	2545.775131
488.448905	2547.322765
488.817104	2548.555327
489.185244	2547.229503
489.553326	2550.095399
489.921350	2546.969884
490.289315	2546.581715
490.657222	2549.157745
491.025070	2550.256716
491.392861	2546.559030
491.760593	2545.220604
492.128267	2545.044163
492.495883	2546.460727
492.863440	2546.100285
493.230939	2546.299411
493.598380	2545.639019
493.965763	2547.524411
494.333088	2547.652960
494.700354	2546.150697
495.067563	2548.613300
495.434713	2546.995090
495.801805	2548.164637
496.168839	2549.974412
496.535815	2548.053732
496.902733	2547.491643
497.269593	2548.386448
497.636395	2548.383928
498.003139	2548.940975
498.369825	2549.193033
498.736453	2545.702034
499.103023	2549.336706
499.469535	2549.581202
499.835989	2547.637837
500.202385	2545.066848
500.568723	2545.129863
500.935003	2546.818649
501.301226	2541.961498
501.667390	2547.204298
502.033497	2548.215049
502.399546	2550.503733
502.765537	2546.193546
503.131470	2547.723537
503.497345	2549.253527
503.863163	2548.986346
504.228923	2549.301418
504.594625	2549.039278
504.960269	2548.159596
505.325856	2549.734957
505.691385	2550.670091
506.056856	2551.093548
506.422270	2549.261088
506.787625	2549.886192
507.152924	2546.627086
507.518164	2550.803682
507.883347	2547.930224
508.248472	2551.383414
508.613540	2548.298228
508.978550	2551.219577
509.343503	2549.417364
509.708398	2548.774617
510.073236	2550.017262
510.438016	2548.038609
510.802738	2548.336037
511.167403	2548.930893
511.532010	2552.164793
511.896561	2551.635472
512.261053	2548.706562
512.625488	2552.071532
512.989866	2549.689587
513.354186	2548.706562
513.718449	2548.018444
514.082655	2548.852755
514.446803	2550.536500
514.810894	2549.334185
515.174927	2551.181768
515.538904	2549.835780
515.902822	2547.758825
516.266684	2547.287477
516.630488	2550.188661
516.994235	2548.966181
517.357925	2552.099258
517.721558	2550.261757
518.085133	2548.966181
518.448651	2548.038609
518.812112	2546.412837
519.175516	2549.253527
519.538863	2543.173895
519.902152	2551.396017
520.265385	2548.094061
520.628560	2553.397355
520.991678	2549.079607
521.354739	2549.286294
521.717743	2549.548434
522.080690	2549.235883
522.443580	2550.823846
522.806413	2550.682694
523.169189	2546.866540
523.531908	2548.701520
523.894569	2549.092210
524.257174	2549.072045
524.619722	2551.711089
524.982213	2552.137067
525.344647	2549.097251
525.707025	2550.337375
526.069345	2550.596994
526.431608	2549.238403
526.793815	2546.954761
527.155964	2550.062632
527.518057	2550.793599
527.880093	2550.685214
528.242072	2550.213867
528.603995	2553.112530
528.965860	2550.110523
529.327669	2550.584391
529.689421	2552.227807
530.051117	2550.682694
530.412755	2552.371480
530.774337	2553.430123
531.135862	2549.235883
531.497331	2551.373332
531.858743	2550.544062
532.220098	2550.947354
532.581396	2549.427447
532.942638	2550.526418
533.303824	2554.251831
533.664953	2549.450132
534.026025	2551.259906
534.387040	2552.053888
534.747999	2551.373332
535.108902	2548.192364
535.469748	2549.621531
535.830537	2551.857283
536.191270	2551.388455
536.551947	2548.000800
536.912567	2548.232693
537.273131	2549.369473
537.633638	2544.595501
537.994089	2553.472973
538.354483	2551.063301
538.714821	2551.209494
539.075103	2551.312838
539.435328	2552.638662
539.795497	2549.354350
540.155609	2550.634803
540.515665	2552.381563
540.875665	2551.204453
541.235609	2550.196222
541.595496	2552.560524
541.955328	2551.103630
542.315102	2553.707386
542.674821	2551.643034
543.034483	2550.644885
543.394090	2548.951057
543.753640	2550.859134
544.113134	2553.057077
544.472571	2552.227808
544.831953	2550.072714
545.191278	2551.330482
545.550548	2552.101779
545.909761	2551.360729
546.268918	2552.013558
546.628019	2550.178578
546.987064	2552.363919
547.346053	2553.563713
547.704986	2551.343085
548.063863	2551.184289
548.422684	2552.376522
548.781449	2550.027344
549.140158	2552.936090
549.498811	2551.285112
549.857408	2551.781665
550.215949	2552.011038
550.574434	2552.920966
550.932864	2554.856769
551.291237	2551.441388
551.649555	2552.323589
552.007817	2552.106820
552.366022	2549.603887
552.724173	2552.447098
553.082267	2551.970709
553.440305	2554.720658
553.798288	2555.272664
554.156215	2552.802499
554.514086	2549.641696
554.871902	2547.688248
555.229661	2550.871737
555.587365	2547.138763
555.945014	2553.137736
556.302606	2553.876265
556.660143	2554.009855
557.017625	2555.635627
557.375050	2552.676470
557.732421	2549.588763
558.089735	2554.889537
558.446994	2553.069680
558.804197	2552.492468
559.161345	2549.508105
559.518437	2553.614125
559.875474	2550.544062
560.232455	2550.715461
560.589381	2551.764021
560.946251	2552.820143
561.303065	2552.900802
561.659825	2549.984494
562.016528	2551.771583
562.373177	2552.852911
562.729770	2549.893753
563.086307	2551.267468
563.442789	2551.552293
563.799216	2553.989691
564.155587	2550.959957
564.511904	2548.278063
564.868164	2553.296532
565.224370	2552.321069
565.580520	2550.168496
565.936615	2553.052036
566.292654	2549.568599
566.648638	2552.028682
567.004567	2550.846531
567.360441	2552.784855
567.716260	2552.273178
568.072023	2555.267623
568.427732	2551.821995
568.783385	2551.678322
569.138982	2552.999104
569.494525	2554.952551
569.850013	2554.040102
570.205445	2553.230997
570.560823	2554.277037
570.916145	2551.973229
571.271412	2551.726213
571.626625	2553.941800
571.981782	2548.625903
572.336884	2547.973074
572.691931	2550.009700
573.046923	2551.312838
573.401860	2547.204298
573.756743	2552.676470
574.111570	2551.126315
574.466342	2552.936090
574.821059	2549.520708
575.175722	2554.080432
575.530330	2552.177396
575.884882	2554.055226
576.239380	2552.270657
576.593823	2552.416851
576.948211	2551.151521
577.302544	2549.750080
577.656823	2551.622869
578.011047	2554.196378
578.365216	2552.905843
578.719330	2553.173024
579.073389	2551.839639
579.427394	2552.903322
579.781344	2551.726213
580.135239	2553.014227
580.489080	2550.919628
580.842866	2553.243600
581.196597	2554.859290
581.550273	2555.315514
581.903895	2552.134546
582.257463	2552.038764
582.610975	2556.681667
582.964434	2552.885678
583.317837	2551.869886
583.671186	2550.775955
584.024481	2553.697304
584.377721	2553.730071
584.730906	2552.386604
585.084037	2553.399876
585.437113	2554.516491
585.790135	2554.710576
586.143103	2553.334341
586.496016	2552.862993
586.848874	2551.809392
587.201679	2554.193857
587.554428	2551.448949
587.907124	2553.631769
588.259765	2551.965667
588.612352	2552.492468
588.964884	2552.789896
589.317362	2552.603373
589.669786	2554.014897
590.022155	2549.092210
590.374470	2549.689587
590.726731	2552.346275
591.078937	2545.855789
591.431090	2551.597663
591.783188	2554.332489
592.135232	2555.083621
592.487222	2555.091183
592.839157	2552.739485
593.191038	2551.922818
593.542866	2552.810061
593.894639	2550.274360
594.246358	2554.221584
594.598022	2551.990873
594.949633	2552.636141
595.301190	2552.111861
595.652692	2553.578837
596.004141	2554.327448
596.355535	2551.716130
596.706876	2551.443908
597.058162	2552.958775
597.409395	2554.892057
597.760573	2553.543549
598.111698	2554.816440
598.462768	2553.127653
598.813785	2551.574978
599.164748	2550.019782
599.515657	2552.089176
599.866511	2553.140256
600.217312	2551.045657
600.568060	2553.430123
600.918753	2555.975905
601.269392	2553.543549
601.619978	2551.912735
601.970510	2553.193188
602.320988	2554.773590
602.671412	2552.000956
603.021783	2551.401058
603.372100	2552.905843
603.722363	2550.992725
604.072572	2553.805689
604.422728	2553.236038
604.772830	2549.712272
605.122878	2552.431974
605.472872	2550.256716
605.822813	2551.592622
606.172701	2554.186296
606.522534	2550.922149
606.872314	2555.746533
607.222041	2554.846687
607.571714	2551.587581
607.921333	2549.253527
608.270899	2553.339382
608.620411	2548.593136
608.969870	2556.018755
609.319276	2556.691749
609.668627	2561.627039
610.017926	2563.961093
610.367171	2567.799932
610.716362	2566.040569
611.065500	2565.511248
611.414585	2562.443706
611.763616	2558.869528
612.112594	2559.693756
612.461518	2556.646379
612.810389	2553.654454
613.159207	2557.069836
613.507971	2557.367264
613.856682	2555.839794
614.205340	2553.450287
614.553945	2555.970864
614.902496	2556.449774
615.250994	2555.708724
615.599439	2553.490617
615.947830	2553.223435
616.296169	2552.386604
616.644454	2554.660164
616.992686	2552.926007
617.340864	2552.731923
617.688990	2551.769062
618.037063	2553.200750
618.385082	2554.486244
618.733048	2554.319886
619.080961	2554.824002
619.428821	2553.538507
619.776628	2553.803168
620.124382	2554.806358
620.472083	2555.302911
620.819731	2552.379042
621.167326	2552.754608
621.514868	2556.568241
621.862357	2557.140412
622.209793	2553.077242
622.557176	2554.796275
622.904506	2552.623538
623.251783	2551.312838
623.599007	2552.240410
623.946179	2553.364588
624.293297	2554.599670
624.640363	2552.663867
624.987376	2549.016592
625.334336	2551.385935
625.681243	2550.055070
626.028097	2549.407282
626.374899	2552.295863
626.721647	2552.568085
627.068343	2554.508930
627.414987	2553.805689
627.761577	2552.333672
628.108115	2554.181255
628.454600	2551.940462
628.801032	2552.623538
629.147412	2555.219732
629.493739	2552.893240
629.840014	2554.423230
630.186236	2555.983467
630.532405	2553.208312
630.878521	2552.376522
631.224585	2551.645554
631.570597	2553.873744
631.916556	2553.273847
632.262462	2550.929710
632.608316	2553.125133
632.954117	2552.394166
633.299866	2553.503219
633.645562	2552.736964
633.991206	2551.360729
634.336797	2549.964329
634.682336	2551.358208
635.027823	2550.634803
635.373257	2549.823177
635.718639	2553.344423
636.063968	2554.332489
636.409245	2551.143959
636.754470	2553.707386
637.099642	2551.701007
637.444762	2555.179403
637.789829	2549.813095
638.134845	2553.805689
638.479808	2551.514484
638.824719	2550.715461
639.169577	2552.341233
639.514383	2552.547921
639.859137	2554.483724
640.203839	2551.486758
640.548489	2551.491799
640.893086	2551.990873
641.237632	2552.376522
641.582125	2553.157900
641.926566	2552.517674
642.270955	2551.900132
642.615292	2547.652960
642.959576	2548.257899
643.303809	2545.137425
643.647990	2551.990873
643.992118	2552.638662
644.336195	2553.092365
