Dividing Wavelength (nm)	Counts (n)	Blue Motor Position (mm): 12.000000	Red Motor Position (mm): 0.000000	
326.493990	2162.753303
326.888308	2162.753303
327.282561	2162.753303
327.676750	2121.665378
328.070874	2118.252517
328.464933	2120.518516
328.858929	2126.545215
329.252859	2128.780967
329.646726	2136.456123
330.040528	2150.891468
330.434265	2159.022849
330.827938	2179.840293
331.221547	2196.408046
331.615091	2213.943699
332.008571	2233.596638
332.401986	2253.809144
332.795338	2271.450662
333.188625	2290.475976
333.581847	2305.370065
333.975006	2323.064515
334.368100	2342.488081
334.761129	2360.948787
335.154095	2379.744729
335.546996	2399.876577
335.939833	2421.054464
336.332606	2439.149686
336.725315	2452.602005
337.117960	2466.104735
337.510540	2474.203349
337.903056	2486.924701
338.295508	2499.477174
338.687896	2505.098060
339.080220	2509.471261
339.472480	2515.293794
339.864676	2523.026924
340.256807	2529.703932
340.648875	2530.419776
341.040879	2537.643749
341.432818	2539.917310
341.824694	2541.028884
342.216506	2540.681045
342.608253	2546.697662
342.999937	2544.338402
343.391557	2546.901828
343.783113	2543.194060
344.174605	2542.430325
344.566033	2541.351518
344.957397	2541.159954
345.348697	2540.025695
345.739934	2536.055786
346.131106	2536.363296
346.522215	2531.453213
346.913260	2532.791639
347.304241	2528.297450
347.695159	2529.290557
348.086012	2525.489528
348.476802	2523.437778
348.867528	2519.324196
349.258191	2515.704648
349.648789	2517.196829
350.039324	2512.369925
350.429796	2513.194153
350.820203	2513.562158
351.210548	2515.389576
351.600828	2513.410923
351.991045	2509.128463
352.381198	2509.481343
352.771288	2511.399503
353.161314	2510.454286
353.551276	2510.361025
353.941175	2509.325068
354.331010	2508.238699
354.720782	2507.921106
355.110490	2507.159892
355.500135	2507.139728
355.889717	2508.442866
356.279235	2507.600993
356.668689	2505.062772
357.058080	2507.822804
357.447408	2507.081754
357.836672	2508.689882
358.225873	2511.628875
358.615010	2506.292814
359.004084	2509.158710
359.393095	2512.087620
359.782043	2509.677948
360.170927	2511.008813
360.559748	2511.807836
360.948505	2511.911180
361.337199	2515.586181
361.725830	2512.556447
362.114398	2513.597446
362.502903	2514.222549
362.891344	2516.838908
363.279722	2513.589884
363.668037	2517.937879
364.056289	2516.846469
364.444478	2518.719258
364.832603	2517.635410
365.220665	2516.912004
365.608665	2519.462828
365.996601	2516.508712
366.384474	2517.842097
366.772284	2518.489885
367.160031	2520.377798
367.547715	2518.918383
367.935336	2520.874351
368.322893	2516.596932
368.710388	2517.915194
369.097820	2517.791686
369.485189	2515.127436
369.872495	2518.696573
370.259738	2520.816378
370.646918	2519.949299
371.034035	2524.032634
371.421090	2522.490041
371.808081	2525.055988
372.195010	2522.694208
372.581875	2522.530370
372.968678	2523.951976
373.355418	2524.141019
373.742096	2523.415093
374.128710	2525.020700
374.515262	2526.427182
374.901751	2523.498272
375.288177	2525.008097
375.674540	2526.648993
376.060841	2524.012469
376.447079	2529.192255
376.833254	2525.925587
377.219367	2523.460463
377.605417	2526.633869
377.991404	2524.430885
378.377329	2527.034641
378.763191	2527.276617
379.148991	2528.398273
379.534727	2527.778211
379.920402	2531.022194
380.306013	2529.192255
380.691563	2530.974303
381.077049	2525.295443
381.462474	2530.024045
381.847835	2528.960362
382.233134	2530.203006
382.618371	2527.463139
383.003545	2534.513193
383.388657	2528.554549
383.773706	2527.657224
384.158693	2531.692667
384.543618	2533.578059
384.928480	2531.642256
385.313280	2529.567821
385.698017	2529.966072
386.082692	2529.381298
386.467305	2530.374406
386.851856	2531.158305
387.236344	2532.073274
387.620770	2528.415917
388.005133	2527.813499
388.389435	2533.114273
388.773674	2526.265865
389.157851	2533.391536
389.541965	2535.836496
389.926018	2534.404808
390.310008	2535.803728
390.693936	2530.455064
391.077802	2536.385982
391.461606	2535.481094
391.845348	2533.825075
392.229027	2534.951773
392.612645	2535.481094
392.996200	2536.237267
393.379694	2535.854140
393.763125	2536.222144
394.146494	2533.686444
394.529801	2534.548481
394.913047	2538.382278
395.296230	2535.859181
395.679351	2533.285672
396.062410	2536.660724
396.445408	2538.727598
396.828343	2538.551157
397.211217	2536.096115
397.594028	2537.124511
397.976778	2536.653163
398.359466	2537.784902
398.742092	2535.884387
399.124656	2540.048380
399.507158	2539.193904
399.889598	2538.004192
400.271977	2538.107536
400.654294	2539.156096
401.036549	2537.782381
401.418742	2538.445293
401.800874	2537.263142
402.182944	2539.536703
402.564952	2539.652649
402.946898	2543.635161
403.328783	2536.615354
403.710606	2537.273225
404.092367	2539.100643
404.474067	2540.597866
404.855705	2539.990407
405.237282	2540.769265
405.618797	2542.203473
406.000250	2542.778165
406.381642	2540.406302
406.762972	2538.301620
407.144240	2537.041332
407.525447	2539.730787
407.906593	2537.558050
408.287677	2542.019471
408.668700	2542.112732
409.049661	2543.219266
409.430560	2540.696168
409.811399	2544.678680
410.192176	2544.091385
410.572891	2540.434028
410.953545	2542.926879
411.334138	2543.035263
411.714669	2543.400747
412.095139	2544.582898
412.475547	2543.103319
412.855894	2542.410160
413.236180	2545.399565
413.616405	2544.582898
413.996568	2543.254554
414.376670	2542.213555
414.756711	2545.228165
415.136691	2546.821170
415.516609	2547.143804
415.896466	2542.717671
416.276262	2543.829245
416.655997	2543.879657
417.035670	2544.555171
417.415283	2545.802857
417.794834	2545.608772
418.174324	2545.888557
418.553753	2541.674152
418.933121	2549.155224
419.312428	2547.307641
419.691674	2548.285625
420.070859	2544.323278
420.449983	2546.455686
420.829045	2547.710934
421.208047	2549.046839
421.586988	2545.898639
421.965867	2549.772766
422.344686	2546.803526
422.723444	2546.261602
423.102141	2548.474668
423.480777	2550.221428
423.859352	2546.317055
424.237866	2547.012734
424.616319	2548.250337
424.994712	2546.571633
425.373044	2549.087169
425.751314	2544.787064
426.129524	2545.888557
426.507673	2543.451159
426.885762	2544.663556
427.263789	2549.772766
427.641756	2548.078938
428.019662	2549.016592
428.397508	2548.825029
428.775292	2551.443908
429.153016	2548.066335
429.530679	2545.994421
429.908282	2547.847045
430.285824	2548.913249
430.663305	2548.575492
431.040726	2545.762528
431.418086	2549.913918
431.795385	2550.869217
432.172624	2548.661191
432.549802	2550.763352
432.926920	2552.189999
433.303977	2551.275029
433.680974	2551.421223
434.057910	2551.973229
434.434786	2549.752601
434.811601	2553.087324
435.188355	2548.522559
435.565050	2550.362581
435.941683	2551.781665
436.318257	2550.160934
436.694770	2550.763352
437.071222	2550.241593
437.447614	2551.602704
437.823946	2553.367108
438.200218	2551.506923
438.576429	2552.346275
438.952580	2551.272509
439.328670	2549.984494
439.704700	2552.515153
440.080670	2552.326110
440.456580	2551.544731
440.832429	2553.684701
441.208218	2551.237221
441.583947	2553.977088
441.959616	2552.298384
442.335224	2553.324258
442.710773	2551.469114
443.086261	2553.452808
443.461689	2551.179248
443.837057	2553.384752
444.212365	2551.383414
444.587612	2552.310987
444.962800	2547.055584
445.337927	2551.809392
445.712995	2548.842673
446.088002	2555.575134
446.462949	2555.502037
446.837837	2553.241079
447.212664	2553.997252
447.587431	2552.280740
447.962139	2551.663198
448.336786	2555.738971
448.711374	2555.630586
449.085901	2552.648744
449.460369	2555.683518
449.834776	2553.876265
450.209124	2555.214691
450.583412	2555.441543
450.957640	2554.188816
451.331808	2556.676626
451.705917	2552.696635
452.079965	2555.537325
452.453954	2553.341902
452.827883	2554.203940
453.201752	2557.687377
453.575562	2558.156204
453.949311	2556.661502
454.323001	2557.014383
454.696632	2553.215874
455.070202	2557.586554
455.443713	2554.912222
455.817164	2555.406255
456.190556	2555.688560
456.563888	2557.440361
456.937160	2554.405586
457.310373	2556.941286
457.683526	2555.113868
458.056619	2558.143602
458.429653	2557.684857
458.802628	2555.179403
459.175542	2556.994218
459.548398	2555.814588
459.921194	2562.047975
460.293930	2558.675443
460.666607	2555.655792
461.039224	2557.891544
461.411782	2560.611246
461.784280	2557.069836
462.156719	2557.137891
462.529099	2558.322563
462.901419	2557.720145
463.273680	2556.094372
463.645882	2554.564382
464.018024	2555.736451
464.390106	2554.269475
464.762130	2557.883982
465.134094	2557.873900
465.505999	2561.765671
465.877845	2564.760116
466.249631	2559.759291
466.621358	2560.646534
466.993026	2558.930022
467.364634	2563.204920
467.736184	2560.119734
468.107674	2558.257027
468.479105	2559.698797
468.850477	2560.787687
469.221790	2562.128634
469.593043	2559.691236
469.964238	2562.466391
470.335373	2559.613098
470.706449	2561.455640
471.077467	2563.240208
471.448425	2562.045455
471.819324	2563.635939
472.190164	2563.852708
472.560945	2562.529405
472.931667	2562.471432
473.302330	2562.514282
473.672934	2565.528892
474.043479	2561.556463
474.413965	2564.344221
474.784393	2561.223747
475.154761	2564.069478
475.525070	2565.022256
475.895321	2565.072668
476.265513	2563.041083
476.635645	2563.081412
477.005719	2562.809189
477.375734	2560.094528
477.745691	2562.627708
478.115588	2564.681978
478.485427	2567.197514
478.855207	2564.092163
479.224928	2565.249108
479.594591	2566.211968
479.964194	2565.964952
480.333739	2567.593244
480.703226	2566.562328
481.072653	2569.208934
481.442022	2565.163408
481.811333	2564.313974
482.180584	2562.612584
482.549777	2564.702143
482.918912	2564.394632
483.287988	2565.188614
483.657005	2571.127093
484.025964	2567.966290
484.394864	2568.765313
484.763706	2569.173646
485.132489	2567.061403
485.501213	2567.094170
485.869879	2568.845971
486.238487	2568.823286
486.607036	2564.228274
486.975527	2568.112483
487.343959	2568.989644
487.712333	2567.638615
488.080648	2568.883780
488.448905	2569.314798
488.817104	2569.655076
489.185244	2570.149109
489.553326	2568.624160
489.921350	2569.813873
490.289315	2569.634912
490.657222	2571.747155
491.025070	2573.907290
491.392861	2570.459140
491.760593	2570.557443
492.128267	2572.079871
492.495883	2567.875549
492.863440	2572.866291
493.230939	2571.459809
493.598380	2572.775551
493.965763	2568.840930
494.333088	2568.364541
494.700354	2568.107442
495.067563	2571.051476
495.434713	2571.104408
495.801805	2570.743966
496.168839	2571.265725
496.535815	2571.157340
496.902733	2569.027453
497.269593	2571.169943
497.636395	2572.445355
498.003139	2571.369069
498.369825	2569.531568
498.736453	2569.161043
499.103023	2572.984758
499.469535	2571.938719
499.835989	2572.067268
500.202385	2568.737586
500.568723	2569.206414
500.935003	2566.587534
501.301226	2564.707184
501.667390	2571.512742
502.033497	2573.274625
502.399546	2571.482495
502.765537	2569.929819
503.131470	2572.200859
503.497345	2571.883266
503.863163	2574.113977
504.228923	2570.113821
504.594625	2571.802608
504.960269	2570.799418
505.325856	2570.983420
505.691385	2570.920406
506.056856	2572.442834
506.422270	2574.466858
506.787625	2574.539954
507.152924	2574.671024
507.518164	2571.812690
507.883347	2573.597259
508.248472	2573.773699
508.613540	2574.784450
508.978550	2575.656570
509.343503	2575.512897
509.708398	2575.432239
510.073236	2574.156827
510.438016	2575.197825
510.802738	2574.955850
511.167403	2578.323340
511.532010	2578.214956
511.896561	2577.652867
512.261053	2577.269739
512.625488	2577.703278
512.989866	2578.794688
513.354186	2579.026581
513.718449	2582.003383
514.082655	2578.867785
514.446803	2581.337950
514.810894	2576.926941
515.174927	2583.591346
515.538904	2583.286356
515.902822	2582.073959
516.266684	2580.778382
516.630488	2583.321644
516.994235	2583.029257
517.357925	2583.636717
517.721558	2587.742736
518.085133	2583.619072
518.448651	2583.593867
518.812112	2581.955492
519.175516	2584.707962
519.538863	2582.182344
519.902152	2587.185689
520.265385	2590.265834
520.628560	2591.105186
520.991678	2588.287181
521.354739	2590.535536
521.717743	2591.047213
522.080690	2591.609301
522.443580	2593.172059
522.806413	2594.228181
523.169189	2592.806575
523.531908	2596.262286
523.894569	2592.635176
524.257174	2598.553491
524.619722	2599.425610
524.982213	2597.688933
525.344647	2599.970055
525.707025	2600.358224
526.069345	2600.262442
526.431608	2602.588934
526.793815	2603.176229
527.155964	2603.392998
527.518057	2600.680858
527.880093	2604.958277
528.242072	2604.217227
528.603995	2608.252671
528.965860	2607.962804
529.327669	2604.519696
529.689421	2609.379369
530.051117	2609.432301
530.412755	2610.314503
530.774337	2611.514297
531.135862	2608.270315
531.497331	2614.337343
531.858743	2610.344750
532.220098	2612.507405
532.581396	2613.094699
532.942638	2612.187291
533.303824	2618.602160
533.664953	2614.786006
534.026025	2615.554782
534.387040	2618.004783
534.747999	2619.065946
535.108902	2621.626852
535.469748	2621.105092
535.830537	2622.405710
536.191270	2623.887809
536.551947	2619.010493
536.912567	2619.373456
537.273131	2623.986112
537.633638	2621.084928
537.994089	2625.440485
538.354483	2626.378139
538.714821	2629.271762
539.075103	2627.164559
539.435328	2626.768829
539.795497	2627.368726
540.155609	2629.503655
540.515665	2629.740589
540.875665	2631.086577
541.235609	2630.161525
541.595496	2631.222688
541.955328	2631.643625
542.315102	2634.474232
542.674821	2631.840230
543.034483	2633.844088
543.394090	2636.558750
543.753640	2635.069089
544.113134	2639.938843
544.472571	2635.371558
544.831953	2641.113432
545.191278	2635.689151
545.550548	2638.345839
545.909761	2638.905407
546.268918	2641.788947
546.628019	2641.615027
546.987064	2643.197949
547.346053	2641.718371
547.704986	2641.118473
548.063863	2642.971097
548.422684	2642.187198
548.781449	2644.894297
549.140158	2644.732981
549.498811	2644.962353
549.857408	2640.891621
550.215949	2647.445121
550.574434	2645.600059
550.932864	2649.829587
551.291237	2645.811787
551.649555	2649.849752
552.007817	2649.126346
552.366022	2651.412509
552.724173	2650.018630
553.082267	2652.120792
553.440305	2653.739002
553.798288	2653.910401
554.156215	2655.679846
554.514086	2649.995945
554.871902	2646.804895
555.229661	2651.838487
555.587365	2651.856131
555.945014	2655.362253
556.302606	2656.914929
556.660143	2655.326965
557.017625	2660.758809
557.375050	2659.085146
557.732421	2658.402069
558.089735	2660.484066
558.446994	2659.196051
558.804197	2663.554128
559.161345	2662.056906
559.518437	2660.917605
559.875474	2661.434323
560.232455	2664.370795
560.589381	2665.310971
560.946251	2665.343738
561.303065	2666.036897
561.659825	2670.531085
562.016528	2668.605365
562.373177	2667.645025
562.729770	2668.093687
563.086307	2672.613082
563.442789	2673.938905
563.799216	2674.027126
564.155587	2673.500325
564.511904	2673.996879
564.868164	2674.541323
565.224370	2680.021057
565.580520	2677.376972
565.936615	2680.505008
566.292654	2677.296314
566.648638	2682.120698
567.004567	2682.438291
567.360441	2686.745957
567.716260	2681.493074
568.072023	2690.070598
568.427732	2685.450380
568.783385	2688.585978
569.138982	2690.466328
569.494525	2691.580423
569.850013	2696.729962
570.205445	2692.873479
570.560823	2694.887420
570.916145	2699.457226
571.271412	2694.342976
571.626625	2700.979655
571.981782	2704.800849
572.336884	2701.975282
572.691931	2703.278421
573.046923	2700.634336
573.401860	2703.018801
573.756743	2710.910728
574.111570	2713.232179
574.466342	2715.765359
574.821059	2719.649568
575.175722	2716.609752
575.530330	2721.106461
575.884882	2725.157028
576.239380	2726.916391
576.593823	2728.821947
576.948211	2728.834550
577.302544	2730.107442
577.656823	2732.343193
578.011047	2737.792681
578.365216	2738.798391
578.719330	2743.612693
579.073389	2745.092271
579.427394	2754.388159
579.781344	2751.245000
580.135239	2755.872779
580.489080	2758.615167
580.842866	2756.555855
581.196597	2773.400871
581.550273	2767.215375
581.903895	2777.716098
582.257463	2783.707510
582.610975	2782.507715
582.964434	2791.654889
583.317837	2798.165539
583.671186	2803.181487
584.024481	2814.362766
584.377721	2812.956284
584.730906	2818.259578
585.084037	2820.288643
585.437113	2826.728717
585.790135	2836.153154
586.143103	2840.886797
586.496016	2840.153309
586.848874	2853.232583
587.201679	2856.456401
587.554428	2861.237935
587.907124	2873.823176
588.259765	2877.725029
588.612352	2895.268244
588.964884	2893.652555
589.317362	2902.156981
589.669786	2913.673497
590.022155	2920.453849
590.374470	2934.367434
590.726731	2938.942281
591.078937	2941.241047
591.431090	2955.366360
591.783188	2958.585137
592.135232	2967.046713
592.487222	2981.045998
592.839157	2989.689056
593.191038	3001.326560
593.542866	3001.228257
593.894639	3008.752179
594.246358	3028.629449
594.598022	3036.347455
594.949633	3044.345246
595.301190	3046.815411
595.652692	3064.918195
596.004141	3076.263312
596.355535	3077.480750
596.706876	3087.139601
597.058162	3099.112341
597.409395	3111.379989
597.760573	3127.771301
598.111698	3133.674492
598.462768	3147.688900
598.813785	3156.505878
599.164748	3162.061229
599.515657	3179.675021
599.866511	3186.377235
600.217312	3211.149465
600.568060	3207.781974
600.918753	3237.917992
601.269392	3254.248810
601.619978	3253.840476
601.970510	3288.082514
602.320988	3297.365799
602.671412	3325.979388
603.021783	3336.142354
603.372100	3343.875484
603.722363	3369.298023
604.072572	3386.122874
604.422728	3405.617016
604.772830	3418.076228
605.122878	3425.511929
605.472872	3451.632668
605.822813	3475.633602
606.172701	3489.222032
606.522534	3521.729912
606.872314	3542.333108
607.222041	3550.731670
607.571714	3586.067638
607.921333	3603.600771
608.270899	3630.943990
608.620411	3672.752799
608.969870	3667.144516
609.319276	3698.500492
609.668627	3739.084302
610.017926	3769.689147
610.367171	3800.641831
610.716362	3843.524406
611.065500	3850.887012
611.414585	3888.851941
611.763616	3910.385230
612.112594	3939.704581
612.461518	3954.891057
612.810389	4010.245446
613.159207	4016.378010
613.507971	4040.149571
613.856682	4110.647587
614.205340	4134.199858
614.553945	4195.666647
614.902496	4186.947971
615.250994	4256.289042
615.599439	4275.591620
615.947830	4309.508503
616.296169	4339.614274
616.644454	4382.874936
616.992686	4402.217843
617.340864	4474.694512
617.688990	4491.897449
618.037063	4562.655085
618.385082	4584.306841
618.733048	4651.654135
619.080961	4671.506199
619.428821	4724.700455
619.776628	4762.199077
620.124382	4776.276500
620.472083	4828.366742
620.819731	4869.832753
621.167326	4857.789437
621.514868	4883.786667
621.862357	4893.130446
622.209793	4921.222276
622.557176	4925.164458
622.904506	4923.742852
623.251783	4945.117345
623.599007	4957.016988
623.946179	4980.690247
624.293297	5001.069111
624.640363	5003.408207
624.987376	5027.212535
625.334336	5027.031054
625.681243	5040.722828
626.028097	5064.930448
626.374899	5118.598572
626.721647	5107.598774
627.068343	5119.632009
627.414987	5144.207634
627.761577	5196.018092
628.108115	5251.082616
628.454600	5217.695054
628.801032	5262.347074
629.147412	5289.155930
629.493739	5331.652857
629.840014	5345.700032
630.186236	5392.945726
630.532405	5386.399788
630.878521	5470.947500
631.224585	5485.372761
631.570597	5506.349002
631.916556	5530.644843
632.262462	5558.686262
632.608316	5601.687304
632.954117	5621.909893
633.299866	5667.088713
633.645562	5687.707033
633.991206	5657.671838
634.336797	5646.031814
634.682336	5693.237178
635.027823	5684.394995
635.373257	5712.128902
635.718639	5700.030133
636.063968	5719.403287
636.409245	5698.099371
636.754470	5732.253189
637.099642	5735.293004
637.444762	5695.266243
637.789829	5754.237661
638.134845	5744.586372
638.479808	5780.383605
638.824719	5805.097862
639.169577	5788.383916
639.514383	5836.451318
639.859137	5823.480429
640.203839	5881.483945
640.548489	5856.258012
640.893086	5909.847998
641.237632	5878.073605
641.582125	5977.225539
641.926566	5957.625533
642.270955	5990.025029
642.615292	6012.906826
642.959576	6051.912754
643.303809	6104.633141
643.647990	6102.641885
643.992118	6173.220560
644.336195	6112.842660
