Dividing Wavelength (nm)	Counts (n)	Blue Motor Position (mm): 3.800000	Red Motor Position (mm): 0.000000	
326.493990	2161.515699
326.888308	2161.515699
327.282561	2161.515699
327.676750	2118.902826
328.070874	2115.956271
328.464933	2116.893926
328.858929	2120.301746
329.252859	2123.926336
329.646726	2135.276493
330.040528	2145.295787
330.434265	2157.134937
330.827938	2175.315858
331.221547	2193.159022
331.615091	2210.724923
332.008571	2230.859291
332.401986	2247.416961
332.795338	2265.048396
333.188625	2288.305760
333.581847	2305.604479
333.975006	2319.802889
334.368100	2342.785509
334.761129	2360.421986
335.154095	2375.026209
335.546996	2391.616646
335.939833	2406.901424
336.332606	2422.284505
336.725315	2434.330342
337.117960	2447.142435
337.510540	2458.195165
337.903056	2471.909624
338.295508	2478.571509
338.687896	2488.207674
339.080220	2495.792090
339.472480	2502.935405
339.864676	2508.314316
340.256807	2514.893022
340.648875	2521.156656
341.040879	2520.193795
341.432818	2522.981553
341.824694	2526.548170
342.216506	2525.277799
342.608253	2528.867101
342.999937	2527.417769
343.391557	2527.478263
343.783113	2528.413397
344.174605	2527.269055
344.566033	2525.794517
344.957397	2525.429034
345.348697	2525.406348
345.739934	2522.364012
346.131106	2522.106913
346.522215	2518.018538
346.913260	2517.096006
347.304241	2511.883453
347.695159	2511.298679
348.086012	2509.642660
348.476802	2511.167609
348.867528	2503.502535
349.258191	2500.223264
349.648789	2501.196207
350.039324	2496.104642
350.429796	2500.692092
350.820203	2499.320898
351.210548	2498.126144
351.600828	2496.119765
351.991045	2497.803511
352.381198	2495.421565
352.771288	2496.795280
353.161314	2491.998622
353.551276	2493.021976
353.941175	2492.964003
354.331010	2494.773777
354.720782	2495.587923
355.110490	2493.931904
355.500135	2491.746564
355.889717	2492.870742
356.279235	2493.188334
356.668689	2492.908550
357.058080	2492.845536
357.447408	2492.122130
357.836672	2493.831081
358.225873	2493.425268
358.615010	2496.346617
359.004084	2491.166832
359.393095	2494.544405
359.782043	2494.337717
360.170927	2494.705722
360.559748	2496.888541
360.948505	2497.884169
361.337199	2498.531957
361.725830	2498.887359
362.114398	2498.103459
362.502903	2499.661176
362.891344	2499.729231
363.279722	2500.699653
363.668037	2497.992554
364.056289	2500.193018
364.444478	2501.964983
364.832603	2503.535303
365.220665	2501.256701
365.608665	2503.855416
365.996601	2501.750734
366.384474	2501.899448
366.772284	2503.336177
367.160031	2503.860457
367.547715	2505.818945
367.935336	2503.890704
368.322893	2504.049500
368.710388	2501.798625
369.097820	2502.620333
369.485189	2501.624705
369.872495	2506.416322
370.259738	2505.632423
370.646918	2507.406909
371.034035	2505.261898
371.421090	2508.110150
371.808081	2504.525889
372.195010	2509.017557
372.581875	2507.333812
372.968678	2506.139058
373.355418	2508.450428
373.742096	2505.841630
374.128710	2509.541837
374.515262	2508.946981
374.901751	2510.381189
375.288177	2509.859430
375.674540	2510.512259
376.060841	2507.139727
376.447079	2510.262722
376.833254	2511.137362
377.219367	2511.344050
377.605417	2513.383197
377.991404	2511.089472
378.377329	2510.978566
378.763191	2514.686335
379.148991	2512.556447
379.534727	2510.731550
379.920402	2511.853206
380.306013	2514.252796
380.691563	2515.117353
381.077049	2514.724143
381.462474	2515.268588
381.847835	2512.982425
382.233134	2513.831859
382.618371	2512.037208
383.003545	2512.811026
383.388657	2514.116684
383.773706	2514.567868
384.158693	2515.422343
384.543618	2513.998217
384.928480	2517.567354
385.313280	2514.688855
385.698017	2514.013341
386.082692	2515.278670
386.467305	2517.519463
386.851856	2517.479134
387.236344	2517.393434
387.620770	2514.920748
388.005133	2513.579802
388.389435	2515.571057
388.773674	2513.380676
389.157851	2518.429392
389.541965	2516.012158
389.926018	2519.339320
390.310008	2517.479134
390.693936	2518.736902
391.077802	2519.750174
391.461606	2519.225894
391.845348	2519.314114
392.229027	2518.484844
392.612645	2518.943589
392.996200	2521.229753
393.379694	2517.925276
393.763125	2518.371418
394.146494	2518.066428
394.529801	2520.546676
394.913047	2520.776049
395.296230	2523.165556
395.679351	2519.621624
396.062410	2522.212778
396.445408	2521.411234
396.828343	2524.123375
397.211217	2519.399814
397.594028	2521.635565
397.976778	2520.221522
398.359466	2523.510875
398.742092	2522.202695
399.124656	2521.920391
399.507158	2521.895185
399.889598	2521.769156
400.271977	2521.764115
400.654294	2521.121368
401.036549	2522.517767
401.418742	2522.205216
401.800874	2524.272089
402.182944	2523.094979
402.564952	2523.372243
402.946898	2521.494413
403.328783	2524.040196
403.710606	2525.736544
404.092367	2524.163704
404.474067	2522.835360
404.855705	2522.452232
405.237282	2524.957686
405.618797	2525.315608
406.000250	2526.467511
406.381642	2523.324352
406.762972	2523.568848
407.144240	2521.491892
407.525447	2523.858714
407.906593	2522.051461
408.287677	2526.258303
408.668700	2524.841739
409.049661	2527.107738
409.430560	2526.180166
409.811399	2526.548170
410.192176	2526.888448
410.572891	2528.090763
410.953545	2525.555062
411.334138	2526.959024
411.714669	2526.593540
412.095139	2527.069929
412.475547	2528.005063
412.855894	2527.629497
413.236180	2528.826771
413.616405	2523.926770
413.996568	2528.788963
414.376670	2529.754344
414.756711	2527.926925
415.136691	2528.756195
415.516609	2528.299971
415.896466	2530.341638
416.276262	2529.948428
416.655997	2527.687471
417.035670	2528.446164
417.415283	2530.896165
417.794834	2530.818027
418.174324	2531.251566
418.553753	2529.678726
418.933121	2529.837523
419.312428	2527.654703
419.691674	2532.579910
420.070859	2527.851308
420.449983	2531.438089
420.829045	2533.746938
421.208047	2531.100332
421.586988	2530.530681
421.965867	2531.193593
422.344686	2532.388347
422.723444	2530.397091
423.102141	2529.819879
423.480777	2533.726773
423.859352	2530.369364
424.237866	2530.331556
424.616319	2533.399098
424.994712	2533.530168
425.373044	2530.926412
425.751314	2529.474560
426.129524	2529.535053
426.507673	2530.525640
426.885762	2524.138498
427.263789	2534.699716
427.641756	2530.923891
428.019662	2533.701567
428.397508	2532.060672
428.775292	2532.582431
429.153016	2531.760723
429.530679	2532.980682
429.908282	2536.023018
430.285824	2534.331711
430.663305	2534.548481
431.040726	2534.014119
431.418086	2534.346835
431.795385	2533.378933
432.172624	2535.002185
432.549802	2536.842206
432.926920	2534.258615
433.303977	2539.410674
433.680974	2535.055117
434.057910	2533.721732
434.434786	2533.741896
434.811601	2535.889428
435.188355	2535.627288
435.565050	2536.201979
435.941683	2535.513862
436.318257	2535.559232
436.694770	2535.229037
437.071222	2536.607792
437.447614	2536.028060
437.823946	2537.432021
438.200218	2534.044366
438.576429	2535.624767
438.952580	2535.135775
439.328670	2537.472350
439.704700	2537.888245
440.080670	2536.471681
440.456580	2538.195756
440.832429	2537.515200
441.208218	2535.889428
441.583947	2536.569984
441.959616	2535.884387
442.335224	2537.769778
442.710773	2537.104346
443.086261	2538.636857
443.461689	2538.694830
443.837057	2539.012423
444.212365	2535.939839
444.587612	2535.415559
444.962800	2537.293389
445.337927	2535.604603
445.712995	2534.460261
446.088002	2538.982176
446.462949	2534.775333
446.837837	2538.130221
447.212664	2538.132741
447.587431	2536.310364
447.962139	2538.044521
448.336786	2536.007895
448.711374	2538.838503
449.085901	2539.859337
449.460369	2542.896632
449.834776	2538.430169
450.209124	2537.603420
450.583412	2537.590817
450.957640	2539.627443
451.331808	2536.567463
451.705917	2539.050231
452.079965	2536.474202
452.453954	2541.321271
452.827883	2539.962680
453.201752	2540.469316
453.575562	2539.377906
453.949311	2538.793133
454.323001	2541.558205
454.696632	2539.902186
455.070202	2540.469316
455.443713	2541.263298
455.817164	2538.798174
456.190556	2540.197094
456.563888	2540.814635
456.937160	2539.922351
457.310373	2539.209028
457.683526	2541.066693
458.056619	2540.126518
458.429653	2539.125849
458.802628	2539.826569
459.175542	2540.844882
459.548398	2540.986034
459.921194	2540.169367
460.293930	2541.812784
460.666607	2542.117773
461.039224	2544.870243
461.411782	2542.478216
461.784280	2542.100129
462.156719	2541.225489
462.529099	2544.789585
462.901419	2541.336395
463.273680	2540.103832
463.645882	2537.462268
464.018024	2540.096271
464.390106	2537.016126
464.762130	2542.561395
465.134094	2542.082485
465.505999	2542.329502
465.877845	2542.682383
466.249631	2542.337064
466.621358	2543.526776
466.993026	2542.329502
467.364634	2547.660522
467.736184	2543.236910
468.107674	2541.185160
468.479105	2542.198432
468.850477	2541.434697
469.221790	2542.493339
469.593043	2539.254398
469.964238	2542.901673
470.335373	2542.611807
470.706449	2541.772454
471.077467	2540.300437
471.448425	2543.955274
471.819324	2543.839327
472.190164	2543.488967
472.560945	2542.936961
472.931667	2543.012578
473.302330	2543.272198
473.672934	2543.710778
474.043479	2541.064172
474.413965	2543.909904
474.784393	2541.696837
475.154761	2546.871582
475.525070	2543.972918
475.895321	2544.852599
476.265513	2543.282280
476.635645	2546.884184
477.005719	2544.439225
477.375734	2544.822352
477.745691	2543.841848
478.115588	2545.404606
478.485427	2545.109698
478.855207	2545.754966
479.224928	2542.667259
479.594591	2545.896118
479.964194	2543.438556
480.333739	2542.447969
480.703226	2543.826725
481.072653	2543.332692
481.442022	2545.712116
481.811333	2542.034594
482.180584	2539.095602
482.549777	2540.355890
482.918912	2541.096940
483.287988	2547.083310
483.657005	2546.375028
484.025964	2546.569112
484.394864	2547.753783
484.763706	2546.985007
485.132489	2544.497198
485.501213	2546.642209
485.869879	2544.988711
486.238487	2547.484082
486.607036	2545.384441
486.975527	2545.094575
487.343959	2546.296890
487.712333	2547.375697
488.080648	2543.960315
488.448905	2546.102806
488.817104	2547.322765
489.185244	2545.283618
489.553326	2545.452497
489.921350	2546.329658
490.289315	2546.934596
490.657222	2545.185316
491.025070	2545.318906
491.392861	2547.438711
491.760593	2547.279915
492.128267	2544.847558
492.495883	2548.404092
492.863440	2545.036602
493.230939	2545.954092
493.598380	2547.307641
493.965763	2544.320758
494.333088	2547.670604
494.700354	2543.839328
495.067563	2547.042981
495.434713	2545.558361
495.801805	2546.226314
496.168839	2545.424770
496.535815	2546.874102
496.902733	2546.662374
497.269593	2544.454348
497.636395	2545.918803
498.003139	2545.253371
498.369825	2547.514329
498.736453	2547.199257
499.103023	2548.643547
499.469535	2550.153373
499.835989	2546.334699
500.202385	2544.862682
500.568723	2541.500232
500.935003	2546.962322
501.301226	2542.402599
501.667390	2548.023485
502.033497	2550.344937
502.399546	2548.300749
502.765537	2546.916952
503.131470	2544.174564
503.497345	2547.405944
503.863163	2543.536858
504.228923	2547.083310
504.594625	2546.760676
504.960269	2545.760007
505.325856	2548.089020
505.691385	2547.070707
506.056856	2548.124308
506.422270	2547.048022
506.787625	2544.461910
507.152924	2547.962991
507.518164	2547.373176
507.883347	2544.817311
508.248472	2545.369318
508.613540	2548.986346
508.978550	2547.968032
509.343503	2547.814277
509.708398	2546.644730
510.073236	2549.528270
510.438016	2547.310162
510.802738	2548.925852
511.167403	2546.155738
511.532010	2547.892415
511.896561	2549.873589
512.261053	2547.980635
512.625488	2547.617672
512.989866	2547.421067
513.354186	2547.962991
513.718449	2547.897456
514.082655	2546.054915
514.446803	2547.327806
514.810894	2546.455686
515.174927	2548.061294
515.538904	2547.045501
515.902822	2550.594474
516.266684	2546.395192
516.630488	2549.009031
516.994235	2544.905532
517.357925	2547.088351
517.721558	2547.166489
518.085133	2545.094575
518.448651	2548.615821
518.812112	2545.013916
519.175516	2545.228165
519.538863	2543.698175
519.902152	2550.077755
520.265385	2545.928886
520.628560	2549.757642
520.991678	2549.167827
521.354739	2547.973074
521.717743	2548.754452
522.080690	2548.288146
522.443580	2548.968702
522.806413	2549.906356
523.169189	2548.978784
523.531908	2549.215718
523.894569	2548.933413
524.257174	2548.310831
524.619722	2548.759494
524.982213	2547.544576
525.344647	2548.310831
525.707025	2549.288815
526.069345	2550.730585
526.431608	2549.951727
526.793815	2547.395862
527.155964	2550.453321
527.518057	2551.017931
527.880093	2548.270502
528.242072	2548.076417
528.603995	2548.368804
528.965860	2549.767724
529.327669	2549.944165
529.689421	2550.072714
530.051117	2549.929041
530.412755	2550.145811
530.774337	2548.542724
531.135862	2548.459545
531.497331	2550.496171
531.858743	2548.474668
532.220098	2549.303938
532.581396	2549.636654
532.942638	2550.796120
533.303824	2548.141952
533.664953	2550.022303
534.026025	2548.988866
534.387040	2547.937786
534.747999	2549.021634
535.108902	2550.410472
535.469748	2548.215049
535.830537	2551.300235
536.191270	2548.094061
536.551947	2548.215049
536.912567	2544.865202
537.273131	2546.833773
537.633638	2545.117260
537.994089	2548.449463
538.354483	2552.920966
538.714821	2548.986346
539.075103	2548.961140
539.435328	2550.206305
539.795497	2546.052394
540.155609	2551.194371
540.515665	2547.327806
540.875665	2549.918959
541.235609	2551.133877
541.595496	2546.748073
541.955328	2548.930893
542.315102	2551.315359
542.674821	2551.834598
543.034483	2550.082797
543.394090	2548.550286
543.753640	2549.533311
544.113134	2551.007848
544.472571	2550.213867
544.831953	2550.019782
545.191278	2548.918290
545.550548	2550.352498
545.909761	2550.465924
546.268918	2549.182951
546.628019	2550.186140
546.987064	2552.459701
547.346053	2550.720503
547.704986	2547.899977
548.063863	2549.876109
548.422684	2552.038764
548.781449	2552.240410
549.140158	2549.568599
549.498811	2553.677139
549.857408	2548.943496
550.215949	2549.921480
550.574434	2551.126315
550.932864	2552.958775
551.291237	2550.614638
551.649555	2548.976263
552.007817	2549.460214
552.366022	2549.825698
552.724173	2549.959288
553.082267	2551.693445
553.440305	2551.955585
553.798288	2551.517005
554.156215	2546.642209
554.514086	2547.068187
554.871902	2546.062476
555.229661	2547.249668
555.587365	2543.925027
555.945014	2549.253527
556.302606	2549.283774
556.660143	2552.618497
557.017625	2548.162117
557.375050	2551.761501
557.732421	2549.760163
558.089735	2550.022303
558.446994	2548.721685
558.804197	2550.518856
559.161345	2549.011551
559.518437	2551.562375
559.875474	2551.453990
560.232455	2549.505584
560.589381	2550.410472
560.946251	2550.168496
561.303065	2548.890564
561.659825	2548.273022
562.016528	2550.304607
562.373177	2551.194371
562.729770	2548.762014
563.086307	2550.791079
563.442789	2551.743857
563.799216	2548.273022
564.155587	2550.891902
564.511904	2549.409802
564.868164	2550.473486
565.224370	2548.280584
565.580520	2549.830739
565.936615	2552.442057
566.292654	2548.681356
566.648638	2551.935421
567.004567	2549.273691
567.360441	2553.104968
567.716260	2550.216387
568.072023	2551.378373
568.427732	2551.632951
568.783385	2550.995245
569.138982	2551.403579
569.494525	2551.368291
569.850013	2551.217056
570.205445	2550.380225
570.560823	2549.331665
570.916145	2545.901159
571.271412	2549.195553
571.626625	2548.383928
571.981782	2550.712941
572.336884	2549.276212
572.691931	2547.524411
573.046923	2548.419216
573.401860	2544.464431
573.756743	2550.332334
574.111570	2550.922149
574.466342	2550.690256
574.821059	2550.075235
575.175722	2552.434495
575.530330	2552.341233
575.884882	2551.653116
576.239380	2551.968188
576.593823	2551.678322
576.948211	2550.380225
577.302544	2550.614638
577.656823	2549.256047
578.011047	2550.934752
578.365216	2551.338044
578.719330	2552.258054
579.073389	2550.213867
579.427394	2551.085986
579.781344	2552.016079
580.135239	2552.250493
580.489080	2551.360729
580.842866	2548.585574
581.196597	2551.269988
581.550273	2548.741850
581.903895	2548.381407
582.257463	2549.427447
582.610975	2548.973743
582.964434	2551.776624
583.317837	2551.022972
583.671186	2552.714279
584.024481	2549.142621
584.377721	2551.557334
584.730906	2551.839639
585.084037	2551.582540
585.437113	2552.621017
585.790135	2551.746377
586.143103	2552.701676
586.496016	2552.293343
586.848874	2550.319731
587.201679	2551.806871
587.554428	2551.282591
587.907124	2552.618497
588.259765	2552.263096
588.612352	2551.839639
588.964884	2554.279557
589.317362	2553.452808
589.669786	2552.429454
590.022155	2550.034906
590.374470	2548.938455
590.726731	2545.386962
591.078937	2547.045501
591.431090	2552.431974
591.783188	2551.975750
592.135232	2554.483724
592.487222	2550.952396
592.839157	2551.378373
593.191038	2552.487427
593.542866	2552.479865
593.894639	2552.220246
594.246358	2551.892571
594.598022	2550.833928
594.949633	2552.283260
595.301190	2551.738816
595.652692	2553.294012
596.004141	2552.429454
596.355535	2548.699000
596.706876	2553.427602
597.058162	2551.116233
597.409395	2550.279402
597.760573	2551.842159
598.111698	2548.472148
598.462768	2553.021789
598.813785	2551.474155
599.164748	2552.668908
599.515657	2550.793599
599.866511	2549.404761
600.217312	2551.607746
600.568060	2550.302087
600.918753	2551.378373
601.269392	2551.232180
601.619978	2549.760163
601.970510	2550.470965
602.320988	2550.609597
602.671412	2549.913918
603.021783	2550.145811
603.372100	2550.360060
603.722363	2551.630431
604.072572	2552.164793
604.422728	2548.598177
604.772830	2551.022972
605.122878	2549.389638
605.472872	2549.863506
605.822813	2550.972560
606.172701	2550.178578
606.522534	2553.288970
606.872314	2552.948693
607.222041	2550.944834
607.571714	2550.957437
607.921333	2547.509287
608.270899	2551.028013
608.620411	2548.089020
608.969870	2553.876265
609.319276	2555.297870
609.668627	2559.953376
610.017926	2563.434292
610.367171	2564.190466
610.716362	2565.027297
611.065500	2562.728531
611.414585	2559.421534
611.763616	2560.984292
612.112594	2559.648386
612.461518	2554.113199
612.810389	2554.869372
613.159207	2556.288457
613.507971	2552.936090
613.856682	2556.603529
614.205340	2553.770401
614.553945	2555.164280
614.902496	2552.321069
615.250994	2554.133364
615.599439	2553.682180
615.947830	2554.713096
616.296169	2551.151521
616.644454	2553.566234
616.992686	2553.193188
617.340864	2553.518343
617.688990	2551.847200
618.037063	2553.944320
618.385082	2548.885522
618.733048	2552.396686
619.080961	2553.515822
619.428821	2553.621687
619.776628	2551.948023
620.124382	2552.169834
620.472083	2553.203271
620.819731	2550.090358
621.167326	2551.743857
621.514868	2551.927859
621.862357	2553.866182
622.209793	2552.608415
622.557176	2550.745708
622.904506	2554.070349
623.251783	2549.634134
623.599007	2549.848383
623.946179	2551.254865
624.293297	2553.737633
624.640363	2550.231511
624.987376	2548.013403
625.334336	2546.715306
625.681243	2549.734957
626.028097	2545.772610
626.374899	2551.529608
626.721647	2551.847200
627.068343	2552.298384
627.414987	2550.576830
627.761577	2550.254196
628.108115	2551.292673
628.454600	2553.760318
628.801032	2551.340564
629.147412	2551.322920
629.493739	2549.200595
629.840014	2552.913404
630.186236	2550.654967
630.532405	2551.436346
630.878521	2552.094217
631.224585	2554.090514
631.570597	2551.053219
631.916556	2552.416851
632.262462	2549.321582
632.608316	2552.744526
632.954117	2552.053888
633.299866	2553.891388
633.645562	2549.550955
633.991206	2551.786707
634.336797	2549.593805
634.682336	2555.181924
635.027823	2549.613969
635.373257	2552.573127
635.718639	2548.527601
636.063968	2553.987170
636.409245	2550.039947
636.754470	2551.922818
637.099642	2549.838301
637.444762	2551.232180
637.789829	2553.896429
638.134845	2551.945503
638.479808	2549.510626
638.824719	2550.579350
639.169577	2551.312838
639.514383	2548.741850
639.859137	2552.628579
640.203839	2548.396531
640.548489	2548.948537
640.893086	2551.164124
641.237632	2552.489948
641.582125	2551.726213
641.926566	2549.051881
642.270955	2549.568599
642.615292	2547.179092
642.959576	2547.773948
643.303809	2544.219935
643.647990	2548.653629
643.992118	2552.197561
644.336195	2550.816284
