Dividing Wavelength (nm)	Counts (n)	Blue Motor Position (mm): 10.200000	Red Motor Position (mm): 0.000000	
326.493990	2161.843374
326.888308	2161.843374
327.282561	2161.843374
327.676750	2120.752929
328.070874	2117.761004
328.464933	2117.564399
328.858929	2120.518516
329.252859	2126.048661
329.646726	2136.027625
330.040528	2148.693524
330.434265	2159.589978
330.827938	2178.181754
331.221547	2196.103056
331.615091	2212.159131
332.008571	2231.285268
332.401986	2249.534245
332.795338	2267.939498
333.188625	2288.220060
333.581847	2305.959880
333.975006	2322.106696
334.368100	2340.436332
334.761129	2358.566841
335.154095	2376.765407
335.546996	2395.319373
335.939833	2418.596901
336.332606	2434.282452
336.725315	2447.361725
337.117960	2460.425875
337.510540	2471.952474
337.903056	2485.651809
338.295508	2487.665750
338.687896	2500.387102
339.080220	2506.126456
339.472480	2513.347908
339.864676	2520.851666
340.256807	2521.670853
340.648875	2525.945752
341.040879	2530.583613
341.432818	2534.011598
341.824694	2537.303472
342.216506	2534.576207
342.608253	2539.531662
342.999937	2538.790612
343.391557	2537.472350
343.783113	2536.433872
344.174605	2539.294727
344.566033	2535.851619
344.957397	2534.084695
345.348697	2533.499921
345.739934	2532.678213
346.131106	2529.809796
346.522215	2530.434899
346.913260	2526.709487
347.304241	2524.264527
347.695159	2523.276461
348.086012	2518.729340
348.476802	2518.678929
348.867528	2512.337157
349.258191	2511.729698
349.648789	2512.246416
350.039324	2507.590911
350.429796	2511.704492
350.820203	2510.802126
351.210548	2509.088133
351.600828	2508.452948
351.991045	2506.479336
352.381198	2509.146107
352.771288	2505.125787
353.161314	2504.321722
353.551276	2506.270128
353.941175	2502.012874
354.331010	2504.719974
354.720782	2503.709222
355.110490	2504.646877
355.500135	2502.232164
355.889717	2505.317350
356.279235	2503.810045
356.668689	2503.144613
357.058080	2503.225272
357.447408	2500.578666
357.836672	2505.193842
358.225873	2506.406240
358.615010	2504.104953
359.004084	2506.754079
359.393095	2506.358349
359.782043	2507.913545
360.170927	2505.135869
360.559748	2507.361538
360.948505	2506.146620
361.337199	2508.402537
361.725830	2509.380520
362.114398	2507.719460
362.502903	2509.327588
362.891344	2508.321878
363.279722	2507.187618
363.668037	2512.306910
364.056289	2511.399503
364.444478	2514.124246
364.832603	2512.405213
365.220665	2512.314472
365.608665	2515.258506
365.996601	2513.438649
366.384474	2513.985614
366.772284	2514.451921
367.160031	2512.402692
367.547715	2516.289422
367.935336	2514.257837
368.322893	2511.202898
368.710388	2513.090810
369.097820	2516.186078
369.485189	2511.893536
369.872495	2515.218177
370.259738	2516.183558
370.646918	2517.174144
371.034035	2519.304032
371.421090	2515.777745
371.808081	2517.378311
372.195010	2515.500481
372.581875	2516.319669
372.968678	2517.436284
373.355418	2517.711027
373.742096	2518.880575
374.128710	2520.587005
374.515262	2518.565503
374.901751	2519.359484
375.288177	2521.141532
375.674540	2517.675739
376.060841	2520.148425
376.447079	2520.508867
376.833254	2520.501306
377.219367	2520.861748
377.605417	2522.288395
377.991404	2521.509537
378.377329	2521.544825
378.763191	2521.592716
379.148991	2523.089938
379.534727	2524.395597
379.920402	2522.041378
380.306013	2523.594054
380.691563	2523.977181
381.077049	2523.634383
381.462474	2520.332427
381.847835	2524.027593
382.233134	2523.894002
382.618371	2523.324352
383.003545	2525.484486
383.388657	2525.396266
383.773706	2525.552542
384.158693	2524.622449
384.543618	2527.647141
384.928480	2525.055988
385.313280	2525.943231
385.698017	2522.318642
386.082692	2525.683612
386.467305	2527.952131
386.851856	2529.245187
387.236344	2525.784435
387.620770	2527.143026
388.005133	2522.646317
388.389435	2522.669002
388.773674	2524.398118
389.157851	2528.143695
389.541965	2526.762419
389.926018	2529.590506
390.310008	2525.416431
390.693936	2528.514220
391.077802	2526.679240
391.461606	2529.177132
391.845348	2530.402132
392.229027	2528.935156
392.612645	2530.044210
392.996200	2532.355579
393.379694	2529.426669
393.763125	2528.748633
394.146494	2529.968593
394.529801	2529.971113
394.913047	2529.532533
395.296230	2530.387008
395.679351	2533.063861
396.062410	2529.265352
396.445408	2531.980013
396.828343	2532.181659
397.211217	2530.329035
397.594028	2530.268541
397.976778	2531.092770
398.359466	2534.964376
398.742092	2531.591844
399.124656	2533.404139
399.507158	2533.963707
399.889598	2534.450178
400.271977	2533.580579
400.654294	2535.793646
401.036549	2534.218285
401.418742	2532.496731
401.800874	2533.928419
402.182944	2535.997813
402.564952	2533.227699
402.946898	2535.211393
403.328783	2534.412370
403.710606	2535.110570
404.092367	2535.087884
404.474067	2535.977648
404.855705	2533.804911
405.237282	2535.226516
405.618797	2535.423121
406.000250	2534.845909
406.381642	2536.476722
406.762972	2532.476567
407.144240	2531.417924
407.525447	2532.678213
407.906593	2532.768954
408.287677	2536.028060
408.668700	2536.320447
409.049661	2537.570653
409.430560	2537.535365
409.811399	2536.895138
410.192176	2535.629808
410.572891	2539.637526
410.953545	2539.163657
411.334138	2536.746424
411.714669	2539.322454
412.095139	2540.915458
412.475547	2535.183666
412.855894	2539.473688
413.236180	2536.874973
413.616405	2536.701054
413.996568	2539.879501
414.376670	2540.134079
414.756711	2540.565098
415.136691	2540.542413
415.516609	2539.118287
415.896466	2538.823379
416.276262	2540.086188
416.655997	2540.451672
417.035670	2536.201979
417.415283	2542.155582
417.794834	2537.742052
418.174324	2540.161806
418.553753	2538.841023
418.933121	2538.437731
419.312428	2537.928575
419.691674	2538.238606
420.070859	2540.547454
420.449983	2541.525438
420.829045	2540.071065
421.208047	2542.319420
421.586988	2538.404964
421.965867	2541.381765
422.344686	2541.434697
422.723444	2543.304965
423.102141	2542.402599
423.480777	2544.610624
423.859352	2543.325130
424.237866	2541.787578
424.616319	2543.617517
424.994712	2543.183978
425.373044	2541.401930
425.751314	2540.930582
426.129524	2537.774819
426.507673	2538.253729
426.885762	2537.472350
427.263789	2543.917465
427.641756	2543.771272
428.019662	2544.081303
428.397508	2541.792619
428.775292	2545.502908
429.153016	2543.375541
429.530679	2543.052907
429.908282	2542.712630
430.285824	2544.033412
430.663305	2542.200953
431.040726	2544.945861
431.418086	2544.650953
431.795385	2545.268495
432.172624	2543.625078
432.549802	2544.053577
432.926920	2542.571477
433.303977	2544.719009
433.680974	2545.386962
434.057910	2544.300593
434.434786	2543.302445
434.811601	2544.116591
435.188355	2543.816642
435.565050	2543.753628
435.941683	2545.407126
436.318257	2545.475182
436.694770	2544.857641
437.071222	2545.875954
437.447614	2546.962322
437.823946	2546.725388
438.200218	2545.190357
438.576429	2545.598690
438.952580	2545.797816
439.328670	2544.149358
439.704700	2546.737991
440.080670	2547.842004
440.456580	2544.638350
440.832429	2547.423588
441.208218	2546.952240
441.583947	2549.014072
441.959616	2547.635316
442.335224	2544.436704
442.710773	2546.191026
443.086261	2545.041643
443.461689	2547.647919
443.837057	2547.473999
444.212365	2544.839997
444.587612	2544.527445
444.962800	2542.364790
445.337927	2543.514173
445.712995	2544.693803
446.088002	2548.351160
446.462949	2547.461397
446.837837	2547.398382
447.212664	2549.397200
447.587431	2548.981304
447.962139	2547.965512
448.336786	2545.205480
448.711374	2549.296377
449.085901	2547.960471
449.460369	2547.882333
449.834776	2549.462735
450.209124	2549.346788
450.583412	2550.370142
450.957640	2549.840821
451.331808	2553.296532
451.705917	2549.104813
452.079965	2549.223280
452.453954	2550.234031
452.827883	2548.852755
453.201752	2547.882333
453.575562	2551.640513
453.949311	2549.624052
454.323001	2549.792930
454.696632	2549.941644
455.070202	2548.693959
455.443713	2549.525749
455.817164	2551.053219
456.190556	2551.370811
456.563888	2550.715461
456.937160	2550.201264
457.310373	2550.274360
457.683526	2550.012220
458.056619	2549.321582
458.429653	2547.421067
458.802628	2548.850234
459.175542	2549.866027
459.548398	2551.340564
459.921194	2553.788045
460.293930	2551.703527
460.666607	2553.719989
461.039224	2553.470452
461.411782	2552.437015
461.784280	2550.612118
462.156719	2555.229815
462.529099	2551.000287
462.901419	2551.494320
463.273680	2549.893753
463.645882	2545.954092
464.018024	2550.639844
464.390106	2547.552137
464.762130	2552.628579
465.134094	2551.726213
465.505999	2551.133877
465.877845	2549.394679
466.249631	2553.593960
466.621358	2553.162942
466.993026	2554.410627
467.364634	2556.711914
467.736184	2553.604043
468.107674	2550.196222
468.479105	2552.424413
468.850477	2551.907694
469.221790	2550.672612
469.593043	2552.711758
469.964238	2554.844166
470.335373	2553.299053
470.706449	2552.941131
471.077467	2553.389793
471.448425	2552.918446
471.819324	2555.754095
472.190164	2554.829043
472.560945	2553.225956
472.931667	2554.423230
473.302330	2553.024310
473.672934	2553.518343
474.043479	2553.911553
474.413965	2554.995401
474.784393	2555.393652
475.154761	2555.330638
475.525070	2554.829043
475.895321	2555.383570
476.265513	2553.651933
476.635645	2554.889537
477.005719	2555.141594
477.375734	2557.521019
477.745691	2555.149156
478.115588	2555.428940
478.485427	2553.989691
478.855207	2555.565051
479.224928	2560.868345
479.594591	2556.911039
479.964194	2556.444733
480.333739	2556.684187
480.703226	2556.424568
481.072653	2560.079405
481.442022	2557.382387
481.811333	2556.187634
482.180584	2552.641182
482.549777	2555.875082
482.918912	2553.364588
483.287988	2558.176369
483.657005	2557.498334
484.025964	2556.359033
484.394864	2558.476318
484.763706	2556.394321
485.132489	2560.160063
485.501213	2560.349106
485.869879	2559.098900
486.238487	2559.509754
486.607036	2559.441699
486.975527	2557.712583
487.343959	2558.672923
487.712333	2558.509085
488.080648	2558.786349
488.448905	2559.902964
488.817104	2560.349106
489.185244	2561.012018
489.553326	2561.281720
489.921350	2560.407080
490.289315	2560.923798
490.657222	2561.904302
491.025070	2563.598130
491.392861	2561.445557
491.760593	2559.368602
492.128267	2561.737944
492.495883	2561.639642
492.863440	2559.817265
493.230939	2561.495969
493.598380	2559.754250
493.965763	2561.246432
494.333088	2559.928170
494.700354	2559.388767
495.067563	2562.690722
495.434713	2558.163766
495.801805	2560.144940
496.168839	2558.582182
496.535815	2564.414797
496.902733	2561.259035
497.269593	2560.717111
497.636395	2562.224416
498.003139	2560.681823
498.369825	2559.184600
498.736453	2560.238201
499.103023	2560.427244
499.469535	2563.192317
499.835989	2563.063768
500.202385	2557.599157
500.568723	2558.574620
500.935003	2556.575803
501.301226	2555.159238
501.667390	2562.352965
502.033497	2563.399004
502.399546	2559.928170
502.765537	2563.404046
503.131470	2561.352296
503.497345	2560.457491
503.863163	2561.798438
504.228923	2559.792059
504.594625	2562.489076
504.960269	2562.514282
505.325856	2563.388922
505.691385	2561.155691
506.056856	2562.481514
506.422270	2561.410269
506.787625	2560.593602
507.152924	2561.387584
507.518164	2564.203068
507.883347	2560.908674
508.248472	2561.677450
508.613540	2563.078891
508.978550	2561.737944
509.343503	2562.408418
509.708398	2562.421021
510.073236	2563.691391
510.438016	2561.148129
510.802738	2561.301884
511.167403	2561.828685
511.532010	2561.541339
511.896561	2563.479663
512.261053	2561.528736
512.625488	2564.031669
512.989866	2565.115517
513.354186	2563.328428
513.718449	2565.475960
514.082655	2565.455795
514.446803	2563.293140
514.810894	2564.654252
515.174927	2564.283727
515.538904	2564.923953
515.902822	2564.094684
516.266684	2565.662482
516.630488	2567.384037
516.994235	2565.349931
517.357925	2564.687019
517.721558	2568.425035
518.085133	2568.470405
518.448651	2564.692060
518.812112	2563.739282
519.175516	2563.640980
519.538863	2562.816751
519.902152	2566.854715
520.265385	2565.738100
520.628560	2565.730538
520.991678	2570.038204
521.354739	2567.051320
521.717743	2570.199521
522.080690	2568.425035
522.443580	2571.003585
522.806413	2573.015005
523.169189	2572.362176
523.531908	2570.738924
523.894569	2573.075499
524.257174	2574.333267
524.619722	2571.936198
524.982213	2575.787640
525.344647	2574.418967
525.707025	2576.067424
526.069345	2571.800087
526.431608	2575.016343
526.793815	2575.165057
527.155964	2575.948957
527.518057	2576.105233
527.880093	2576.649677
528.242072	2578.363670
528.603995	2580.647312
528.965860	2580.221335
529.327669	2577.383165
529.689421	2581.597570
530.051117	2584.670153
530.412755	2579.160172
530.774337	2579.878536
531.135862	2582.356263
531.497331	2583.407344
531.858743	2585.058322
532.220098	2586.706779
532.581396	2585.625452
532.942638	2584.221490
533.303824	2586.863055
533.664953	2588.040164
534.026025	2588.718200
534.387040	2591.558890
534.747999	2589.630648
535.108902	2592.403283
535.469748	2591.248859
535.830537	2593.267841
536.191270	2593.955958
536.551947	2590.628797
536.912567	2589.749116
537.273131	2593.908068
537.633638	2593.872779
537.994089	2598.707246
538.354483	2595.410331
538.714821	2596.884869
539.075103	2599.269335
539.435328	2601.021136
539.795497	2598.702205
540.155609	2600.166660
540.515665	2597.015939
540.875665	2603.065323
541.235609	2601.961311
541.595496	2604.285283
541.955328	2601.391660
542.315102	2603.476177
542.674821	2603.521548
543.034483	2601.926023
543.394090	2603.324943
543.753640	2605.265787
544.113134	2610.087651
544.472571	2607.461210
544.831953	2609.528083
545.191278	2608.477002
545.550548	2607.620006
545.909761	2609.391972
546.268918	2610.122939
546.628019	2608.592949
546.987064	2612.414143
547.346053	2608.600510
547.704986	2611.163937
548.063863	2611.610079
548.422684	2610.932044
548.781449	2611.199225
549.140158	2613.288783
549.498811	2612.678804
549.857408	2612.774586
550.215949	2613.482868
550.574434	2610.997579
550.932864	2615.068311
551.291237	2614.044957
551.649555	2620.159876
552.007817	2616.908332
552.366022	2614.652416
552.724173	2614.067642
553.082267	2616.265585
553.440305	2618.377828
553.798288	2616.464710
554.156215	2617.656943
554.514086	2616.086624
554.871902	2614.637292
555.229661	2617.160390
555.587365	2613.041767
555.945014	2619.451594
556.302606	2615.060749
556.660143	2617.810698
557.017625	2619.151645
557.375050	2617.788013
557.732421	2620.127109
558.089735	2621.367232
558.446994	2619.809516
558.804197	2622.751029
559.161345	2619.018055
559.518437	2616.875564
559.875474	2620.432098
560.232455	2619.617952
560.589381	2622.637603
560.946251	2620.026286
561.303065	2619.106275
561.659825	2621.457973
562.016528	2618.163579
562.373177	2620.096862
562.729770	2619.743981
563.086307	2618.725668
563.442789	2622.766153
563.799216	2623.305556
564.155587	2619.799434
564.511904	2620.341358
564.868164	2618.710544
565.224370	2620.230452
565.580520	2621.815895
565.936615	2623.792027
566.292654	2619.519650
566.648638	2622.390587
567.004567	2622.569548
567.360441	2616.928497
567.716260	2618.188785
568.072023	2618.788682
568.427732	2619.423868
568.783385	2620.268261
569.138982	2621.281533
569.494525	2619.953189
569.850013	2620.147273
570.205445	2618.317334
570.560823	2618.395472
570.916145	2618.917232
571.271412	2616.996552
571.626625	2619.567541
571.981782	2620.573251
572.336884	2614.917076
572.691931	2615.514453
573.046923	2615.554782
573.401860	2612.933382
573.756743	2617.180554
574.111570	2616.772221
574.466342	2617.972015
574.821059	2618.488734
575.175722	2618.697942
575.530330	2619.300359
575.884882	2620.008642
576.239380	2617.538476
576.593823	2620.464866
576.948211	2617.515791
577.302544	2619.338168
577.656823	2617.145266
578.011047	2617.336830
578.365216	2617.301542
578.719330	2616.157200
579.073389	2617.538476
579.427394	2619.537294
579.781344	2620.278343
580.135239	2619.083590
580.489080	2617.876233
580.842866	2619.451594
581.196597	2623.978550
581.550273	2617.450256
581.903895	2619.718775
582.257463	2621.417644
582.610975	2619.890174
582.964434	2620.936214
583.317837	2621.886471
583.671186	2622.612397
584.024481	2621.944445
584.377721	2620.956378
584.730906	2622.435957
585.084037	2622.856893
585.437113	2622.536780
585.790135	2621.432767
586.143103	2623.113992
586.496016	2624.616256
586.848874	2625.826133
587.201679	2624.144908
587.554428	2626.413427
587.907124	2626.579786
588.259765	2622.708179
588.612352	2627.812348
588.964884	2628.140023
589.317362	2628.611371
589.669786	2623.446708
590.022155	2626.158849
590.374470	2626.496607
590.726731	2627.915691
591.078937	2627.398973
591.431090	2631.260497
591.783188	2630.862246
592.135232	2632.548512
592.487222	2631.028604
592.839157	2636.573873
593.191038	2634.585138
593.542866	2633.408028
593.894639	2636.347021
594.246358	2635.200159
594.598022	2635.240488
594.949633	2637.367855
595.301190	2636.541106
595.652692	2638.572691
596.004141	2635.157309
596.355535	2638.703761
596.706876	2639.585962
597.058162	2642.245171
597.409395	2640.692496
597.760573	2642.008237
598.111698	2642.141827
598.462768	2645.267343
598.813785	2647.165337
599.164748	2644.785913
599.515657	2646.215080
599.866511	2647.041829
600.217312	2650.663898
600.568060	2648.591984
600.918753	2654.459887
601.269392	2654.243117
601.619978	2651.959475
601.970510	2657.489620
602.320988	2653.635658
602.671412	2660.673109
603.021783	2660.317708
603.372100	2659.490958
603.722363	2662.951711
604.072572	2666.014212
604.422728	2666.407422
604.772830	2667.198883
605.122878	2665.684016
605.472872	2672.166940
605.822813	2670.190807
606.172701	2675.393278
606.522534	2676.530058
606.872314	2679.098526
607.222041	2679.655574
607.571714	2682.072807
607.921333	2683.023065
608.270899	2685.465504
608.620411	2687.345854
608.969870	2690.176462
609.319276	2697.753316
609.668627	2705.657845
610.017926	2710.983824
610.367171	2715.505739
610.716362	2718.124619
611.065500	2718.379197
611.414585	2720.791389
611.763616	2722.026472
612.112594	2723.029662
612.461518	2724.584857
612.810389	2728.345558
613.159207	2729.676423
613.507971	2734.092474
613.856682	2741.066910
614.205340	2744.820049
614.553945	2752.233066
614.902496	2750.017479
615.250994	2759.343613
615.599439	2759.111720
615.947830	2766.068512
616.296169	2769.559512
616.644454	2773.718463
616.992686	2777.002775
617.340864	2786.626338
617.688990	2792.887451
618.037063	2802.425314
618.385082	2806.485963
618.733048	2816.008703
619.080961	2823.986329
619.428821	2835.250787
619.776628	2841.947960
620.124382	2843.556088
620.472083	2851.904239
620.819731	2862.162987
621.167326	2855.022193
621.514868	2861.240456
621.862357	2861.056454
622.209793	2865.374202
622.557176	2870.067516
622.904506	2863.622401
623.251783	2866.977289
623.599007	2872.091540
623.946179	2878.087992
624.293297	2884.162583
624.640363	2885.294322
624.987376	2885.080073
625.334336	2884.424723
625.681243	2889.584343
626.028097	2896.125241
626.374899	2909.111253
626.721647	2908.287024
627.068343	2912.516552
627.414987	2919.712799
627.761577	2932.862649
628.108115	2938.788526
628.454600	2942.213990
628.801032	2949.344702
629.147412	2956.092286
629.493739	2968.042341
629.840014	2976.798826
630.186236	2986.414827
630.532405	2991.148470
630.878521	3009.533558
631.224585	3015.429188
631.570597	3026.434026
631.916556	3034.966179
632.262462	3044.821635
632.608316	3060.792010
632.954117	3068.338618
633.299866	3082.887388
633.645562	3089.138418
633.991206	3089.566917
634.336797	3086.673294
634.682336	3098.860284
635.027823	3096.185952
635.373257	3108.128445
635.718639	3109.335801
636.063968	3114.734877
636.409245	3114.936523
636.754470	3122.311731
637.099642	3129.152577
637.444762	3121.134622
637.789829	3139.000471
638.134845	3142.980462
638.479808	3157.040240
638.824719	3162.267917
639.169577	3165.902589
639.514383	3177.424146
639.859137	3182.422450
640.203839	3199.955583
640.548489	3195.259748
640.893086	3216.982080
641.237632	3209.067468
641.582125	3238.921182
641.926566	3236.965214
642.270955	3250.074734
642.615292	3258.334665
642.959576	3272.827982
643.303809	3290.300622
643.647990	3300.622384
643.992118	3325.253462
644.336195	3314.523366
