Dividing Wavelength (nm)	Counts (n)	Blue Motor Position (mm): 26.500000	Red Motor Position (mm): 0.000000	
326.493990	2203.768130
326.888308	2203.768130
327.282561	2203.768130
327.676750	2160.366316
328.070874	2161.568631
328.464933	2160.535195
328.858929	2163.887562
329.252859	2168.976607
329.646726	2176.508091
330.040528	2189.584844
330.434265	2200.871987
330.827938	2218.974771
331.221547	2237.266598
331.615091	2254.711510
332.008571	2272.413522
332.401986	2290.725513
332.795338	2312.130253
333.188625	2327.682212
333.581847	2346.594101
333.975006	2364.984230
334.368100	2385.549617
334.761129	2404.360683
335.154095	2423.355751
335.546996	2444.276539
335.939833	2484.399082
336.332606	2499.119252
336.725315	2509.204080
337.117960	2525.741585
337.510540	2532.320291
337.903056	2545.775131
338.295508	2555.524722
338.687896	2562.960424
339.080220	2570.726322
339.472480	2579.235789
339.864676	2581.002714
340.256807	2590.114599
340.648875	2593.766915
341.040879	2594.729776
341.432818	2599.914602
341.824694	2603.703029
342.216506	2602.034407
342.608253	2604.585231
342.999937	2599.985178
343.391557	2603.438369
343.783113	2603.327463
344.174605	2601.842844
344.566033	2600.726228
344.957397	2599.657503
345.348697	2598.515682
345.739934	2595.775815
346.131106	2594.797831
346.522215	2591.760536
346.913260	2593.179621
347.304241	2590.648962
347.695159	2586.457242
348.086012	2587.021851
348.476802	2586.938672
348.867528	2581.131263
349.258191	2577.978021
349.648789	2574.431570
350.039324	2573.463668
350.429796	2575.717064
350.820203	2575.107084
351.210548	2572.568863
351.600828	2573.224213
351.991045	2572.851168
352.381198	2569.836558
352.771288	2569.035014
353.161314	2565.170970
353.551276	2568.346897
353.941175	2568.306568
354.331010	2566.743810
354.720782	2568.039387
355.110490	2568.735066
355.500135	2568.321691
355.889717	2564.923953
356.279235	2566.345559
356.668689	2569.816393
357.058080	2567.918399
357.447408	2568.520817
357.836672	2567.671382
358.225873	2567.051320
358.615010	2570.348235
359.004084	2570.622978
359.393095	2571.548030
359.782043	2572.150447
360.170927	2573.340160
360.559748	2572.563822
360.948505	2574.189594
361.337199	2575.827969
361.725830	2573.188925
362.114398	2577.181519
362.502903	2574.131621
362.891344	2573.564491
363.279722	2575.061714
363.668037	2576.160685
364.056289	2577.552044
364.444478	2577.486509
364.832603	2577.496591
365.220665	2579.313927
365.608665	2577.375603
365.996601	2577.161354
366.384474	2578.366190
366.772284	2580.889288
367.160031	2577.544482
367.547715	2581.053125
367.935336	2580.349884
368.322893	2579.434915
368.710388	2578.530028
369.097820	2579.409709
369.485189	2577.453741
369.872495	2584.405493
370.259738	2578.711509
370.646918	2584.163517
371.034035	2584.143353
371.421090	2585.292736
371.808081	2582.993969
372.195010	2585.998497
372.581875	2585.935483
372.968678	2586.389187
373.355418	2584.070256
373.742096	2587.238621
374.128710	2586.510174
374.515262	2585.060842
374.901751	2586.237952
375.288177	2586.006059
375.674540	2584.014803
376.060841	2586.323652
376.447079	2585.799372
376.833254	2588.279619
377.219367	2587.510843
377.605417	2585.317941
377.991404	2588.294743
378.377329	2589.507140
378.763191	2586.386666
379.148991	2591.435382
379.534727	2589.212233
379.920402	2587.117633
380.306013	2589.539908
380.691563	2591.969744
381.077049	2591.241297
381.462474	2590.253231
381.847835	2592.551997
382.233134	2592.441092
382.618371	2590.785073
383.003545	2591.800865
383.388657	2590.565782
383.773706	2593.824888
384.158693	2591.100145
384.543618	2591.631987
384.928480	2589.963365
385.313280	2594.081987
385.698017	2592.118458
386.082692	2592.935125
386.467305	2593.562748
386.851856	2596.899992
387.236344	2594.071905
387.620770	2592.746082
388.005133	2592.289857
388.389435	2592.267172
388.773674	2591.410176
389.157851	2595.170877
389.541965	2596.295054
389.926018	2597.320929
390.310008	2596.504262
390.693936	2598.876125
391.077802	2599.387802
391.461606	2598.251022
391.845348	2598.946701
392.229027	2599.949890
392.612645	2599.944849
392.996200	2598.041814
393.379694	2598.644232
393.763125	2599.997781
394.146494	2601.560539
394.529801	2599.302102
394.913047	2599.017277
395.296230	2601.691609
395.679351	2601.343769
396.062410	2599.965014
396.445408	2600.375868
396.828343	2601.830241
397.211217	2603.508945
397.594028	2603.617330
397.976778	2601.900817
398.359466	2601.545416
398.742092	2601.192535
399.124656	2602.979624
399.507158	2603.458533
399.889598	2606.581528
400.271977	2604.265118
400.654294	2604.116404
401.036549	2603.907196
401.418742	2603.834099
401.800874	2603.680344
402.182944	2603.824017
402.564952	2604.078595
402.946898	2607.231837
403.328783	2605.769902
403.710606	2605.631271
404.092367	2606.271497
404.474067	2606.417691
404.855705	2608.550099
405.237282	2606.389964
405.618797	2607.471292
406.000250	2606.432814
406.381642	2609.800305
406.762972	2607.216714
407.144240	2605.535489
407.525447	2607.693103
407.906593	2606.233689
408.287677	2609.346601
408.668700	2609.391972
409.049661	2611.385748
409.430560	2613.699637
409.811399	2610.508587
410.192176	2612.656119
410.572891	2612.267950
410.953545	2611.854575
411.334138	2616.704165
411.714669	2612.920779
412.095139	2613.762652
412.475547	2613.190481
412.855894	2613.563526
413.236180	2612.441870
413.616405	2612.913217
413.996568	2612.986314
414.376670	2612.698968
414.756711	2613.649226
415.136691	2615.307766
415.516609	2619.005452
415.896466	2616.247941
416.276262	2616.202570
416.655997	2616.333640
417.035670	2616.731892
417.415283	2618.944958
417.794834	2617.041922
418.174324	2617.440174
418.553753	2614.644854
418.933121	2618.264402
419.312428	2619.101234
419.691674	2623.164404
420.070859	2620.364043
420.449983	2618.665174
420.829045	2621.631893
421.208047	2620.878241
421.586988	2620.477469
421.965867	2620.089300
422.344686	2623.882768
422.723444	2622.796400
423.102141	2623.119033
423.480777	2622.415792
423.859352	2622.418313
424.237866	2621.533591
424.616319	2622.733385
424.994712	2629.349900
425.373044	2623.572737
425.751314	2625.135495
426.129524	2619.391100
426.507673	2624.371760
426.885762	2622.937552
427.263789	2627.487193
427.641756	2629.503655
428.019662	2626.078191
428.397508	2628.596247
428.775292	2629.362502
429.153016	2631.925929
429.530679	2631.623460
429.908282	2627.159518
430.285824	2632.097328
430.663305	2632.354427
431.040726	2634.159160
431.418086	2636.064717
431.795385	2633.584469
432.172624	2634.103708
432.549802	2634.696043
432.926920	2635.217803
433.303977	2635.051445
433.680974	2638.063534
434.057910	2638.461785
434.434786	2640.180819
434.811601	2639.359111
435.188355	2642.482105
435.565050	2643.097126
435.941683	2643.802888
436.318257	2644.619555
436.694770	2644.105357
437.071222	2645.088382
437.447614	2648.839000
437.823946	2650.434526
438.200218	2655.306801
438.576429	2650.784886
438.952580	2654.752274
439.328670	2658.545742
439.704700	2661.512461
440.080670	2664.310302
440.456580	2666.694767
440.832429	2671.859429
441.208218	2674.095181
441.583947	2681.697241
441.959616	2687.721420
442.335224	2690.572192
442.710773	2697.614684
443.086261	2708.480892
443.461689	2712.980121
443.837057	2727.029817
444.212365	2741.497929
444.587612	2748.558065
444.962800	2762.098604
445.337927	2778.220214
445.712995	2785.056018
446.088002	2823.920794
446.462949	2840.367558
446.837837	2862.402442
447.212664	2888.986967
447.587431	2933.565890
447.962139	2986.984477
448.336786	3121.668984
448.711374	3202.516489
449.085901	3141.579021
449.460369	3161.857063
449.834776	3180.146369
450.209124	3287.747277
450.583412	3378.674569
450.957640	3515.496526
451.331808	3516.214890
451.705917	3496.574555
452.079965	3499.790811
452.453954	3659.471879
452.827883	3699.720452
453.201752	3806.986123
453.575562	3830.669464
453.949311	3958.601346
454.323001	4039.988254
454.696632	4162.379908
455.070202	4305.175632
455.443713	4438.776291
455.817164	4627.857369
456.190556	4733.885437
456.563888	4919.835958
456.937160	5070.397580
457.310373	5034.673443
457.683526	5150.652749
458.056619	5168.647148
458.429653	5308.682840
458.802628	5302.525070
459.175542	5512.302605
459.548398	5876.914139
459.921194	6125.513600
460.293930	6273.612618
460.666607	6705.105140
461.039224	7184.145826
461.411782	7608.691638
461.784280	7741.982266
462.156719	7932.202645
462.529099	7943.769572
462.901419	7723.035089
463.273680	7798.927140
463.645882	7887.260758
464.018024	7925.684433
464.390106	8188.134464
464.762130	8676.977673
465.134094	9142.397161
465.505999	10188.003044
465.877845	11907.969119
466.249631	13572.200197
466.621358	13708.573491
466.993026	13261.539092
467.364634	13221.812279
467.736184	12710.238507
468.107674	12455.486318
468.479105	12731.333215
468.850477	12646.178045
469.221790	12588.305598
469.593043	12374.565717
469.964238	12264.802153
470.335373	12231.926268
470.706449	12666.209069
471.077467	12518.856143
471.448425	13857.615205
471.819324	16660.920200
472.190164	18367.902783
472.560945	16267.072494
472.931667	14767.142702
473.302330	14474.100429
473.672934	14241.710799
474.043479	14702.469740
474.413965	14725.785076
474.784393	14614.602428
475.154761	15250.286887
475.525070	15422.081848
475.895321	15271.888231
476.265513	15871.672113
476.635645	16460.738502
477.005719	16458.870754
477.375734	16747.328098
477.745691	17293.758928
478.115588	17823.939598
478.485427	18436.119677
478.855207	19436.902142
479.224928	21011.892194
479.594591	23039.179610
479.964194	23295.333240
480.333739	23712.581982
480.703226	23470.117606
481.072653	23321.499349
481.442022	23916.499176
481.811333	24822.709594
482.180584	24927.432003
482.549777	24183.645042
482.918912	23976.340192
483.287988	24185.278375
483.657005	24001.803061
484.025964	23817.672396
484.394864	23891.653849
484.763706	23706.154511
485.132489	23251.205500
485.501213	23468.499395
485.869879	23487.406243
486.238487	23323.029339
486.607036	23561.002048
486.975527	23294.493888
487.343959	23683.766747
487.712333	23716.630029
488.080648	23430.625206
488.448905	23925.227934
488.817104	23716.319998
489.185244	24392.119438
489.553326	24422.875518
489.921350	25371.487081
490.289315	27583.008506
490.657222	29415.818289
491.025070	29946.480390
491.392861	29787.709250
491.760593	28997.647016
492.128267	28157.664756
492.495883	27181.248709
492.863440	26324.819685
493.230939	25474.929037
493.598380	25353.399421
493.965763	24960.645646
494.333088	24551.883686
494.700354	24474.814526
495.067563	24401.546396
495.434713	24166.341281
495.801805	24305.109123
496.168839	24134.130828
496.535815	23960.095074
496.902733	24182.719990
497.269593	23856.776626
497.636395	24063.595004
498.003139	24061.981835
498.369825	23809.167969
498.736453	24001.792978
499.103023	23898.386310
499.469535	23923.886987
499.835989	24107.143011
500.202385	24151.076667
500.568723	23642.777125
500.935003	23936.152114
501.301226	23516.750799
501.667390	24337.715306
502.033497	24597.133083
502.399546	24315.395597
502.765537	23922.919085
503.131470	24295.694768
503.497345	24428.141003
503.863163	23637.340240
504.228923	24274.655513
504.594625	24451.050527
504.960269	23960.468120
505.325856	24470.975687
505.691385	23879.693712
506.056856	24482.265351
506.422270	24448.159425
506.787625	24051.987747
507.152924	24458.090498
507.518164	24465.579132
507.883347	24283.822851
508.248472	23977.529905
508.613540	24771.252016
508.978550	24531.202352
509.343503	24518.344889
509.708398	24797.521469
510.073236	24960.249915
510.438016	25158.200903
510.802738	24842.176010
511.167403	25106.531597
511.532010	24783.587720
511.896561	25558.682767
512.261053	25533.401381
512.625488	25375.754418
512.989866	25279.531394
513.354186	25129.554546
513.718449	25211.886671
514.082655	25604.083399
514.446803	25348.499420
514.810894	25801.615971
515.174927	25293.961697
515.538904	25313.717979
515.902822	25804.801981
516.266684	25544.456631
516.630488	25454.225019
516.994235	25451.848115
517.357925	25732.277421
517.721558	25928.645487
518.085133	26005.331519
518.448651	25941.810460
518.812112	25658.732027
519.175516	25852.430802
519.538863	26027.905806
519.902152	25786.875638
520.265385	26100.049758
520.628560	25880.353753
520.991678	25891.817337
521.354739	25962.653110
521.717743	26018.902305
522.080690	25814.148280
522.443580	26152.021534
522.806413	26156.873645
523.169189	26234.457002
523.531908	26285.904498
523.894569	25896.729942
524.257174	25976.788506
524.619722	26169.728587
524.982213	25854.306111
525.344647	25920.441009
525.707025	26052.231894
526.069345	26036.294286
526.431608	25989.635886
526.793815	26189.177358
527.155964	25627.136596
527.518057	25800.879963
527.880093	25724.017490
528.242072	25958.773942
528.603995	25665.651011
528.965860	25464.355217
529.327669	25519.218095
529.689421	25507.454562
530.051117	25337.217317
530.412755	25521.272365
530.774337	25311.860313
531.135862	25184.856004
531.497331	25395.064558
531.858743	24936.133035
532.220098	25426.279382
532.581396	25095.269659
532.942638	25052.878596
533.303824	25137.811956
533.664953	25156.292826
534.026025	24821.903009
534.387040	25062.686161
534.747999	25115.842608
535.108902	25284.055829
535.469748	24775.204281
535.830537	24953.945952
536.191270	25087.034934
536.551947	24972.106709
536.912567	24636.751511
537.273131	24941.998418
537.633638	24671.134701
537.994089	24871.621389
538.354483	24424.327370
538.714821	24924.636684
539.075103	24963.493897
539.435328	24735.371604
539.795497	24301.270284
540.155609	24705.165010
540.515665	24990.398536
540.875665	24242.049329
541.235609	24510.732747
541.595496	24492.143492
541.955328	24840.325906
542.315102	24760.532003
542.674821	24325.735004
543.034483	24209.727972
543.394090	24374.936665
543.753640	24151.139682
544.113134	24785.757936
544.472571	24388.396546
544.831953	24670.746532
545.191278	24288.735455
545.550548	24218.066040
545.909761	24431.294245
546.268918	24644.335927
546.628019	24621.930519
546.987064	24336.414688
547.346053	24084.757768
547.704986	24202.577095
548.063863	24369.729153
548.422684	24359.253636
548.781449	23913.204782
549.140158	24312.532222
549.498811	23887.066399
549.857408	23632.644406
550.215949	24065.818153
550.574434	23747.867538
550.932864	23965.453821
551.291237	24109.139308
551.649555	23981.741789
552.007817	24028.561505
552.366022	23899.092072
552.724173	23945.606798
553.082267	23893.299786
553.440305	24365.802095
553.798288	23622.325164
554.156215	24143.459484
554.514086	24233.040787
554.871902	23594.097223
555.229661	23896.137955
555.587365	23759.104270
555.945014	23601.258182
556.302606	23859.282080
556.660143	23802.806033
557.017625	24055.297265
557.375050	23590.293672
557.732421	23982.568538
558.089735	23792.587614
558.446994	23856.073385
558.804197	23868.424212
559.161345	23833.851979
559.518437	23575.596188
559.875474	23775.430047
560.232455	23951.028559
560.589381	23794.225989
560.946251	23755.149485
561.303065	24077.982457
561.659825	24172.073073
562.016528	23774.099183
562.373177	23507.618749
562.729770	23876.132136
563.086307	23732.534869
563.442789	23903.016610
563.799216	23732.020671
564.155587	23749.233691
564.511904	23718.255801
564.868164	23654.906141
565.224370	23636.707576
565.580520	23546.216343
565.936615	23680.613505
566.292654	23355.272559
566.648638	23668.965919
567.004567	23489.652077
567.360441	23427.020781
567.716260	23164.555627
568.072023	23492.759948
568.427732	23249.655345
568.783385	23045.160939
569.138982	23265.356019
569.494525	23303.517553
569.850013	23062.885636
570.205445	23152.504749
570.560823	22959.607517
570.916145	22721.105488
571.271412	22899.708527
571.626625	22645.977172
571.981782	22764.950923
572.336884	22564.181930
572.691931	22708.618550
573.046923	22432.375922
573.401860	22320.253098
573.756743	22323.063542
574.111570	22233.451991
574.466342	22174.984689
574.821059	22259.424016
575.175722	21962.389149
575.530330	21950.290379
575.884882	21972.375674
576.239380	21873.337166
576.593823	21772.405704
576.948211	21747.525089
577.302544	21595.030186
577.656823	21467.768777
578.011047	21557.284546
578.365216	21430.708735
578.719330	21327.639824
579.073389	21218.173689
579.427394	21367.767408
579.781344	21135.503807
580.135239	21025.818381
580.489080	20997.872745
580.842866	20753.507853
581.196597	20948.784509
581.550273	20932.108372
581.903895	20815.519087
582.257463	21126.490224
582.610975	20664.360089
582.964434	20964.747323
583.317837	20678.349291
583.671186	20766.660224
584.024481	20733.958259
584.377721	20508.142293
584.730906	20559.635159
585.084037	20591.318811
585.437113	20491.503965
585.790135	20696.711694
586.143103	20160.542132
586.496016	20174.717857
586.848874	20413.817263
587.201679	20357.058912
587.554428	20026.853253
587.907124	20353.870382
588.259765	20133.713112
588.612352	20212.725636
588.964884	19773.048801
589.317362	19958.298602
589.669786	20001.957515
590.022155	20054.990453
590.374470	20238.354863
590.726731	20036.897752
591.078937	19800.576021
591.431090	19896.128572
591.783188	19639.327154
592.135232	19619.482652
592.487222	19708.285097
592.839157	19747.948896
593.191038	19616.664647
593.542866	19502.190125
593.894639	19232.672397
594.246358	19439.737791
594.598022	19363.722232
594.949633	19109.549776
595.301190	19067.501511
595.652692	19226.600327
596.004141	19474.569643
596.355535	18811.327717
596.706876	18810.445515
597.058162	18703.782261
597.409395	18930.382127
597.760573	19018.055354
598.111698	18791.636970
598.462768	18736.123784
598.813785	18692.359007
599.164748	18514.305453
599.515657	18543.612201
599.866511	18341.235080
600.217312	18701.112970
600.568060	18221.532882
600.918753	18537.411582
601.269392	18439.978681
601.619978	18210.593578
601.970510	18431.660777
602.320988	18370.859420
602.671412	18580.581502
603.021783	18478.528384
603.372100	18217.366368
603.722363	18352.895268
604.072572	18293.795301
604.422728	18428.545344
604.772830	18198.525055
605.122878	18144.123444
605.472872	18128.392523
605.822813	18121.549157
606.172701	18087.854084
606.522534	18291.431000
606.872314	18309.674936
607.222041	18145.608063
607.571714	18360.096557
607.921333	18183.131892
608.270899	18263.051825
608.620411	18444.659392
608.969870	18206.961426
609.319276	18214.908805
609.668627	18239.376046
610.017926	18379.946100
610.367171	18488.656062
610.716362	18530.691723
611.065500	18357.901134
611.414585	18484.043406
611.763616	18472.012693
612.112594	18427.524510
612.461518	18383.948776
612.810389	18579.943797
613.159207	18432.704296
613.507971	18337.497064
613.856682	18622.813769
614.205340	18545.227891
614.553945	18696.424697
614.902496	18434.025078
615.250994	18669.494853
615.599439	18612.292881
615.947830	18607.836501
616.296169	18644.084918
616.644454	18619.945352
616.992686	18582.963448
617.340864	18798.823135
617.688990	18567.605572
618.037063	18735.733094
618.385082	18576.185616
618.733048	18871.151090
619.080961	18721.554849
619.428821	18768.341798
619.776628	18655.162853
620.124382	18575.258044
620.472083	18618.387636
620.819731	18644.578951
621.167326	18333.383483
621.514868	18372.712044
621.862357	18125.660218
622.209793	18151.594434
622.557176	17975.184296
622.904506	17801.571999
623.251783	17719.766675
623.599007	17487.306468
623.946179	17427.921676
624.293297	17366.129732
624.640363	17126.690048
624.987376	17144.424827
625.334336	16931.080676
625.681243	16778.792459
626.028097	16797.492620
626.374899	16715.485649
626.721647	16583.568736
627.068343	16418.929692
627.414987	16356.154724
627.761577	16328.536763
628.108115	16369.891868
628.454600	16092.383911
628.801032	16186.000658
629.147412	16117.869464
629.493739	16137.356044
629.840014	15943.047290
630.186236	16053.239351
630.532405	15806.237936
630.878521	16010.318967
631.224585	15896.245217
631.570597	15723.373970
631.916556	15768.472132
632.262462	15740.319808
632.608316	15654.771427
632.954117	15605.428614
633.299866	15603.003819
633.645562	15519.736560
633.991206	15268.959321
634.336797	15132.167611
634.682336	15112.721360
635.027823	14996.613505
635.373257	14876.873498
635.718639	14773.759217
636.063968	14726.740375
636.409245	14487.698942
636.754470	14507.755172
637.099642	14356.293705
637.444762	14132.249705
