Dividing Wavelength (nm)	Counts (n)	Blue Motor Position (mm): 27.500000	Red Motor Position (mm): 0.000000	
326.493990	2205.519931
326.888308	2205.519931
327.282561	2205.519931
327.676750	2165.331853
328.070874	2162.017294
328.464933	2163.701039
328.858929	2165.099960
329.252859	2170.133552
329.646726	2180.823318
330.040528	2192.846470
330.434265	2208.058152
330.827938	2223.731099
331.221547	2240.654253
331.615091	2256.528846
332.008571	2274.364449
332.401986	2293.397325
332.795338	2312.374749
333.188625	2331.780670
333.581847	2349.439832
333.975006	2368.918851
334.368100	2388.657489
334.761129	2406.072155
335.154095	2426.009918
335.546996	2449.501695
335.939833	2486.155925
336.332606	2499.535147
336.725315	2512.216169
337.117960	2529.179652
337.510540	2538.362114
337.903056	2548.509957
338.295508	2560.822975
338.687896	2570.877556
339.080220	2572.888977
339.472480	2582.459607
339.864676	2588.241811
340.256807	2594.651638
340.648875	2597.792277
341.040879	2599.125662
341.432818	2600.922833
341.824694	2604.998606
342.216506	2604.915427
342.608253	2607.065479
342.999937	2606.032042
343.391557	2604.451641
343.783113	2605.318719
344.174605	2603.047679
344.566033	2605.207814
344.957397	2602.147833
345.348697	2602.563729
345.739934	2601.736979
346.131106	2599.339911
346.522215	2597.850250
346.913260	2595.695157
347.304241	2594.606267
347.695159	2590.114599
348.086012	2590.220463
348.476802	2588.181317
348.867528	2583.878692
349.258191	2581.466500
349.648789	2579.749987
350.039324	2574.300500
350.429796	2581.466500
350.820203	2576.616910
351.210548	2576.052301
351.600828	2577.073134
351.991045	2573.670355
352.381198	2574.570201
352.771288	2572.001733
353.161314	2572.077351
353.551276	2572.465520
353.941175	2572.339491
354.331010	2570.456620
354.720782	2572.037022
355.110490	2572.571384
355.500135	2571.066599
355.889717	2571.507700
356.279235	2570.365879
356.668689	2572.445355
357.058080	2571.520303
357.447408	2571.598441
357.836672	2571.923596
358.225873	2571.343863
358.615010	2575.354101
359.004084	2573.650191
359.393095	2573.698082
359.782043	2576.248906
360.170927	2578.225038
360.559748	2574.681107
360.948505	2575.369224
361.337199	2579.286201
361.725830	2575.560788
362.114398	2576.848803
362.502903	2574.245047
362.891344	2577.983062
363.279722	2579.306365
363.668037	2578.182188
364.056289	2581.615214
364.444478	2581.111098
364.832603	2578.734194
365.220665	2583.311562
365.608665	2581.542117
365.996601	2583.729978
366.384474	2583.558579
366.772284	2583.354412
367.160031	2585.053281
367.547715	2583.513208
367.935336	2581.443815
368.322893	2580.508681
368.710388	2580.054977
369.097820	2584.428178
369.485189	2580.246541
369.872495	2586.648806
370.259738	2586.356419
370.646918	2584.521439
371.034035	2586.248034
371.421090	2588.009917
371.808081	2585.776686
372.195010	2585.310380
372.581875	2587.858683
372.968678	2589.333220
373.355418	2589.245000
373.742096	2588.897161
374.128710	2589.658375
374.515262	2589.489496
374.901751	2592.458736
375.288177	2593.116606
375.674540	2591.599219
376.060841	2589.570155
376.447079	2591.178283
376.833254	2589.834815
377.219367	2592.297419
377.605417	2591.763057
377.991404	2590.568303
378.377329	2591.606781
378.763191	2592.012594
379.148991	2594.601226
379.534727	2592.436051
379.920402	2591.873962
380.306013	2594.515527
380.691563	2596.612647
381.077049	2595.574169
381.462474	2591.679877
381.847835	2594.099631
382.233134	2593.159456
382.618371	2594.074426
383.003545	2598.329159
383.388657	2596.363109
383.773706	2595.911926
384.158693	2595.939652
384.543618	2596.930239
384.928480	2598.308995
385.313280	2599.430652
385.698017	2597.394025
386.082692	2597.439396
386.467305	2599.589448
386.851856	2600.973245
387.236344	2598.964345
387.620770	2595.811103
388.005133	2595.213726
388.389435	2593.822368
388.773674	2594.510485
389.157851	2599.493666
389.541965	2600.524582
389.926018	2600.879983
390.310008	2602.961980
390.693936	2602.117587
391.077802	2601.477360
391.461606	2602.828389
391.845348	2603.279572
392.229027	2602.992227
392.612645	2600.852257
392.996200	2603.324943
393.379694	2604.282762
393.763125	2604.756631
394.146494	2603.090529
394.529801	2603.884511
394.913047	2603.990375
395.296230	2604.834768
395.679351	2602.891404
396.062410	2607.922475
396.445408	2607.625047
396.828343	2604.043307
397.211217	2605.036415
397.594028	2607.693103
397.976778	2607.725870
398.359466	2609.011364
398.742092	2606.311827
399.124656	2606.876436
399.507158	2607.277207
399.889598	2609.848196
400.271977	2607.418360
400.654294	2607.635129
401.036549	2608.524893
401.418742	2610.511108
401.800874	2609.543206
402.182944	2608.683689
402.564952	2610.322064
402.946898	2609.361725
403.328783	2610.102774
403.710606	2611.504215
404.092367	2613.036726
404.474067	2610.964812
404.855705	2613.382045
405.237282	2612.353649
405.618797	2612.540172
406.000250	2616.179885
406.381642	2613.613938
406.762972	2614.012189
407.144240	2610.899277
407.525447	2612.444390
407.906593	2609.986828
408.287677	2615.579988
408.668700	2615.706017
409.049661	2615.698455
409.430560	2615.680811
409.811399	2616.663836
410.192176	2618.418157
410.572891	2616.986470
410.953545	2619.451594
411.334138	2619.020575
411.714669	2616.255502
412.095139	2617.132663
412.475547	2619.343209
412.855894	2616.651233
413.236180	2620.737088
413.616405	2621.079887
413.996568	2618.312293
414.376670	2618.753394
414.756711	2619.323045
415.136691	2621.873868
415.516609	2622.597274
415.896466	2622.100720
416.276262	2622.309928
416.655997	2622.672891
417.035670	2620.885802
417.415283	2624.122223
417.794834	2623.542490
418.174324	2625.579117
418.553753	2624.457460
418.933121	2625.977368
419.312428	2624.873355
419.691674	2624.558283
420.070859	2627.020887
420.449983	2627.656072
420.829045	2628.054323
421.208047	2630.859725
421.586988	2628.976854
421.965867	2626.766308
422.344686	2630.935342
422.723444	2631.081536
423.102141	2629.670013
423.480777	2631.106742
423.859352	2629.871659
424.237866	2633.493728
424.616319	2632.190590
424.994712	2632.858543
425.373044	2635.782412
425.751314	2631.943573
426.129524	2630.824437
426.507673	2629.995167
426.885762	2633.854171
427.263789	2638.297948
427.641756	2637.773668
428.019662	2640.884060
428.397508	2639.583442
428.775292	2640.879018
429.153016	2640.765592
429.530679	2643.502939
429.908282	2644.569143
430.285824	2642.101498
430.663305	2643.918834
431.040726	2644.889256
431.418086	2644.543937
431.795385	2648.244144
432.172624	2647.366983
432.549802	2648.130718
432.926920	2653.123981
433.303977	2653.076090
433.680974	2656.017603
434.057910	2660.342913
434.434786	2657.492141
434.811601	2662.066988
435.188355	2666.084788
435.565050	2666.324242
435.941683	2669.623678
436.318257	2682.269412
436.694770	2684.066583
437.071222	2690.337779
437.447614	2699.021166
437.823946	2704.763041
438.200218	2714.076572
438.576429	2722.207953
438.952580	2738.190932
439.328670	2755.930752
439.704700	2764.969541
440.080670	2782.258178
440.456580	2807.612661
440.832429	2824.717296
441.208218	2838.366220
441.583947	2870.692619
441.959616	2904.654873
442.335224	2927.075405
442.710773	2964.173256
443.086261	3006.665142
443.461689	3015.794671
443.837057	3087.863007
444.212365	3145.644712
444.587612	3172.627488
444.962800	3240.935122
445.337927	3280.243520
445.712995	3304.662869
446.088002	3457.019141
446.462949	3496.882065
446.837837	3559.924214
447.212664	3634.213178
447.587431	3771.572018
447.962139	3945.638019
448.336786	4358.448025
448.711374	4584.979835
449.085901	4343.896734
449.460369	4354.599104
449.834776	4368.074108
450.209124	4632.215446
450.583412	4831.431764
450.957640	5158.080889
451.331808	5099.704328
451.705917	4978.552798
452.079965	4925.388789
452.453954	5276.172438
452.827883	5293.571981
453.201752	5495.671839
453.575562	5482.249767
453.949311	5713.137133
454.323001	5827.810780
454.696632	6032.128746
455.070202	6264.417553
455.443713	6480.793959
455.817164	6792.241484
456.190556	6930.512773
456.563888	7229.012095
456.937160	7446.366484
457.310373	7314.973850
457.683526	7481.946948
458.056619	7431.255625
458.429653	7639.641802
458.802628	7542.251751
459.175542	7848.600149
459.548398	8444.812374
459.921194	8775.484340
460.293930	8937.055841
460.666607	9571.172501
461.039224	10272.986816
461.411782	10848.837820
461.784280	10994.176806
462.156719	11219.844058
462.529099	11200.448218
462.901419	10745.567263
463.273680	10797.208843
463.645882	10852.134734
464.018024	10829.605818
464.390106	11127.810233
464.762130	11779.472628
465.134094	12385.641132
465.505999	13817.180110
465.877845	16175.631005
466.249631	18455.535681
466.621358	18581.372964
466.993026	17820.990523
467.364634	17636.968243
467.736184	16787.594314
468.107674	16326.386710
468.479105	16574.663537
468.850477	16325.045763
469.221790	16149.348949
469.593043	15753.938485
469.964238	15479.939171
470.335373	15335.293344
470.706449	15777.208452
471.077467	15499.314846
471.448425	17116.370806
471.819324	20656.657206
472.190164	22683.052338
472.560945	19848.799699
472.931667	17798.854817
473.302330	17315.438410
473.672934	16925.497598
474.043479	17376.786732
474.413965	17300.360319
474.784393	17057.560705
475.154761	17744.758195
475.525070	17852.268362
475.895321	17572.459118
476.265513	18192.740331
476.635645	18804.539803
477.005719	18678.334517
477.375734	18927.841385
477.745691	19446.261044
478.115588	19974.153031
478.485427	20524.296670
478.855207	21561.866955
479.224928	23258.656325
479.594591	25446.169255
479.964194	25623.549815
480.333739	25897.927216
480.703226	25520.536356
481.072653	25230.977521
481.442022	25797.111700
481.811333	26715.778810
482.180584	26699.258949
482.549777	25815.758928
482.918912	25477.134542
483.287988	25611.272084
483.657005	25343.748132
484.025964	25078.303656
484.394864	25069.350567
484.763706	24790.884790
485.132489	24221.632656
485.501213	24411.979064
485.869879	24343.885678
486.238487	24141.909329
486.607036	24323.645446
486.975527	24007.330686
487.343959	24349.428427
487.712333	24328.716846
488.080648	24019.868035
488.448905	24472.382169
488.817104	24235.508432
489.185244	24887.982454
489.553326	24876.871751
489.921350	25818.702962
490.289315	28057.464262
490.657222	29899.078420
491.025070	30376.579033
491.392861	30187.891165
491.760593	29366.170486
492.128267	28483.391350
492.495883	27462.393859
492.863440	26575.980052
493.230939	25709.146086
493.598380	25545.124584
493.965763	25165.379506
494.333088	24732.241047
494.700354	24644.615711
495.067563	24539.900863
495.434713	24291.006495
495.801805	24427.495735
496.168839	24271.315748
496.535815	24074.867024
496.902733	24288.246463
497.269593	23960.314364
497.636395	24159.026567
498.003139	24151.643797
498.369825	23887.257963
498.736453	24077.153187
499.103023	23964.669921
499.469535	23993.810311
499.835989	24184.393653
500.202385	24215.331214
500.568723	23722.316450
500.935003	23988.040711
501.301226	23582.429472
501.667390	24402.887343
502.033497	24636.789320
502.399546	24369.981211
502.765537	23963.696979
503.131470	24341.758311
503.497345	24477.446008
503.863163	23685.838661
504.228923	24319.667975
504.594625	24498.061807
504.960269	24006.819009
505.325856	24507.929866
505.691385	23929.195322
506.056856	24531.083885
506.422270	24497.759338
506.787625	24098.555406
507.152924	24493.169367
507.518164	24515.234497
507.883347	24326.929757
508.248472	24029.189129
508.613540	24803.341481
508.978550	24579.350413
509.343503	24555.188162
509.708398	24831.377858
510.073236	24996.866336
510.438016	25196.858991
510.802738	24894.069647
511.167403	25128.868949
511.532010	24826.843340
511.896561	25610.316786
512.261053	25571.721712
512.625488	25410.230869
512.989866	25311.920807
513.354186	25172.956360
513.718449	25259.434834
514.082655	25639.958770
514.446803	25380.699790
514.810894	25829.705281
515.174927	25322.955893
515.538904	25347.145870
515.902822	25841.287332
516.266684	25595.735248
516.630488	25498.095660
516.994235	25491.290102
517.357925	25771.795026
517.721558	25958.537008
518.085133	26049.650823
518.448651	25980.682797
518.812112	25692.331318
519.175516	25888.134774
519.538863	26058.167852
519.902152	25827.983727
520.265385	26137.780274
520.628560	25912.014720
520.991678	25938.168226
521.354739	26006.556519
521.717743	26056.776494
522.080690	25848.491140
522.443580	26187.501175
522.806413	26185.109147
523.169189	26279.756811
523.531908	26332.880490
523.894569	25938.059841
524.257174	26000.998647
524.619722	26205.240995
524.982213	25875.103392
525.344647	25948.157272
525.707025	26074.009678
526.069345	26068.615644
526.431608	26022.504209
526.793815	26216.286163
527.155964	25658.563149
527.518057	25842.555182
527.880093	25755.623004
528.242072	25996.033111
528.603995	25697.059920
528.965860	25499.139179
529.327669	25549.497785
529.689421	25547.715737
530.051117	25364.041297
530.412755	25551.443671
530.774337	25355.052920
531.135862	25222.974689
531.497331	25423.252169
531.858743	24950.966630
532.220098	25454.295595
532.581396	25130.053621
532.942638	25077.005559
533.303824	25166.367572
533.664953	25187.661406
534.026025	24848.580796
534.387040	25091.415697
534.747999	25153.235367
535.108902	25302.065352
535.469748	24793.085253
535.830537	25002.396482
536.191270	25098.715288
536.551947	24993.337528
536.912567	24656.565766
537.273131	24967.352901
537.633638	24689.726476
537.994089	24905.084568
538.354483	24445.840494
538.714821	24937.736122
539.075103	24997.458672
539.435328	24778.874241
539.795497	24323.085877
540.155609	24730.421191
540.515665	25028.063517
540.875665	24267.928093
541.235609	24551.656834
541.595496	24517.054354
541.955328	24876.430650
542.315102	24792.344204
542.674821	24353.718449
543.034483	24219.838006
543.394090	24391.663214
543.753640	24177.623383
544.113134	24814.439581
544.472571	24406.668208
544.831953	24693.620768
545.191278	24311.307222
545.550548	24246.979578
545.909761	24461.624347
546.268918	24678.288098
546.628019	24642.873992
546.987064	24351.303736
547.346053	24106.722075
547.704986	24228.977617
548.063863	24385.228181
548.422684	24393.044490
548.781449	23945.684936
549.140158	24345.037582
549.498811	23924.703654
549.857408	23652.524196
550.215949	24087.462347
550.574434	23768.281691
550.932864	23986.941739
551.291237	24132.431960
551.649555	24007.272713
552.007817	24060.426639
552.366022	23926.155506
552.724173	23967.576147
553.082267	23902.318410
553.440305	24389.193048
553.798288	23648.720645
554.156215	24178.608929
554.514086	24256.688840
554.871902	23621.737869
555.229661	23901.068204
555.587365	23777.597743
555.945014	23625.536379
556.302606	23883.772005
556.660143	23819.814886
557.017625	24078.836932
557.375050	23617.752837
557.732421	24007.197095
558.089735	23807.658144
558.446994	23884.926429
558.804197	23903.813112
559.161345	23863.937585
559.518437	23595.992697
559.875474	23800.285456
560.232455	23979.571572
560.589381	23807.698473
560.946251	23785.144351
561.303065	24100.468524
561.659825	24180.491800
562.016528	23794.795640
562.373177	23544.051168
562.729770	23884.742427
563.086307	23768.758080
563.442789	23926.400002
563.799216	23756.026646
564.155587	23772.261682
564.511904	23755.356172
564.868164	23678.128216
565.224370	23663.188757
565.580520	23571.142329
565.936615	23704.533780
566.292654	23385.048134
566.648638	23693.050032
567.004567	23504.047092
567.360441	23460.652839
567.716260	23185.907434
568.072023	23524.539382
568.427732	23277.878245
568.783385	23063.372107
569.138982	23302.915135
569.494525	23330.515453
569.850013	23076.484149
570.205445	23172.319004
570.560823	22983.477381
570.916145	22747.445517
571.271412	22915.515065
571.626625	22675.609074
571.981782	22796.173310
572.336884	22582.491401
572.691931	22726.819636
573.046923	22465.773566
573.401860	22346.986337
573.756743	22345.600020
574.111570	22257.092482
574.466342	22198.668029
574.821059	22282.636008
575.175722	21997.929283
575.530330	21973.217547
575.884882	21992.946103
576.239380	21897.640569
576.593823	21790.679887
576.948211	21762.625866
577.302544	21620.835852
577.656823	21494.365905
578.011047	21579.092578
578.365216	21461.895833
578.719330	21338.606854
579.073389	21242.703943
579.427394	21386.964122
579.781344	21171.842964
580.135239	21040.919158
580.489080	21013.911176
580.842866	20783.515322
581.196597	20971.968776
581.550273	20944.015578
581.903895	20846.171823
582.257463	21162.937766
582.610975	20682.598983
582.964434	20991.407465
583.317837	20703.595389
583.671186	20793.746343
584.024481	20754.531208
584.377721	20532.939729
584.730906	20594.973647
585.084037	20615.314703
585.437113	20514.068169
585.790135	20718.980991
586.143103	20184.737150
586.496016	20200.591579
586.848874	20441.488157
587.201679	20385.196112
587.554428	20038.321878
587.907124	20377.742766
588.259765	20167.894655
588.612352	20244.505070
588.964884	19797.813469
589.317362	19967.173553
589.669786	20029.648573
590.022155	20078.199925
590.374470	20262.073491
590.726731	20061.100332
591.078937	19817.489092
591.431090	19925.689898
591.783188	19659.832047
592.135232	19633.421442
592.487222	19735.678727
592.839157	19761.660834
593.191038	19643.791096
593.542866	19524.424134
593.894639	19246.331403
594.246358	19477.513677
594.598022	19380.289984
594.949633	19136.247726
595.301190	19090.940356
595.652692	19262.526110
596.004141	19496.906996
596.355535	18826.793977
596.706876	18843.525567
597.058162	18728.161281
597.409395	18955.860118
597.760573	19034.764258
598.111698	18820.303491
598.462768	18746.846318
598.813785	18719.157781
599.164748	18529.912865
599.515657	18569.183454
599.866511	18355.965331
600.217312	18724.917299
600.568060	18241.891581
600.918753	18556.472184
601.269392	18461.577504
601.619978	18237.379749
601.970510	18456.904355
602.320988	18393.569818
602.671412	18603.687631
603.021783	18506.647940
603.372100	18244.180265
603.722363	18379.225215
604.072572	18316.649372
604.422728	18452.024518
604.772830	18217.056337
605.122878	18160.880239
605.472872	18149.341038
605.822813	18147.765677
606.172701	18107.635572
606.522534	18316.477973
606.872314	18340.015120
607.222041	18172.817691
607.571714	18383.507675
607.921333	18207.158031
608.270899	18286.735165
608.620411	18468.993042
608.969870	18226.821052
609.319276	18246.113548
609.668627	18267.750180
610.017926	18412.650586
610.367171	18520.067492
610.716362	18570.902487
611.065500	18382.869969
611.414585	18509.387807
611.763616	18502.332713
612.112594	18443.104196
612.461518	18419.115865
612.810389	18605.247868
613.159207	18460.481053
613.507971	18369.702475
613.856682	18648.412748
614.205340	18572.772755
614.553945	18723.556187
614.902496	18456.964848
615.250994	18704.825780
615.599439	18638.816912
615.947830	18635.560326
616.296169	18678.021965
616.644454	18646.182038
616.992686	18618.070043
617.340864	18835.006017
617.688990	18594.212783
618.037063	18758.509027
618.385082	18612.350854
618.733048	18891.978617
619.080961	18760.338966
619.428821	18803.357653
619.776628	18684.822482
620.124382	18611.249362
620.472083	18649.723448
620.819731	18671.032405
621.167326	18366.284573
621.514868	18406.303773
621.862357	18170.541610
622.209793	18179.106531
622.557176	18001.501640
622.904506	17845.941714
623.251783	17757.411491
623.599007	17517.860901
623.946179	17454.828834
624.293297	17404.931493
624.640363	17151.847926
624.987376	17175.516144
625.334336	16971.155328
625.681243	16811.126420
626.028097	16817.296793
626.374899	16754.965446
626.721647	16620.422091
627.068343	16455.876309
627.414987	16378.658435
627.761577	16361.853748
628.108115	16398.021507
628.454600	16124.627131
628.801032	16218.208590
629.147412	16145.497507
629.493739	16161.651885
629.840014	15982.252343
630.186236	16078.929071
630.532405	15840.641290
630.878521	16047.885646
631.224585	15935.568738
631.570597	15759.609783
631.916556	15792.672191
632.262462	15768.819972
632.608316	15679.120201
632.954117	15631.962727
633.299866	15623.382683
633.645562	15545.859819
633.991206	15293.343382
634.336797	15164.065512
634.682336	15135.071316
635.027823	15027.664492
635.373257	14901.260080
635.718639	14808.946471
636.063968	14759.109624
636.409245	14508.836500
636.754470	14538.901941
637.099642	14383.659609
