Dividing Wavelength (nm)	Counts (n)	Blue Motor Position (mm): 32.200000	Red Motor Position (mm): 0.000000	
326.493990	2218.011910
326.888308	2218.011910
327.282561	2218.011910
327.676750	2179.252999
328.070874	2176.049346
328.464933	2175.623368
328.858929	2180.157886
329.252859	2182.993535
329.646726	2193.731193
330.040528	2206.848275
330.434265	2217.964019
330.827938	2238.022771
331.221547	2252.947107
331.615091	2272.718512
332.008571	2289.001439
332.401986	2308.021712
332.795338	2328.428303
333.188625	2347.952692
333.581847	2366.103366
333.975006	2382.018289
334.368100	2403.483522
334.761129	2420.618404
335.154095	2437.423090
335.546996	2465.557770
335.939833	2501.831393
336.332606	2519.722447
336.725315	2530.568490
337.117960	2545.026519
337.510540	2553.165462
337.903056	2566.131310
338.295508	2576.493402
338.687896	2583.004052
339.080220	2591.107707
339.472480	2599.995261
339.864676	2602.331836
340.256807	2609.036570
340.648875	2613.316510
341.040879	2615.436315
341.432818	2619.328086
341.824694	2621.132819
342.216506	2621.931842
342.608253	2624.885958
342.999937	2623.464352
343.391557	2623.431585
343.783113	2622.078035
344.174605	2625.218674
344.566033	2618.239197
344.957397	2621.347068
345.348697	2618.914711
345.739934	2618.322376
346.131106	2615.053187
346.522215	2614.864144
346.913260	2610.460696
347.304241	2609.633947
347.695159	2607.448607
348.086012	2608.045983
348.476802	2603.513986
348.867528	2600.028028
349.258191	2598.379571
349.648789	2597.472163
350.039324	2592.733479
350.429796	2596.660537
350.820203	2595.001998
351.210548	2594.916298
351.600828	2593.393870
351.991045	2591.639548
352.381198	2591.828592
352.771288	2591.047213
353.161314	2588.632500
353.551276	2589.917994
353.941175	2591.276585
354.331010	2590.530494
354.720782	2588.332551
355.110490	2586.290884
355.500135	2585.706110
355.889717	2586.626121
356.279235	2588.430854
356.668689	2589.166862
357.058080	2586.767273
357.447408	2588.002356
357.836672	2591.261462
358.225873	2588.806420
358.615010	2590.230546
359.004084	2590.810278
359.393095	2593.376226
359.782043	2592.615012
360.170927	2590.785073
360.559748	2593.754312
360.948505	2595.627101
361.337199	2593.524940
361.725830	2595.979982
362.114398	2594.273551
362.502903	2593.338417
362.891344	2596.907554
363.279722	2595.183479
363.668037	2593.920670
364.056289	2597.862853
364.444478	2597.078953
364.832603	2594.366812
365.220665	2598.641711
365.608665	2600.655652
365.996601	2599.491145
366.384474	2599.952411
366.772284	2596.700867
367.160031	2600.983327
367.547715	2602.165477
367.935336	2602.367124
368.322893	2599.864191
368.710388	2598.064499
369.097820	2600.338059
369.485189	2595.213726
369.872495	2604.761672
370.259738	2603.430807
370.646918	2604.166816
371.034035	2603.085488
371.421090	2605.938781
371.808081	2607.010026
372.195010	2605.175046
372.581875	2602.825869
372.968678	2604.638163
373.355418	2608.829883
373.742096	2606.042125
374.128710	2605.240581
374.515262	2607.100767
374.901751	2607.415839
375.288177	2609.510439
375.674540	2610.027157
376.060841	2606.967177
376.447079	2606.941971
376.833254	2609.371807
377.219367	2605.664038
377.605417	2609.560850
377.991404	2610.957250
378.377329	2608.920624
378.763191	2612.313320
379.148991	2612.199894
379.534727	2612.363732
379.920402	2609.460027
380.306013	2610.022116
380.691563	2612.625872
381.077049	2609.344081
381.462474	2614.259206
381.847835	2613.193002
382.233134	2615.285080
382.618371	2612.595625
383.003545	2612.310800
383.388657	2613.054370
383.773706	2613.157713
384.158693	2615.237189
384.543618	2613.853393
384.928480	2615.509412
385.313280	2614.196191
385.698017	2616.905811
386.082692	2616.371449
386.467305	2618.156017
386.851856	2618.239197
387.236344	2617.972015
387.620770	2613.946654
388.005133	2613.707199
388.389435	2615.310286
388.773674	2612.104112
389.157851	2620.865638
389.541965	2619.877572
389.926018	2619.431429
390.310008	2624.165073
390.693936	2622.647686
391.077802	2622.065432
391.461606	2625.090125
391.845348	2623.539970
392.229027	2622.909826
392.612645	2620.933693
392.996200	2625.304374
393.379694	2623.887809
393.763125	2625.158180
394.146494	2625.223715
394.529801	2628.346710
394.913047	2627.431741
395.296230	2628.329066
395.679351	2625.490896
396.062410	2628.694550
396.445408	2628.568521
396.828343	2628.412245
397.211217	2630.279992
397.594028	2630.852163
397.976778	2632.702267
398.359466	2631.172277
398.742092	2633.491207
399.124656	2632.987092
399.507158	2632.876187
399.889598	2634.811990
400.271977	2637.476240
400.654294	2634.544809
401.036549	2636.662093
401.418742	2634.839716
401.800874	2640.258957
402.182944	2636.059675
402.564952	2638.786940
402.946898	2637.645118
403.328783	2640.430356
403.710606	2639.094450
404.092367	2642.429173
404.474067	2639.868267
404.855705	2638.839872
405.237282	2640.659728
405.618797	2642.373721
406.000250	2646.177271
406.381642	2647.150214
406.762972	2642.134266
407.144240	2644.370017
407.525447	2645.504277
407.906593	2644.155768
408.287677	2649.509474
408.668700	2647.051911
409.049661	2650.432005
409.430560	2649.469145
409.811399	2651.934269
410.192176	2652.118271
410.572891	2651.967036
410.953545	2653.945689
411.334138	2655.258910
411.714669	2655.972233
412.095139	2658.270999
412.475547	2659.188489
412.855894	2665.371464
413.236180	2668.098729
413.616405	2670.258863
413.996568	2674.231292
414.376670	2678.811181
414.756711	2687.754187
415.136691	2698.713656
415.516609	2707.439893
415.896466	2721.660988
416.276262	2737.870818
416.655997	2759.464601
417.035670	2780.292128
417.415283	2811.799340
417.794834	2839.399657
418.174324	2862.606609
418.553753	2895.686660
418.933121	2944.767334
419.312428	2986.445073
419.691674	3019.116792
420.070859	3107.798249
420.449983	3136.565594
420.829045	3227.082032
421.208047	3270.768671
421.586988	3376.118704
421.965867	3447.110753
422.344686	3539.739434
422.723444	3625.693628
423.102141	3595.655913
423.480777	3805.423366
423.859352	3802.527223
424.237866	4022.034185
424.616319	4082.858226
424.994712	4271.530971
425.373044	4269.219602
425.751314	4487.065503
426.129524	4556.162079
426.507673	4706.161611
426.885762	4862.064335
427.263789	4939.249442
427.641756	5017.755331
428.019662	5175.951779
428.397508	5369.096027
428.775292	5362.350963
429.153016	5648.524664
429.530679	5686.053534
429.908282	5824.743238
430.285824	5799.623169
430.663305	6239.461321
431.040726	6096.763900
431.418086	6190.181522
431.795385	6476.990408
432.172624	6635.096116
432.549802	6702.907197
432.926920	6869.141766
433.303977	6903.270377
433.680974	7130.855788
434.057910	7305.113353
434.434786	7448.312369
434.811601	7475.592573
435.188355	7956.601829
435.565050	7877.110395
435.941683	7935.320598
436.318257	8402.590190
436.694770	8585.440401
437.071222	8763.599819
437.447614	8747.173220
437.823946	8757.048840
438.200218	8982.118715
438.576429	8911.731605
438.952580	9186.902987
439.328670	9330.475049
439.704700	9222.135612
440.080670	9291.617835
440.456580	9861.477427
440.832429	9705.975475
441.208218	9426.781252
441.583947	9791.246593
441.959616	9975.183173
442.335224	9864.108910
442.710773	10053.086644
443.086261	10285.483836
443.461689	9689.072487
443.837057	10316.965842
444.212365	10643.766202
444.587612	10352.243837
444.962800	10611.752354
445.337927	10445.369072
445.712995	10044.186487
446.088002	11134.046140
446.462949	10817.035701
446.837837	10820.216669
447.212664	10869.110820
447.587431	11354.984789
447.962139	12056.292468
448.336786	14263.460857
448.711374	14865.659451
449.085901	12788.797328
449.460369	12412.515523
449.834776	11903.658933
450.209124	12733.581570
450.583412	13147.039364
450.957640	14109.652733
451.331808	13324.830778
451.705917	12296.369859
452.079965	11645.957669
452.453954	12529.871064
452.827883	12163.328767
453.201752	12454.447840
453.575562	11979.135088
453.949311	12393.558264
454.323001	12344.827950
454.696632	12573.487127
455.070202	12861.505890
455.443713	13126.022794
455.817164	13572.008634
456.190556	13581.549017
456.563888	13944.638123
456.937160	14132.884890
457.310373	13461.120893
457.683526	13533.930278
458.056619	13098.152775
458.429653	13224.524420
458.802628	12690.562884
459.175542	13044.328375
459.548398	13991.140247
459.921194	14324.978057
460.293930	14373.582342
460.666607	15274.534837
461.039224	16301.458205
461.411782	16990.977145
461.784280	16900.473310
462.156719	16931.859534
462.529099	16632.450284
462.901419	15554.006324
463.273680	15352.458472
463.645882	15210.066041
464.018024	14949.128356
464.390106	15167.748075
464.762130	15897.800413
465.134094	16634.368443
465.505999	18600.879708
465.877845	21858.382583
466.249631	24700.675862
466.621358	24408.465380
466.993026	22955.698102
467.364634	22406.698805
467.736184	20959.476797
468.107674	20161.164715
468.479105	20277.333064
468.850477	19749.151211
469.221790	19328.146809
469.593043	18649.055495
469.964238	18108.142208
470.335373	17761.537675
470.706449	18186.733797
471.077467	17728.336636
471.448425	19552.304236
471.819324	23533.106823
472.190164	25624.220288
472.560945	22116.749279
472.931667	19722.692715
473.302330	19082.650179
473.672934	18577.796265
474.043479	18944.280588
474.413965	18754.778574
474.784393	18375.550214
475.154761	19052.862001
475.525070	19060.103618
475.895321	18709.761070
476.265513	19289.375295
476.635645	19874.156703
477.005719	19658.236522
477.375734	19854.808754
477.745691	20338.681386
478.115588	20840.636636
478.485427	21354.826767
478.855207	22406.837436
479.224928	24152.278982
479.594591	26381.212552
479.964194	26453.401876
480.333739	26640.007747
480.703226	26200.540119
481.072653	25885.183179
481.442022	26441.015761
481.811333	27348.988062
482.180584	27285.686293
482.549777	26324.839850
482.918912	25977.771531
483.287988	26091.777225
483.657005	25784.833970
484.025964	25498.239333
484.394864	25430.879435
484.763706	25142.711958
485.132489	24549.756319
485.501213	24720.419541
485.869879	24635.803774
486.238487	24435.231386
486.607036	24593.669810
486.975527	24286.915599
487.343959	24616.128151
487.712333	24565.570419
488.080648	24223.233223
488.448905	24705.878333
488.817104	24454.473470
489.185244	25125.201510
489.553326	25103.587563
489.921350	26074.614617
490.289315	28339.083280
490.657222	30139.049946
491.025070	30635.336419
491.392861	30415.118654
491.760593	29575.025489
492.128267	28674.292285
492.495883	27654.013158
492.863440	26763.526098
493.230939	25889.994960
493.598380	25740.877629
493.965763	25334.606000
494.333088	24894.987137
494.700354	24819.561393
495.067563	24690.487690
495.434713	24454.198727
495.801805	24595.159471
496.168839	24420.909468
496.535815	24247.413117
496.902733	24468.263547
497.269593	24134.322392
497.636395	24319.093284
498.003139	24300.009996
498.369825	24045.840060
498.736453	24238.472631
499.103023	24118.513334
499.469535	24149.639938
499.835989	24348.233673
500.202385	24369.552713
500.568723	23869.208112
500.935003	24120.774291
501.301226	23736.270364
501.667390	24568.030502
502.033497	24812.392873
502.399546	24534.559761
502.765537	24107.876499
503.131470	24484.198634
503.497345	24625.355983
503.863163	23849.955945
504.228923	24457.568739
504.594625	24650.876824
504.960269	24172.105840
505.325856	24670.381048
505.691385	24077.528753
506.056856	24686.182545
506.422270	24642.304342
506.787625	24231.659511
507.152924	24640.025740
507.518164	24662.068186
507.883347	24460.505211
508.248472	24157.693182
508.613540	24933.176398
508.978550	24715.902668
509.343503	24713.119951
509.708398	24978.975281
510.073236	25137.640557
510.438016	25342.911301
510.802738	25013.038358
511.167403	25270.225424
511.532010	24961.842920
511.896561	25738.735139
512.261053	25700.954211
512.625488	25528.808890
512.989866	25447.532887
513.354186	25297.230885
513.718449	25391.266048
514.082655	25766.587514
514.446803	25511.200139
514.810894	25966.935571
515.174927	25455.094618
515.538904	25478.115047
515.902822	25981.025596
516.266684	25745.107157
516.630488	25645.675439
516.994235	25610.077331
517.357925	25910.832569
517.721558	26102.676200
518.085133	26194.223553
518.448651	26109.199453
518.812112	25833.871794
519.175516	26031.003595
519.538863	26193.258172
519.902152	25974.446890
520.265385	26261.898523
520.628560	26048.516563
520.991678	26060.305302
521.354739	26130.102597
521.717743	26190.367071
522.080690	25977.786654
522.443580	26325.613667
522.806413	26321.311042
523.169189	26408.724650
523.531908	26461.752547
523.894569	26066.208493
524.257174	26143.232282
524.619722	26322.614180
524.982213	26015.428950
525.344647	26077.084782
525.707025	26207.572529
526.069345	26190.107451
526.431608	26157.128223
526.793815	26339.590266
527.155964	25808.250130
527.518057	25970.479502
527.880093	25893.450671
528.242072	26121.701514
528.603995	25839.341446
528.965860	25622.781039
529.327669	25665.275445
529.689421	25666.013974
530.051117	25510.133935
530.412755	25673.255592
530.774337	25473.157072
531.135862	25341.461969
531.497331	25548.116509
531.858743	25111.660971
532.220098	25586.230153
532.581396	25263.674444
532.942638	25203.924168
533.303824	25298.090402
533.664953	25315.124461
534.026025	24976.847914
534.387040	25211.218718
534.747999	25285.001046
535.108902	25434.501504
535.469748	24925.208855
535.830537	25120.097342
536.191270	25239.860034
536.551947	25105.014209
536.912567	24755.276600
537.273131	25111.918070
537.633638	24801.400637
537.994089	25011.843604
538.354483	24562.528082
538.714821	25063.429731
539.075103	25102.985145
539.435328	24892.529575
539.795497	24445.190185
540.155609	24838.183416
540.515665	25133.952953
540.875665	24371.962385
541.235609	24665.733104
541.595496	24634.752693
541.955328	24986.849563
542.315102	24904.920731
542.674821	24443.695483
543.034483	24336.681869
543.394090	24501.832590
543.753640	24302.815398
544.113134	24925.075264
544.472571	24530.131107
544.831953	24813.877492
545.191278	24433.451859
545.550548	24349.010011
545.909761	24558.840478
546.268918	24779.181751
546.628019	24754.222998
546.987064	24460.532937
547.346053	24219.374219
547.704986	24334.443597
548.063863	24480.750485
548.422684	24492.584593
548.781449	24020.432645
549.140158	24428.561939
549.498811	24005.122660
549.857408	23760.921606
550.215949	24182.914074
550.574434	23860.696123
550.932864	24083.053858
551.291237	24239.196036
551.649555	24091.563325
552.007817	24154.507172
552.366022	24012.525595
552.724173	24063.620210
553.082267	24006.902188
553.440305	24475.570699
553.798288	23748.089349
554.156215	24245.618466
554.514086	24346.176883
554.871902	23724.380803
555.229661	24008.306149
555.587365	23862.072358
555.945014	23732.207194
556.302606	23975.863803
556.660143	23926.216000
557.017625	24173.998794
557.375050	23708.160890
557.732421	24097.126239
558.089735	23900.067535
558.446994	23975.125274
558.804197	23998.657381
559.161345	23944.994298
559.518437	23698.633109
559.875474	23901.597525
560.232455	24077.609412
560.589381	23908.866869
560.946251	23885.738055
561.303065	24204.500295
561.659825	24295.296517
562.016528	23891.633684
562.373177	23637.443584
562.729770	23991.244364
563.086307	23851.503579
563.442789	24011.270347
563.799216	23856.839641
564.155587	23852.277396
564.511904	23837.453883
564.868164	23774.903247
565.224370	23750.980451
565.580520	23667.919880
565.936615	23805.830725
566.292654	23492.865812
566.648638	23778.074132
567.004567	23601.931176
567.360441	23557.463158
567.716260	23290.213948
568.072023	23617.873825
568.427732	23367.121791
568.783385	23152.305623
569.138982	23381.284913
569.494525	23431.777110
569.850013	23168.490247
570.205445	23270.860959
570.560823	23075.125558
570.916145	22833.843332
571.271412	23001.791893
571.626625	22770.234053
571.981782	22880.660528
572.336884	22687.922093
572.691931	22821.981497
573.046923	22554.288666
573.401860	22445.354372
573.756743	22443.257252
574.111570	22344.780833
574.466342	22286.200104
574.821059	22371.526674
575.175722	22073.574317
575.530330	22063.912946
575.884882	22085.554619
576.239380	21991.794199
576.593823	21883.469885
576.948211	21865.472966
577.302544	21699.019107
577.656823	21574.492525
578.011047	21673.168070
578.365216	21549.334647
578.719330	21422.756315
579.073389	21318.744708
579.427394	21470.604426
579.781344	21238.532388
580.135239	21124.675408
580.489080	21096.024010
580.842866	20865.862570
581.196597	21050.489788
581.550273	21027.376098
581.903895	20920.901888
582.257463	21229.957386
582.610975	20757.419789
582.964434	21074.062224
583.317837	20774.350504
583.671186	20865.988599
584.024481	20836.225626
584.377721	20608.453693
584.730906	20675.017088
585.084037	20689.954027
585.437113	20597.302660
585.790135	20799.659617
586.143103	20267.855695
586.496016	20283.321955
586.848874	20517.465907
587.201679	20440.999165
587.554428	20132.916609
587.907124	20456.714962
588.259765	20242.423074
588.612352	20313.130297
588.964884	19877.990500
589.317362	20046.922086
589.669786	20095.854046
590.022155	20138.499687
590.374470	20335.916313
590.726731	20123.363623
591.078937	19902.150230
591.431090	19990.289764
591.783188	19741.360108
592.135232	19711.760973
592.487222	19801.180960
592.839157	19818.184772
593.191038	19705.638492
593.542866	19596.028683
593.894639	19309.683583
594.246358	19536.338901
594.598022	19438.588408
594.949633	19191.360141
595.301190	19156.074584
595.652692	19322.904009
596.004141	19566.971473
596.355535	18884.714314
596.706876	18900.697292
597.058162	18796.854564
597.409395	19032.430204
597.760573	19097.612323
598.111698	18873.459938
598.462768	18804.607859
598.813785	18777.224311
599.164748	18593.282690
599.515657	18634.342888
599.866511	18423.511752
600.217312	18783.979457
600.568060	18312.492941
600.918753	18614.720196
601.269392	18524.256691
601.619978	18295.884860
601.970510	18507.862858
602.320988	18452.730279
602.671412	18665.146858
603.021783	18563.665911
603.372100	18289.220454
603.722363	18444.044371
604.072572	18377.385194
604.422728	18521.915075
604.772830	18278.195451
605.122878	18230.375065
605.472872	18224.912975
605.822813	18206.948823
606.172701	18177.198454
606.522534	18378.113641
606.872314	18386.902892
607.222041	18233.213235
607.571714	18449.640052
607.921333	18265.274973
608.270899	18354.001802
608.620411	18524.080250
608.969870	18294.581721
609.319276	18306.740984
609.668627	18327.371907
610.017926	18461.060786
610.367171	18583.833047
610.716362	18634.743659
611.065500	18441.165872
611.414585	18573.100430
611.763616	18565.813442
612.112594	18490.281834
612.461518	18466.129666
612.810389	18661.560077
613.159207	18526.051341
613.507971	18427.131300
613.856682	18706.030616
614.205340	18636.974370
614.553945	18785.380898
614.902496	18522.966155
615.250994	18765.047404
615.599439	18708.014310
615.947830	18687.811886
616.296169	18739.589577
616.644454	18699.603145
616.992686	18673.638682
617.340864	18888.424603
617.688990	18647.661616
618.037063	18820.154777
618.385082	18672.315379
618.733048	18953.082443
619.080961	18824.893462
619.428821	18862.497949
619.776628	18743.080576
620.124382	18674.034412
620.472083	18711.462459
620.819731	18730.228154
621.167326	18422.518644
621.514868	18456.090208
621.862357	18236.779851
622.209793	18237.210870
622.557176	18074.290860
622.904506	17897.777379
623.251783	17811.419893
623.599007	17570.780414
623.946179	17514.763112
624.293297	17457.301520
624.640363	17214.625415
624.987376	17232.453456
625.334336	17028.042229
625.681243	16864.918052
626.028097	16882.728449
626.374899	16800.998742
626.721647	16668.005542
627.068343	16499.026065
627.414987	16436.457784
627.761577	16403.100469
628.108115	16453.385979
628.454600	16174.247208
628.801032	16270.382012
629.147412	16201.449274
629.493739	16212.849843
629.840014	16022.642068
630.186236	16118.764269
630.532405	15887.463527
630.878521	16091.342912
631.224585	15991.210473
631.570597	15801.791638
631.916556	15844.344018
632.262462	15812.126004
632.608316	15724.089813
632.954117	15673.814386
633.299866	15663.971533
633.645562	15576.232771
633.991206	15349.219531
634.336797	15217.922679
634.682336	15185.946640
635.027823	15065.170677
635.373257	14941.942191
635.718639	14854.019427
636.063968	14806.609896
636.409245	14551.966092
