Dividing Wavelength (nm)	Counts (n)	Blue Motor Position (mm): 21.600000	Red Motor Position (mm): 0.000000	
326.493990	2191.082067
326.888308	2191.082067
327.282561	2191.082067
327.676750	2147.546662
328.070874	2142.681948
328.464933	2145.852834
328.858929	2149.356436
329.252859	2154.508495
329.646726	2163.822027
330.040528	2171.020795
330.434265	2187.820440
330.827938	2208.254757
331.221547	2223.363095
331.615091	2239.010837
332.008571	2258.298291
332.401986	2275.581887
332.795338	2297.379837
333.188625	2315.777528
333.581847	2333.018274
333.975006	2352.638444
334.368100	2369.874149
334.761129	2388.375184
335.154095	2407.410581
335.546996	2430.090732
335.939833	2461.655917
336.332606	2476.638226
336.725315	2489.939311
337.117960	2504.654439
337.510540	2515.011489
337.903056	2523.914167
338.295508	2536.065868
338.687896	2544.469472
339.080220	2550.612118
339.472480	2555.809547
339.864676	2563.083932
340.256807	2568.006619
340.648875	2570.383523
341.040879	2575.497774
341.432818	2576.269070
341.824694	2582.522622
342.216506	2580.654874
342.608253	2583.578743
342.999937	2583.556058
343.391557	2584.347519
343.783113	2583.359453
344.174605	2581.312745
344.566033	2580.493557
344.957397	2581.204360
345.348697	2578.610686
345.739934	2576.107753
346.131106	2575.485171
346.522215	2573.597259
346.913260	2567.943605
347.304241	2570.078533
347.695159	2566.184242
348.086012	2567.240364
348.476802	2562.738613
348.867528	2558.655279
349.258191	2554.725699
349.648789	2556.225442
350.039324	2552.855431
350.429796	2552.830225
350.820203	2555.436502
351.210548	2554.675288
351.600828	2548.318393
351.991045	2550.397869
352.381198	2548.381407
352.771288	2549.205636
353.161314	2547.312683
353.551276	2549.011551
353.941175	2546.206149
354.331010	2547.295038
354.720782	2547.761345
355.110490	2549.031716
355.500135	2546.259081
355.889717	2546.914431
356.279235	2546.727909
356.668689	2548.562889
357.058080	2549.422405
357.447408	2547.776469
357.836672	2544.141797
358.225873	2549.387117
358.615010	2548.401572
359.004084	2548.499874
359.393095	2550.977601
359.782043	2548.293187
360.170927	2551.716130
360.559748	2552.747046
360.948505	2550.458363
361.337199	2555.547407
361.725830	2553.460370
362.114398	2552.931048
362.502903	2553.425082
362.891344	2557.132850
363.279722	2557.221070
363.668037	2555.570092
364.056289	2554.713096
364.444478	2553.551110
364.832603	2554.866852
365.220665	2557.210988
365.608665	2557.364743
365.996601	2557.049671
366.384474	2557.795762
366.772284	2557.851215
367.160031	2556.681667
367.547715	2558.771225
367.935336	2560.545711
368.322893	2557.944476
368.710388	2555.491955
369.097820	2559.121585
369.485189	2554.924825
369.872495	2562.751216
370.259738	2562.637790
370.646918	2561.019580
371.034035	2560.845660
371.421090	2559.295505
371.808081	2563.073850
372.195010	2565.057544
372.581875	2562.509241
372.968678	2563.734241
373.355418	2563.565363
373.742096	2563.096535
374.128710	2564.598799
374.515262	2563.945970
374.901751	2563.335990
375.288177	2565.874211
375.674540	2567.041238
376.060841	2566.222051
376.447079	2564.503017
376.833254	2563.393963
377.219367	2564.382029
377.605417	2568.793039
377.991404	2567.847823
378.377329	2569.203893
378.763191	2566.892524
379.148991	2570.630540
379.534727	2568.256156
379.920402	2567.817576
380.306013	2570.209603
380.691563	2570.754048
381.077049	2568.082236
381.462474	2566.446382
381.847835	2566.345559
382.233134	2566.811866
382.618371	2569.201372
383.003545	2569.443348
383.388657	2570.552402
383.773706	2570.116342
384.158693	2571.865622
384.543618	2569.705488
384.928480	2570.333112
385.313280	2571.858061
385.698017	2571.205231
386.082692	2573.070458
386.467305	2571.863102
386.851856	2572.246229
387.236344	2571.875705
387.620770	2568.951835
388.005133	2569.269428
388.389435	2569.559294
388.773674	2570.381002
389.157851	2573.945098
389.541965	2574.686148
389.926018	2574.348391
390.310008	2572.720098
390.693936	2575.439800
391.077802	2574.257650
391.461606	2577.902404
391.845348	2575.601117
392.229027	2578.386355
392.612645	2575.553226
392.996200	2575.580953
393.379694	2573.887125
393.763125	2576.763103
394.146494	2576.082547
394.529801	2575.807805
394.913047	2577.431056
395.296230	2579.671849
395.679351	2578.651015
396.062410	2575.134811
396.445408	2578.613207
396.828343	2577.312589
397.211217	2580.145717
397.594028	2579.757549
397.976778	2580.133115
398.359466	2580.884247
398.742092	2580.077662
399.124656	2579.722261
399.507158	2581.146387
399.889598	2578.051118
400.271977	2579.260995
400.654294	2579.069431
401.036549	2583.001531
401.418742	2581.010275
401.800874	2580.528845
402.182944	2580.818712
402.564952	2582.560430
402.946898	2583.419947
403.328783	2580.730491
403.710606	2582.739391
404.092367	2582.003383
404.474067	2583.518249
404.855705	2583.152766
405.237282	2583.941706
405.618797	2582.341140
406.000250	2585.900195
406.381642	2584.672674
406.762972	2581.940368
407.144240	2578.719071
407.525447	2583.825760
407.906593	2580.733012
408.287677	2585.078487
408.668700	2584.692838
409.049661	2586.797520
409.430560	2585.980853
409.811399	2587.004207
410.192176	2585.645616
410.572891	2587.493199
410.953545	2586.245514
411.334138	2584.188723
411.714669	2588.776173
412.095139	2585.973291
412.475547	2584.060173
412.855894	2587.523446
413.236180	2588.582088
413.616405	2588.584609
413.996568	2588.231728
414.376670	2585.718713
414.756711	2587.004207
415.136691	2587.556214
415.516609	2587.984712
415.896466	2587.775504
416.276262	2589.754157
416.655997	2589.391194
417.035670	2589.968406
417.415283	2592.418407
417.794834	2590.699373
418.174324	2589.451688
418.553753	2588.821543
418.933121	2589.287850
419.312428	2592.572162
419.691674	2590.689291
420.070859	2593.227512
420.449983	2589.665937
420.829045	2592.632656
421.208047	2591.644589
421.586988	2591.422779
421.965867	2592.778849
422.344686	2595.622060
422.723444	2594.172728
423.102141	2591.347161
423.480777	2593.512337
423.859352	2594.669282
424.237866	2594.334045
424.616319	2594.898654
424.994712	2595.377564
425.373044	2593.834971
425.751314	2593.293047
426.129524	2591.952100
426.507673	2591.639548
426.885762	2593.620722
427.263789	2596.587441
427.641756	2593.905547
428.019662	2594.271031
428.397508	2594.331524
428.775292	2596.272369
429.153016	2598.818151
429.530679	2598.114910
429.908282	2595.032245
430.285824	2598.079622
430.663305	2595.685074
431.040726	2597.648604
431.418086	2595.256576
431.795385	2599.463419
432.172624	2596.615167
432.549802	2598.379571
432.926920	2596.254725
433.303977	2598.228336
433.680974	2597.363778
434.057910	2598.203131
434.434786	2597.714139
434.811601	2600.945518
435.188355	2598.482915
435.565050	2600.073399
435.941683	2598.480394
436.318257	2599.052565
436.694770	2599.559201
437.071222	2599.700353
437.447614	2601.663883
437.823946	2602.377206
438.200218	2601.608430
438.576429	2599.307143
438.952580	2604.300406
439.328670	2603.720673
439.704700	2601.109356
440.080670	2601.686568
440.456580	2604.708740
440.832429	2603.103132
441.208218	2602.810745
441.583947	2602.979624
441.959616	2602.457864
442.335224	2603.445931
442.710773	2604.431476
443.086261	2604.257556
443.461689	2604.544902
443.837057	2602.757813
444.212365	2604.214707
444.587612	2602.551126
444.962800	2599.849067
445.337927	2601.497525
445.712995	2601.346290
446.088002	2603.272011
446.462949	2604.761672
446.837837	2604.791919
447.212664	2605.154882
447.587431	2607.657815
447.962139	2607.030191
448.336786	2612.560337
448.711374	2610.929523
449.085901	2607.579677
449.460369	2609.754935
449.834776	2610.349791
450.209124	2610.979935
450.583412	2614.186109
450.957640	2611.605038
451.331808	2610.768207
451.705917	2609.765017
452.079965	2610.516149
452.453954	2609.893566
452.827883	2610.306941
453.201752	2608.338370
453.575562	2612.154524
453.949311	2612.451952
454.323001	2611.579832
454.696632	2610.362394
455.070202	2615.227107
455.443713	2611.804164
455.817164	2612.439349
456.190556	2612.875409
456.563888	2617.755246
456.937160	2615.164093
457.310373	2616.787344
457.683526	2617.374639
458.056619	2614.579319
458.429653	2616.638630
458.802628	2616.883126
459.175542	2614.014710
459.548398	2620.406893
459.921194	2618.753394
460.293930	2622.120885
460.666607	2624.250773
461.039224	2623.595422
461.411782	2626.264713
461.784280	2627.693881
462.156719	2626.342851
462.529099	2627.666154
462.901419	2626.267234
463.273680	2623.403859
463.645882	2620.893364
464.018024	2623.819754
464.390106	2623.257665
464.762130	2628.036679
465.134094	2631.283182
465.505999	2636.982207
465.877845	2642.923206
466.249631	2648.531490
466.621358	2647.626603
466.993026	2649.446459
467.364634	2653.517191
467.736184	2650.323620
468.107674	2647.079638
468.479105	2649.438898
468.850477	2650.121974
469.221790	2651.452839
469.593043	2651.173055
469.964238	2650.255565
470.335373	2654.122130
470.706449	2657.933242
471.077467	2659.788387
471.448425	2668.312978
471.819324	2684.905936
472.190164	2700.483101
472.560945	2688.638910
472.931667	2687.262675
473.302330	2686.967767
473.672934	2691.504806
474.043479	2698.690971
474.413965	2703.457382
474.784393	2709.834441
475.154761	2719.737788
475.525070	2729.472256
475.895321	2735.582135
476.265513	2749.155441
476.635645	2766.126486
477.005719	2774.358690
477.375734	2790.387039
477.745691	2809.646767
478.115588	2830.539829
478.485427	2851.243848
478.855207	2889.896895
479.224928	2944.406892
479.594591	3013.420288
479.964194	3042.459854
480.333739	3061.913667
480.703226	3083.315886
481.072653	3117.774693
481.442022	3169.660769
481.811333	3241.908065
482.180584	3280.828293
482.549777	3298.845377
482.918912	3335.953311
483.287988	3396.870614
483.657005	3447.511525
484.025964	3489.448884
484.394864	3538.917726
484.763706	3583.257195
485.132489	3632.741161
485.501213	3695.236345
485.869879	3769.472377
486.238487	3817.728822
486.607036	3920.621293
486.975527	3969.989312
487.343959	4074.903286
487.712333	4160.547448
488.080648	4211.115263
488.448905	4346.959235
488.817104	4413.550357
489.185244	4569.387546
489.553326	4681.490204
489.921350	4870.256210
490.289315	5241.577520
490.657222	5591.799081
491.025070	5768.559579
491.392861	5878.590323
491.760593	5909.459829
492.128267	5946.199758
492.495883	5924.522796
492.863440	5948.397701
493.230939	5945.625066
493.598380	6068.785496
493.965763	6138.567668
494.333088	6204.800868
494.700354	6323.472150
495.067563	6458.292768
495.434713	6560.396298
495.801805	6685.101842
496.168839	6835.655901
496.535815	6949.134795
496.902733	7133.956098
497.269593	7182.124323
497.636395	7396.587610
498.003139	7540.197481
498.369825	7683.290633
498.736453	7851.513936
499.103023	7975.246537
499.469535	8146.244996
499.835989	8358.220474
500.202385	8554.752377
500.568723	8585.783200
500.935003	8782.794013
501.301226	8870.595789
501.667390	9239.119259
502.033497	9546.995127
502.399546	9589.494575
502.765537	9683.398668
503.131470	9949.836252
503.497345	10180.380820
503.863163	10080.288710
504.228923	10480.909206
504.594625	10737.244318
504.960269	10718.813859
505.325856	11099.859555
505.691385	11088.305230
506.056856	11464.143414
506.422270	11693.208404
506.787625	11670.445074
507.152924	12076.172259
507.518164	12226.063407
507.883347	12328.524858
508.248472	12369.287628
508.613540	12936.235955
508.978550	13065.418043
509.343503	13240.913211
509.708398	13570.072831
510.073236	13817.134739
510.438016	14106.817083
510.802738	14174.673535
511.167403	14474.475995
511.532010	14511.674669
511.896561	15116.202277
512.261053	15333.165977
512.625488	15412.448203
512.989866	15544.939809
513.354186	15620.884791
513.718449	15920.467962
514.082655	16285.260977
514.446803	16361.039602
514.810894	16802.571582
515.174927	16673.150039
515.538904	16882.657873
515.902822	17354.935850
516.266684	17426.605934
516.630488	17528.873302
516.994235	17721.644504
517.357925	18094.581504
517.721558	18428.515097
518.085133	18660.269542
518.448651	18782.174724
518.812112	18786.036248
519.175516	19030.935502
519.538863	19372.163644
519.902152	19358.885245
520.265385	19788.499937
520.628560	19764.226782
520.991678	19959.382450
521.354739	20174.022178
521.717743	20381.805936
522.080690	20364.555108
522.443580	20810.183026
522.806413	20943.521545
523.169189	21193.275430
523.531908	21347.139007
523.894569	21211.663038
524.257174	21396.416286
524.619722	21712.622661
524.982213	21558.680946
525.344647	21792.431688
525.707025	21999.411382
526.069345	22141.919761
526.431608	22242.306778
526.793815	22535.679246
527.155964	22133.690077
527.518057	22435.047733
527.880093	22500.184482
528.242072	22769.162807
528.603995	22630.669708
528.965860	22564.738978
529.327669	22740.140885
529.689421	22806.782418
530.051117	22751.549016
530.412755	23036.830432
530.774337	22925.907404
531.135862	22896.845152
531.497331	23178.965765
531.858743	22840.124609
532.220098	23380.374985
532.581396	23129.373414
532.942638	23200.766235
533.303824	23333.451925
533.664953	23430.242079
534.026025	23194.109391
534.387040	23471.463594
534.747999	23614.181180
535.108902	23817.251459
535.469748	23402.001535
535.830537	23657.535103
536.191270	23794.956957
536.551947	23765.899746
536.912567	23486.763496
537.273131	23812.575789
537.633638	23603.766156
537.994089	23858.576318
538.354483	23466.966884
538.714821	23992.542461
539.075103	24070.445932
539.435328	23914.235698
539.795497	23501.907122
540.155609	23941.057157
540.515665	24249.832871
540.875665	23551.229771
541.235609	23843.972095
541.595496	23863.236865
541.955328	24222.156936
542.315102	24167.825901
542.674821	23776.584471
543.034483	23688.896121
543.394090	23866.521177
543.753640	23676.625952
544.113134	24337.453166
544.472571	23956.362100
544.831953	24261.578759
545.191278	23880.515420
545.550548	23853.651111
545.909761	24065.251023
546.268918	24311.496265
546.628019	24279.278251
546.987064	24008.354040
547.346053	23786.903713
547.704986	23930.705147
548.063863	24101.728812
548.422684	24079.451953
548.781449	23671.831815
549.140158	24069.601539
549.498811	23658.341687
549.857408	23400.032964
550.215949	23853.197407
550.574434	23529.338560
550.932864	23780.138485
551.291237	23915.405245
551.649555	23801.608759
552.007817	23851.586758
552.366022	23740.525098
552.724173	23784.725935
553.082267	23715.899061
553.440305	24193.825652
553.798288	23470.972081
554.156215	24009.999977
554.514086	24080.394649
554.871902	23465.545279
555.229661	23752.258383
555.587365	23617.465491
555.945014	23450.552888
556.302606	23745.195727
556.660143	23663.372759
557.017625	23940.091776
557.375050	23483.179235
557.732421	23867.892370
558.089735	23675.519419
558.446994	23748.260748
558.804197	23756.878601
559.161345	23730.122677
559.518437	23451.414925
559.875474	23673.727289
560.232455	23851.914433
560.589381	23680.936139
560.946251	23650.270800
561.303065	23975.636952
561.659825	24067.741353
562.016528	23674.871631
562.373177	23415.100973
562.729770	23771.049284
563.086307	23643.503051
563.442789	23805.109840
563.799216	23636.871413
564.155587	23643.747547
564.511904	23640.927021
564.868164	23568.788110
565.224370	23548.376478
565.580520	23447.293782
565.936615	23585.726387
566.292654	23258.046346
566.648638	23584.163629
567.004567	23407.718203
567.360441	23352.784750
567.716260	23077.447009
568.072023	23406.069746
568.427732	23164.880781
568.783385	22961.548362
569.138982	23188.453217
569.494525	23231.797058
569.850013	22968.570689
570.205445	23074.369385
570.560823	22875.768088
570.916145	22637.510554
571.271412	22805.469197
571.626625	22566.979771
571.981782	22690.866126
572.336884	22496.590139
572.691931	22623.591928
573.046923	22348.964990
573.401860	22243.705698
573.756743	22226.200291
574.111570	22161.855003
574.466342	22093.499478
574.821059	22189.430115
575.175722	21889.027757
575.530330	21873.077547
575.884882	21901.081156
576.239380	21803.313018
576.593823	21697.446267
576.948211	21690.229855
577.302544	21520.554699
577.656823	21393.144577
578.011047	21483.131694
578.365216	21361.644927
578.719330	21249.877505
579.073389	21153.352012
579.427394	21288.417126
579.781344	21074.160526
580.135239	20966.625153
580.489080	20937.157088
580.842866	20697.334276
581.196597	20878.044518
581.550273	20865.197138
581.903895	20763.915316
582.257463	21072.532233
582.610975	20593.073132
582.964434	20889.487937
583.317837	20622.284098
583.671186	20711.086544
584.024481	20670.969042
584.377721	20454.842173
584.730906	20496.197279
585.084037	20528.949655
585.437113	20437.475398
585.790135	20632.371447
586.143103	20103.992989
586.496016	20109.936509
586.848874	20362.594099
587.201679	20309.205759
587.554428	19971.088009
587.907124	20296.958276
588.259765	20080.818805
588.612352	20157.083901
588.964884	19716.025789
589.317362	19898.918851
589.669786	19941.032650
590.022155	20009.781385
590.374470	20172.840027
590.726731	19982.218877
591.078937	19727.116328
591.431090	19829.519806
591.783188	19578.072093
592.135232	19553.456139
592.487222	19656.134361
592.839157	19682.837353
593.191038	19562.323529
593.542866	19453.784966
593.894639	19175.684673
594.246358	19397.271111
594.598022	19308.919848
594.949633	19049.943172
595.301190	19015.358337
595.652692	19177.108799
596.004141	19421.662734
596.355535	18749.278675
596.706876	18769.057642
597.058162	18648.473242
597.409395	18874.969764
597.760573	18961.223906
598.111698	18748.489734
598.462768	18676.350823
598.813785	18639.351274
599.164748	18469.580336
599.515657	18495.053286
599.866511	18288.476884
600.217312	18648.649682
600.568060	18178.466304
600.918753	18486.253952
601.269392	18390.232574
601.619978	18150.747520
601.970510	18386.832316
602.320988	18322.035845
602.671412	18544.610349
603.021783	18430.912165
603.372100	18176.127209
603.722363	18304.883319
604.072572	18236.779851
604.422728	18374.451242
604.772830	18143.115213
605.122878	18096.960929
605.472872	18080.166325
605.822813	18074.411848
606.172701	18028.696144
606.522534	18230.319613
606.872314	18254.711236
607.222041	18085.928364
607.571714	18297.714798
607.921333	18134.908214
608.270899	18213.877889
608.620411	18408.930214
608.969870	18151.554104
609.319276	18160.471906
609.668627	18194.235033
610.017926	18330.542792
610.367171	18441.057488
610.716362	18478.828333
611.065500	18302.274522
611.414585	18430.478626
611.763616	18419.067974
612.112594	18367.368421
612.461518	18344.847066
612.810389	18522.557822
613.159207	18370.098206
613.507971	18283.561759
613.856682	18563.290345
614.205340	18507.847735
614.553945	18645.657757
614.902496	18378.368219
615.250994	18628.656466
615.599439	18568.581036
615.947830	18556.023522
616.296169	18584.957224
616.644454	18560.873112
616.992686	18531.558802
617.340864	18739.493795
617.688990	18499.998658
618.037063	18680.227470
618.385082	18516.238735
618.733048	18811.199167
619.080961	18664.859513
619.428821	18707.865596
619.776628	18605.247868
620.124382	18521.973048
620.472083	18563.670952
620.819731	18585.789014
621.167326	18278.104710
621.514868	18321.781267
621.862357	18083.390143
622.209793	18097.661649
622.557176	17938.409079
622.904506	17751.382271
623.251783	17660.001275
623.599007	17436.736133
623.946179	17374.218264
624.293297	17325.699678
624.640363	17079.217502
624.987376	17098.212570
625.334336	16880.069240
625.681243	16737.512971
626.028097	16737.359216
626.374899	16674.211202
626.721647	16539.559462
627.068343	16365.448091
627.414987	16295.600384
627.761577	16275.173628
628.108115	16317.622664
628.454600	16044.596293
628.801032	16138.807896
629.147412	16068.617391
629.493739	16087.246975
629.840014	15895.872172
630.186236	16008.191600
630.532405	15757.242962
630.878521	15959.433560
631.224585	15843.976014
631.570597	15682.202866
631.916556	15716.550768
632.262462	15691.569330
632.608316	15608.937257
632.954117	15555.924483
633.299866	15544.261773
633.645562	15464.916532
633.991206	15222.134563
634.336797	15088.569192
634.682336	15059.585078
635.027823	14959.170335
635.373257	14841.739176
635.718639	14727.811620
636.063968	14676.497715
636.409245	14437.872177
636.754470	14466.541219
637.099642	14312.216376
637.444762	14088.172376
637.789829	14129.620743
638.134845	13966.325167
638.479808	13987.661851
638.824719	13946.205922
