Dividing Wavelength (nm)	Counts (n)	Blue Motor Position (mm): 29.900000	Red Motor Position (mm): 0.000000	
326.493990	2210.540920
326.888308	2210.540920
327.282561	2210.540920
327.676750	2175.351146
328.070874	2170.231854
328.464933	2168.971566
328.858929	2173.168326
329.252859	2179.298369
329.646726	2186.028310
330.040528	2199.341997
330.434265	2210.861034
330.827938	2231.043293
331.221547	2249.423340
331.615091	2264.934970
332.008571	2282.271498
332.401986	2303.623306
332.795338	2320.415389
333.188625	2340.282576
333.581847	2358.665144
333.975006	2374.975797
334.368100	2397.169477
334.761129	2413.661612
335.154095	2433.332194
335.546996	2456.032510
335.939833	2495.837461
336.332606	2511.026457
336.725315	2524.899712
337.117960	2535.864222
337.510540	2549.523228
337.903056	2558.327604
338.295508	2566.882442
338.687896	2576.034657
339.080220	2583.082190
339.472480	2591.387491
339.864676	2596.574838
340.256807	2601.565580
340.648875	2607.138576
341.040879	2608.103957
341.432818	2611.451283
341.824694	2616.134515
342.216506	2616.280708
342.608253	2615.184257
342.999937	2615.978239
343.391557	2616.119391
343.783113	2613.243413
344.174605	2613.644185
344.566033	2611.680655
344.957397	2610.959770
345.348697	2609.664194
345.739934	2608.751745
346.131106	2607.514142
346.522215	2607.370469
346.913260	2602.838472
347.304241	2602.218410
347.695159	2599.901999
348.086012	2597.494848
348.476802	2595.662389
348.867528	2594.341607
349.258191	2587.636872
349.648789	2589.514702
350.039324	2586.580750
350.429796	2592.224322
350.820203	2588.425813
351.210548	2587.011769
351.600828	2585.602767
351.991045	2584.811305
352.381198	2581.837025
352.771288	2584.377766
353.161314	2581.874833
353.551276	2581.600090
353.941175	2581.894998
354.331010	2581.327868
354.720782	2582.988928
355.110490	2582.210070
355.500135	2582.053794
355.889717	2578.950964
356.279235	2578.557754
356.668689	2580.894329
357.058080	2579.172775
357.447408	2581.973136
357.836672	2582.580595
358.225873	2581.194278
358.615010	2579.354256
359.004084	2583.611511
359.393095	2582.935996
359.782043	2583.624114
360.170927	2582.983887
360.559748	2581.932807
360.948505	2586.512695
361.337199	2586.792479
361.725830	2585.580081
362.114398	2587.805751
362.502903	2586.961357
362.891344	2589.794486
363.279722	2591.311873
363.668037	2588.967737
364.056289	2586.389187
364.444478	2590.296081
364.832603	2590.500247
365.220665	2593.542584
365.608665	2591.642069
365.996601	2592.128540
366.384474	2594.719693
366.772284	2592.957810
367.160031	2594.583582
367.547715	2592.904878
367.935336	2594.976792
368.322893	2591.964703
368.710388	2592.239446
369.097820	2591.979826
369.485189	2588.677870
369.872495	2596.005187
370.259738	2595.485949
370.646918	2595.934611
371.034035	2594.921339
371.421090	2596.491659
371.808081	2599.055086
372.195010	2596.990733
372.581875	2599.523913
372.968678	2598.324118
373.355418	2598.911413
373.742096	2598.014087
374.128710	2598.508120
374.515262	2600.509458
374.901751	2597.734303
375.288177	2599.425610
375.674540	2599.899479
376.060841	2601.976434
376.447079	2598.787904
376.833254	2599.372678
377.219367	2600.867380
377.605417	2601.898296
377.991404	2602.959459
378.377329	2604.784357
378.763191	2601.736979
379.148991	2600.370827
379.534727	2602.319233
379.920402	2601.520210
380.306013	2601.099273
380.691563	2603.450972
381.077049	2604.252515
381.462474	2601.316043
381.847835	2607.325098
382.233134	2606.914244
382.618371	2604.802001
383.003545	2605.691765
383.388657	2603.995416
383.773706	2606.382403
384.158693	2606.200921
384.543618	2607.075561
384.928480	2608.270315
385.313280	2606.344594
385.698017	2608.449276
386.082692	2609.860799
386.467305	2607.579677
386.851856	2609.104626
387.236344	2609.366766
387.620770	2605.079264
388.005133	2605.842999
388.389435	2606.992382
388.773674	2605.442227
389.157851	2609.268463
389.541965	2610.233844
389.926018	2610.894235
390.310008	2612.646036
390.693936	2611.821808
391.077802	2610.589246
391.461606	2612.976232
391.845348	2611.932713
392.229027	2614.445728
392.612645	2611.670573
392.996200	2613.193002
393.379694	2613.427415
393.763125	2615.665687
394.146494	2613.069493
394.529801	2615.872375
394.913047	2616.076542
395.296230	2614.579319
395.679351	2617.241048
396.062410	2617.346912
396.445408	2614.912035
396.828343	2617.281377
397.211217	2616.631068
397.594028	2617.389762
397.976778	2618.561830
398.359466	2619.295318
398.742092	2621.515947
399.124656	2617.755246
399.507158	2620.268261
399.889598	2622.133488
400.271977	2618.667695
400.654294	2622.776235
401.036549	2619.151645
401.418742	2621.662140
401.800874	2621.682305
402.182944	2621.286574
402.564952	2624.649024
402.946898	2624.076853
403.328783	2621.750360
403.710606	2621.750360
404.092367	2623.308077
404.474067	2627.519961
404.855705	2624.278499
405.237282	2625.644652
405.618797	2626.234467
406.000250	2627.648510
406.381642	2627.519961
406.762972	2624.961575
407.144240	2624.583489
407.525447	2623.925618
407.906593	2626.179014
408.287677	2630.960548
408.668700	2630.101032
409.049661	2631.036166
409.430560	2631.131947
409.811399	2631.305867
410.192176	2633.927267
410.572891	2632.482977
410.953545	2634.307874
411.334138	2631.925929
411.714669	2632.177987
412.095139	2633.307205
412.475547	2636.712505
412.855894	2635.880714
413.236180	2634.922895
413.616405	2639.288534
413.996568	2637.123359
414.376670	2636.505817
414.756711	2637.672845
415.136691	2639.434728
415.516609	2640.586632
415.896466	2642.391365
416.276262	2642.650984
416.655997	2644.009575
417.035670	2640.747948
417.415283	2645.262302
417.794834	2644.700213
418.174324	2647.674494
418.553753	2644.773310
418.933121	2647.855975
419.312428	2648.796151
419.691674	2646.948568
420.070859	2647.843372
420.449983	2650.515184
420.829045	2653.953251
421.208047	2653.045843
421.586988	2654.986687
421.965867	2657.494662
422.344686	2658.107162
422.723444	2661.709066
423.102141	2662.598830
423.480777	2664.630415
423.859352	2668.375992
424.237866	2675.163906
424.616319	2681.535924
424.994712	2688.492717
425.373044	2690.206709
425.751314	2701.443441
426.129524	2708.097764
426.507673	2726.462687
426.885762	2736.766806
427.263789	2757.188520
427.641756	2774.830038
428.019662	2798.674696
428.397508	2827.454643
428.775292	2849.461800
429.153016	2889.697769
429.530679	2915.117788
429.908282	2955.068932
430.285824	2981.356029
430.663305	3060.297977
431.040726	3075.857499
431.418086	3126.032103
431.795385	3205.412632
432.172624	3273.112808
432.549802	3328.121878
432.926920	3404.616347
433.303977	3449.638892
433.680974	3547.046587
434.057910	3636.249804
434.434786	3727.005697
434.811601	3787.388638
435.188355	3956.287456
435.565050	4000.437882
435.941683	4080.045263
436.318257	4278.550778
436.694770	4398.464704
437.071222	4518.897869
437.447614	4587.384465
437.823946	4664.370446
438.200218	4821.465403
438.576429	4869.759657
438.952580	5041.910019
439.328670	5177.897665
439.704700	5225.478595
440.080670	5334.317107
440.456580	5645.744468
440.832429	5680.583882
441.208218	5641.346061
441.583947	5885.542074
441.959616	6070.464200
442.335224	6114.856601
442.710773	6297.119518
443.086261	6520.152767
443.461689	6305.172762
443.837057	6725.564663
444.212365	7004.297621
444.587612	6947.256965
444.962800	7209.346554
445.337927	7214.092800
445.712995	7084.391473
446.088002	7853.336313
446.462949	7763.238291
446.837837	7874.806588
447.212664	8010.683328
447.587431	8447.453938
447.962139	9018.064663
448.336786	10572.590151
448.711374	11169.208188
449.085901	9885.254030
449.460369	9738.644673
449.834776	9497.165842
450.209124	10213.506242
450.583412	10610.454257
450.957640	11454.708895
451.331808	10997.531694
451.705917	10325.122429
452.079965	9905.148943
452.453954	10720.308561
452.827883	10521.107367
453.201752	10851.171874
453.575562	10536.341734
453.949311	10979.698612
454.323001	11020.105981
454.696632	11287.483739
455.070202	11612.088677
455.443713	11903.447204
455.817164	12388.444013
456.190556	12468.709265
456.563888	12890.086712
456.937160	13138.844969
457.310373	12569.350860
457.683526	12717.936349
458.056619	12359.348994
458.429653	12538.062939
458.802628	12100.974736
459.175542	12467.365797
459.548398	13418.104727
459.921194	13778.509419
460.293930	13861.660731
460.666607	14746.922634
461.039224	15746.442290
461.411782	16459.619365
461.784280	16436.717403
462.156719	16520.866864
462.529099	16268.327742
462.901419	15245.230610
463.273680	15082.524849
463.645882	14965.007991
464.018024	14729.381939
464.390106	14963.790552
464.762130	15704.227667
465.134094	16432.382011
465.505999	18352.733952
465.877845	21575.155437
466.249631	24416.705146
466.621358	24191.320198
466.993026	22778.191514
467.364634	22249.535792
467.736184	20834.869556
468.107674	20033.565549
468.479105	20167.723256
468.850477	19642.588780
469.221790	19233.945288
469.593043	18567.230007
469.964238	18020.733642
470.335373	17698.268674
470.706449	18114.277292
471.077467	17653.561201
471.448425	19464.993972
471.819324	23420.313526
472.190164	25548.267744
472.560945	22081.357859
472.931667	19673.193625
473.302330	19023.925777
473.672934	18492.336104
474.043479	18877.286174
474.413965	18703.923414
474.784393	18338.817846
475.154761	18995.239092
475.525070	19018.027627
475.895321	18673.285801
476.265513	19248.113451
476.635645	19813.370470
477.005719	19615.611046
477.375734	19814.323248
477.745691	20284.219280
478.115588	20791.644182
478.485427	21301.118313
478.855207	22346.426769
479.224928	24080.064453
479.594591	26305.635574
479.964194	26397.387095
480.333739	26598.607271
480.703226	26165.050396
481.072653	25822.594733
481.442022	26375.876491
481.811333	27289.820039
482.180584	27236.038490
482.549777	26283.749405
482.918912	25907.815439
483.287988	26029.065271
483.657005	25724.166204
484.025964	25441.591887
484.394864	25384.578958
484.763706	25086.903864
485.132489	24501.830069
485.501213	24685.963255
485.869879	24584.598254
486.238487	24382.626946
486.607036	24555.634304
486.975527	24227.203131
487.343959	24555.374685
487.712333	24512.824826
488.080648	24183.191338
488.448905	24651.068388
488.817104	24404.172837
489.185244	25066.588014
489.553326	25042.166144
489.921350	26009.871078
490.289315	28255.475744
490.657222	30074.661809
491.025070	30557.415304
491.392861	30370.204494
491.760593	29528.488078
492.128267	28632.395255
492.495883	27600.266896
492.863440	26715.493985
493.230939	25834.869943
493.598380	25685.523239
493.965763	25291.483970
494.333088	24850.327555
494.700354	24761.890593
495.067563	24648.280630
495.434713	24408.034361
495.801805	24539.323651
496.168839	24365.653381
496.535815	24183.511451
496.902733	24403.232662
497.269593	24069.503236
497.636395	24269.944554
498.003139	24255.133644
498.369825	23991.511545
498.736453	24186.994888
499.103023	24064.310848
499.469535	24094.688841
499.835989	24292.549088
500.202385	24331.033257
500.568723	23824.271266
500.935003	24086.829682
501.301226	23672.000694
501.667390	24509.472459
502.033497	24759.869091
502.399546	24482.368695
502.765537	24072.076745
503.131470	24452.320898
503.497345	24588.200158
503.863163	23800.920642
504.228923	24414.877727
504.594625	24611.402069
504.960269	24122.516010
505.325856	24623.170643
505.691385	24024.170660
506.056856	24643.171420
506.422270	24601.591983
506.787625	24184.736451
507.152924	24601.662560
507.518164	24621.363389
507.883347	24432.725933
508.248472	24113.865390
508.613540	24896.595265
508.978550	24674.285422
509.343503	24668.188146
509.708398	24932.092550
510.073236	25085.436888
510.438016	25298.110566
510.802738	24985.722865
511.167403	25230.624640
511.532010	24922.221971
511.896561	25709.504008
512.261053	25679.075604
512.625488	25513.014955
512.989866	25408.443780
513.354186	25264.647387
513.718449	25356.104000
514.082655	25742.571457
514.446803	25480.242414
514.810894	25939.000017
515.174927	25410.203143
515.538904	25438.448728
515.902822	25940.482116
516.266684	25684.487282
516.630488	25597.587872
516.994235	25583.565903
517.357925	25879.496757
517.721558	26054.323973
518.085133	26151.187223
518.448651	26066.243781
518.812112	25797.522554
519.175516	25982.986604
519.538863	26148.394424
519.902152	25922.281030
520.265385	26231.775108
520.628560	26004.156930
520.991678	26021.450608
521.354739	26093.128254
521.717743	26153.339796
522.080690	25950.272037
522.443580	26280.795288
522.806413	26274.556861
523.169189	26367.830810
523.531908	26410.632726
523.894569	26025.299529
524.257174	26100.730314
524.619722	26296.019573
524.982213	25974.895552
525.344647	26046.570678
525.707025	26167.875963
526.069345	26153.896843
526.431608	26111.309176
526.793815	26299.729862
527.155964	25752.978919
527.518057	25926.447543
527.880093	25846.187333
528.242072	26083.955875
528.603995	25787.170545
528.965860	25582.353505
529.327669	25637.070189
529.689421	25622.203827
530.051117	25465.431504
530.412755	25639.772248
530.774337	25432.835403
531.135862	25316.785521
531.497331	25514.008062
531.858743	25057.965121
532.220098	25549.671705
532.581396	25220.411262
532.942638	25158.253835
533.303824	25244.250879
533.664953	25271.594097
534.026025	24935.034063
534.387040	25169.765310
534.747999	25239.844910
535.108902	25392.150771
535.469748	24887.493462
535.830537	25084.589975
536.191270	25200.203797
536.551947	25073.045732
536.912567	24716.217740
537.273131	25055.968824
537.633638	24761.542754
537.994089	24979.141639
538.354483	24521.644325
538.714821	25026.654514
539.075103	25060.999895
539.435328	24855.814851
539.795497	24401.498505
540.155609	24807.054291
540.515665	25103.872388
540.875665	24334.783875
541.235609	24624.214161
541.595496	24598.290028
541.955328	24943.082266
542.315102	24874.507450
542.674821	24422.807462
543.034483	24296.587052
543.394090	24470.590039
543.753640	24258.181022
544.113134	24890.001436
544.472571	24481.090762
544.831953	24780.638645
545.191278	24405.493619
545.550548	24314.079856
545.909761	24521.727504
546.268918	24745.690846
546.628019	24717.036927
546.987064	24428.267032
547.346053	24190.140568
547.704986	24299.493277
548.063863	24465.145593
548.422684	24459.590241
548.781449	24005.692311
549.140158	24406.960595
549.498811	23979.145595
549.857408	23725.189908
550.215949	24155.046576
550.574434	23838.154604
550.932864	24067.206991
551.291237	24203.673546
551.649555	24075.575306
552.007817	24126.468275
552.366022	23994.949612
552.724173	24044.552045
553.082267	23970.371466
553.440305	24451.539519
553.798288	23715.430234
554.156215	24243.256686
554.514086	24327.436393
554.871902	23698.073541
555.229661	23977.522343
555.587365	23838.058822
555.945014	23691.414177
556.302606	23948.233239
556.660143	23903.399737
557.017625	24148.291430
557.375050	23682.244318
557.732421	24074.133536
558.089735	23883.956007
558.446994	23955.058962
558.804197	23979.710204
559.161345	23917.104114
559.518437	23672.867772
559.875474	23873.389749
560.232455	24052.847264
560.589381	23882.683116
560.946251	23855.191183
561.303065	24171.558875
561.659825	24265.634368
562.016528	23859.471123
562.373177	23605.621300
562.729770	23972.319872
563.086307	23833.209232
563.442789	24001.303986
563.799216	23827.976514
564.155587	23831.570857
564.511904	23817.170801
564.868164	23747.270162
565.224370	23731.803902
565.580520	23626.446307
565.936615	23773.539614
566.292654	23447.124903
566.648638	23755.930864
567.004567	23585.050872
567.360441	23532.557337
567.716260	23269.121761
568.072023	23588.632612
568.427732	23354.453372
568.783385	23125.708495
569.138982	23359.917982
569.494525	23399.155803
569.850013	23146.714983
570.205445	23240.820723
570.560823	23043.981309
570.916145	22801.368219
571.271412	22981.922185
571.626625	22733.088310
571.981782	22853.496270
572.336884	22662.431498
572.691931	22796.059884
573.046923	22519.517307
573.401860	22403.555645
573.756743	22414.845309
574.111570	22321.654539
574.466342	22254.120722
574.821059	22347.147654
575.175722	22039.828833
575.530330	22039.838916
575.884882	22062.672822
576.239380	21975.201241
576.593823	21854.906708
576.948211	21832.236639
577.302544	21677.316940
577.656823	21542.221578
578.011047	21642.958956
578.365216	21518.422291
578.719330	21396.373436
579.073389	21299.495062
579.427394	21451.193463
579.781344	21206.684899
580.135239	21103.709249
580.489080	21072.685989
580.842866	20842.910196
581.196597	21027.028258
581.550273	21004.786687
581.903895	20903.444372
582.257463	21210.458203
582.610975	20736.262066
582.964434	21049.201773
583.317837	20748.872513
583.671186	20846.635609
584.024481	20815.272070
584.377721	20590.237483
584.730906	20641.074999
585.084037	20669.726397
585.437113	20566.458361
585.790135	20772.812952
586.143103	20242.977601
586.496016	20257.697770
586.848874	20493.439768
587.201679	20425.701783
587.554428	20103.491394
587.907124	20437.530851
588.259765	20219.576564
588.612352	20287.715320
588.964884	19850.259113
589.317362	20027.344765
589.669786	20077.862168
590.022155	20117.473034
590.374470	20312.217849
590.726731	20105.495253
591.078937	19871.177381
591.431090	19971.607248
591.783188	19711.960098
592.135232	19702.926351
592.487222	19790.271903
592.839157	19804.442586
593.191038	19690.353713
593.542866	19576.905066
593.894639	19291.951325
594.246358	19518.561272
594.598022	19423.462426
594.949633	19177.524694
595.301190	19129.754720
595.652692	19303.745104
596.004141	19543.845179
596.355535	18867.138331
596.706876	18885.420076
597.058162	18776.067366
597.409395	19004.983642
597.760573	19080.038861
598.111698	18858.228092
598.462768	18799.317168
598.813785	18756.545498
599.164748	18581.914888
599.515657	18617.996946
599.866511	18401.197084
600.217312	18766.683258
600.568060	18289.837996
600.918753	18602.865923
601.269392	18499.260129
601.619978	18278.203013
601.970510	18493.004057
602.320988	18434.486343
602.671412	18646.751688
603.021783	18550.682419
603.372100	18277.696377
603.722363	18426.097863
604.072572	18356.668572
604.422728	18498.982866
604.772830	18264.932175
605.122878	18218.059527
605.472872	18204.120736
605.822813	18195.485240
606.172701	18151.740627
606.522534	18353.296040
606.872314	18384.591523
607.222041	18211.324545
607.571714	18436.727136
607.921333	18259.160054
608.270899	18332.251743
608.620411	18511.311008
608.969870	18285.938663
609.319276	18284.774157
609.668627	18316.115010
610.017926	18444.951779
610.367171	18560.989058
610.716362	18615.148694
611.065500	18415.849198
611.414585	18563.391168
611.763616	18539.392755
612.112594	18481.137181
612.461518	18446.862376
612.810389	18642.633065
613.159207	18498.030088
613.507971	18412.012880
613.856682	18692.777422
614.205340	18614.195916
614.553945	18766.050594
614.902496	18507.746912
615.250994	18744.103930
615.599439	18686.949849
615.947830	18670.382097
616.296169	18719.170383
616.644454	18684.300722
616.992686	18657.426331
617.340864	18876.184682
617.688990	18619.184138
618.037063	18798.931520
618.385082	18650.683788
618.733048	18933.026212
619.080961	18803.299679
619.428821	18839.066666
619.776628	18723.248677
620.124382	18654.515065
620.472083	18688.719294
620.819731	18713.635197
621.167326	18396.370179
621.514868	18442.632848
621.862357	18212.834371
622.209793	18215.385194
622.557176	18050.158857
622.904506	17880.627373
623.251783	17787.736552
623.599007	17553.985810
623.946179	17501.409096
624.293297	17447.269624
624.640363	17198.329885
624.987376	17216.041979
625.334336	17001.775297
625.681243	16852.118563
626.028097	16863.078031
626.374899	16788.635312
626.721647	16658.666804
627.068343	16487.597769
627.414987	16421.614107
627.761577	16393.136628
628.108115	16436.349399
628.454600	16162.957544
628.801032	16247.333856
629.147412	16182.423959
629.493739	16200.330138
629.840014	16012.874832
630.186236	16116.609175
630.532405	15879.448093
630.878521	16066.840384
631.224585	15960.764425
631.570597	15783.018381
631.916556	15816.728577
632.262462	15799.593695
632.608316	15722.590070
632.954117	15664.904147
633.299866	15648.023843
633.645562	15580.031281
633.991206	15327.839998
634.336797	15202.302664
634.682336	15171.241595
635.027823	15056.726744
635.373257	14937.561429
635.718639	14830.676364
636.063968	14777.124187
636.409245	14528.497000
636.754470	14562.292895
