Dividing Wavelength (nm)	Counts (n)	Blue Motor Position (mm): 33.600000	Red Motor Position (mm): 0.000000	
326.493990	2222.929556
326.888308	2222.929556
327.282561	2222.929556
327.676750	2183.701817
328.070874	2180.810716
328.464933	2181.579492
328.858929	2183.525377
329.252859	2191.192972
329.646726	2198.810155
330.040528	2211.894470
330.434265	2222.869062
330.827938	2240.331619
331.221547	2257.872314
331.615091	2279.065325
332.008571	2296.054013
332.401986	2314.038329
332.795338	2332.304950
333.188625	2352.885461
333.581847	2370.113604
333.975006	2386.646068
334.368100	2412.272774
334.761129	2426.604774
335.154095	2446.638320
335.546996	2467.848974
335.939833	2509.040243
336.332606	2523.130268
336.725315	2536.781712
337.117960	2549.182951
337.510540	2560.598643
337.903056	2571.474933
338.295508	2580.445666
338.687896	2590.238107
339.080220	2599.352514
339.472480	2604.993565
339.864676	2611.678135
340.256807	2615.655605
340.648875	2617.117540
341.040879	2620.369084
341.432818	2625.780763
341.824694	2625.667337
342.216506	2627.588016
342.608253	2628.747482
342.999937	2630.219499
343.391557	2630.721093
343.783113	2630.325363
344.174605	2627.401494
344.566033	2626.811679
344.957397	2628.016514
345.348697	2625.201030
345.739934	2624.152470
346.131106	2619.895216
346.522215	2619.655761
346.913260	2617.793054
347.304241	2616.522684
347.695159	2612.809874
348.086012	2611.259719
348.476802	2610.475820
348.867528	2606.301744
349.258191	2606.180757
349.648789	2602.072216
350.039324	2599.181114
350.429796	2604.209665
350.820203	2602.369644
351.210548	2600.234716
351.600828	2599.965014
351.991045	2598.233377
352.381198	2597.963676
352.771288	2596.829416
353.161314	2598.072061
353.551276	2595.049889
353.941175	2599.297061
354.331010	2594.487800
354.720782	2593.814806
355.110490	2597.368820
355.500135	2593.691298
355.889717	2594.570979
356.279235	2594.384457
356.668689	2594.434868
357.058080	2593.706421
357.447408	2595.155753
357.836672	2595.526278
358.225873	2594.535691
358.615010	2596.035434
359.004084	2596.032914
359.393095	2599.652462
359.782043	2599.329828
360.170927	2599.642380
360.559748	2597.305805
360.948505	2598.374530
361.337199	2601.245467
361.725830	2602.021805
362.114398	2602.893924
362.502903	2603.526589
362.891344	2604.229830
363.279722	2600.801845
363.668037	2604.000457
364.056289	2601.552977
364.444478	2606.941971
364.832603	2606.705037
365.220665	2605.401898
365.608665	2606.838627
365.996601	2605.913575
366.384474	2609.041611
366.772284	2608.068669
367.160031	2605.003647
367.547715	2608.129162
367.935336	2606.644543
368.322893	2604.237392
368.710388	2604.592793
369.097820	2605.154882
369.485189	2604.968359
369.872495	2609.230655
370.259738	2608.507249
370.646918	2611.174019
371.034035	2609.787702
371.421090	2611.736108
371.808081	2611.035388
372.195010	2611.731067
372.581875	2612.971191
372.968678	2612.078907
373.355418	2611.738629
373.742096	2614.107971
374.128710	2611.269801
374.515262	2614.367590
374.901751	2614.906994
375.288177	2614.866665
375.674540	2613.351798
376.060841	2616.474793
376.447079	2614.390276
376.833254	2613.510594
377.219367	2616.104268
377.605417	2618.090482
377.991404	2616.368928
378.377329	2618.415637
378.763191	2619.862448
379.148991	2617.251130
379.534727	2614.022271
379.920402	2616.502519
380.306013	2621.644496
380.691563	2622.849332
381.077049	2617.568723
381.462474	2618.329937
381.847835	2619.930504
382.233134	2620.666512
382.618371	2620.732047
383.003545	2620.711882
383.388657	2618.675256
383.773706	2621.604167
384.158693	2622.188941
384.543618	2621.949486
384.928480	2622.420834
385.313280	2625.107769
385.698017	2624.649024
386.082692	2623.043416
386.467305	2624.117182
386.851856	2623.343365
387.236344	2626.352934
387.620770	2624.550721
388.005133	2622.642644
388.389435	2624.044085
388.773674	2622.753550
389.157851	2631.194962
389.541965	2630.164046
389.926018	2628.661782
390.310008	2629.440640
390.693936	2632.054479
391.077802	2630.688326
391.461606	2632.616567
391.845348	2630.040538
392.229027	2633.952473
392.612645	2636.130252
392.996200	2633.813841
393.379694	2635.273255
393.763125	2636.357103
394.146494	2636.238636
394.529801	2634.670837
394.913047	2638.960859
395.296230	2638.590335
395.679351	2638.421456
396.062410	2641.105870
396.445408	2639.664100
396.828343	2640.440438
397.211217	2640.367341
397.594028	2640.911786
397.976778	2640.737866
398.359466	2641.846920
398.742092	2641.403298
399.124656	2642.653505
399.507158	2643.742394
399.889598	2645.325316
400.271977	2646.840183
400.654294	2645.524442
401.036549	2648.022333
401.418742	2648.075266
401.800874	2648.329844
402.182944	2650.406799
402.564952	2650.391676
402.946898	2649.925369
403.328783	2650.489978
403.710606	2651.856131
404.092367	2654.127171
404.474067	2652.844197
404.855705	2656.022645
405.237282	2653.802016
405.618797	2655.016934
406.000250	2659.664878
406.381642	2660.010197
406.762972	2660.416010
407.144240	2659.795948
407.525447	2664.960610
407.906593	2664.990857
408.287677	2676.383865
408.668700	2677.530727
409.049661	2686.262006
409.430560	2693.664940
409.811399	2702.118955
410.192176	2716.987839
410.572891	2728.832030
410.953545	2748.096799
411.334138	2758.476535
411.714669	2782.840431
412.095139	2796.804427
412.475547	2833.468739
412.855894	2866.919316
413.236180	2908.954977
413.616405	2929.447268
413.996568	2984.645382
414.376670	3034.706560
414.756711	3077.032087
415.136691	3141.173208
415.516609	3216.241030
415.896466	3283.661422
416.276262	3375.780947
416.655997	3445.787450
417.035670	3552.932134
417.415283	3697.572920
417.794834	3790.499030
418.174324	3849.820807
418.553753	3922.531890
418.933121	4089.928445
419.312428	4200.629663
419.691674	4237.966968
420.070859	4481.174915
420.449983	4486.289166
420.829045	4708.099935
421.208047	4735.894337
421.586988	4960.031598
421.965867	5071.098300
422.344686	5223.497422
422.723444	5354.804356
423.102141	5175.157798
423.480777	5625.247137
423.859352	5505.214743
424.237866	5938.759015
424.616319	5971.143387
424.994712	6297.946267
425.373044	6187.232447
425.751314	6555.682820
426.129524	6586.436379
426.507673	6794.023532
426.885762	6998.354101
427.263789	7040.631737
427.641756	7088.351300
428.019662	7272.444156
428.397508	7542.148407
428.775292	7419.507216
429.153016	7811.192267
429.530679	7778.888553
429.908282	7911.717916
430.285824	7771.089888
430.663305	8395.172132
431.040726	8049.512815
431.418086	8116.227445
431.795385	8455.860062
432.172624	8599.560673
432.549802	8603.301209
432.926920	8749.933251
433.303977	8710.251809
433.680974	8947.760731
434.057910	9085.492616
434.434786	9191.253503
434.811601	9122.867731
435.188355	9683.222228
435.565050	9481.540786
435.941683	9458.979102
436.318257	9971.682092
436.694770	10116.675759
437.071222	10233.610363
437.447614	10129.508016
437.823946	10050.661849
438.200218	10232.208923
438.576429	10074.635056
438.952580	10330.017389
439.328670	10415.820348
439.704700	10216.649401
440.080670	10223.744825
440.456580	10805.418362
440.832429	10575.511499
441.208218	10195.584940
441.583947	10546.761799
441.959616	10684.486122
442.335224	10494.507719
442.710773	10660.381845
443.086261	10865.589574
443.461689	10174.218009
443.837057	10803.598505
444.212365	11104.257962
444.587612	10755.301731
444.962800	10994.484316
445.337927	10777.858374
445.712995	10347.999185
446.088002	11436.931266
446.462949	11082.724673
446.837837	11067.455018
447.212664	11078.868190
447.587431	11566.067983
447.962139	12275.053340
448.336786	14515.069887
448.711374	15087.550879
449.085901	12954.890744
449.460369	12560.115466
449.834776	12021.629495
450.209124	12869.329761
450.583412	13266.030760
450.957640	14220.245566
451.331808	13410.648861
451.705917	12376.153680
452.079965	11708.001670
452.453954	12592.721649
452.827883	12228.503325
453.201752	12509.076304
453.575562	12018.216633
453.949311	12445.467025
454.323001	12397.639078
454.696632	12623.596196
455.070202	12913.487748
455.443713	13163.223989
455.817164	13607.170682
456.190556	13626.259011
456.563888	13984.533815
456.937160	14158.282223
457.310373	13497.812931
457.683526	13565.225761
458.056619	13119.570117
458.429653	13255.923246
458.802628	12708.075852
459.175542	13069.551789
459.548398	14011.503988
459.921194	14337.215458
460.293930	14409.119956
460.666607	15301.489887
461.039224	16330.364181
461.411782	17025.942588
461.784280	16916.080723
462.156719	16962.018237
462.529099	16650.046431
462.901419	15573.124900
463.273680	15371.279620
463.645882	15218.749428
464.018024	14963.450274
464.390106	15176.481874
464.762130	15907.981023
465.134094	16665.936148
465.505999	18637.531417
465.877845	21893.040516
466.249631	24731.943619
466.621358	24437.623413
466.993026	22978.242143
467.364634	22429.832660
467.736184	20963.237498
468.107674	20161.242853
468.479105	20284.032757
468.850477	19768.289952
469.221790	19332.414146
469.593043	18672.786727
469.964238	18111.202188
470.335373	17781.084749
470.706449	18201.174182
471.077467	17754.573321
471.448425	19573.260312
471.819324	23566.963212
472.190164	25631.088860
472.560945	22118.574177
472.931667	19731.368541
473.302330	19094.068392
473.672934	18600.022712
474.043479	18950.408110
474.413965	18756.485004
474.784393	18378.980719
475.154761	19059.168484
475.525070	19061.936078
475.895321	18720.337411
476.265513	19294.202200
476.635645	19872.049501
477.005719	19666.551905
477.375734	19862.173880
477.745691	20338.013433
478.115588	20856.473421
478.485427	21376.160930
478.855207	22427.758225
479.224928	24178.918960
479.594591	26399.978248
479.964194	26455.375487
480.333739	26645.674004
480.703226	26210.405657
481.072653	25894.030404
481.442022	26445.333509
481.811333	27364.424075
482.180584	27293.749619
482.549777	26349.917069
482.918912	25993.341134
483.287988	26114.112057
483.657005	25781.012776
484.025964	25513.622414
484.394864	25446.519615
484.763706	25130.943384
485.132489	24556.004829
485.501213	24727.671241
485.869879	24650.097966
486.238487	24458.082936
486.607036	24603.026192
486.975527	24293.199397
487.343959	24633.540296
487.712333	24583.877369
488.080648	24244.953034
488.448905	24718.614808
488.817104	24462.718277
489.185244	25137.217100
489.553326	25094.878970
489.921350	26098.766785
490.289315	28353.750518
490.657222	30159.002833
491.025070	30649.292853
491.392861	30434.814443
491.760593	29607.971950
492.128267	28693.307517
492.495883	27651.532910
492.863440	26780.224921
493.230939	25906.983648
493.598380	25754.302222
493.965763	25353.858166
494.333088	24905.530711
494.700354	24842.939744
495.067563	24711.211874
495.434713	24468.006448
495.801805	24620.912206
496.168839	24425.123872
496.535815	24260.053810
496.902733	24474.479289
497.269593	24147.777232
497.636395	24341.420554
498.003139	24313.134640
498.369825	24064.754469
498.736453	24253.724642
499.103023	24132.767196
499.469535	24148.770339
499.835989	24352.869014
500.202385	24382.944538
500.568723	23887.109249
500.935003	24134.395489
501.301226	23744.805038
501.667390	24594.713329
502.033497	24820.052906
502.399546	24545.118458
502.765537	24121.495176
503.131470	24506.677139
503.497345	24635.148424
503.863163	23851.831254
504.228923	24460.452279
504.594625	24651.665765
504.960269	24181.948693
505.325856	24678.819940
505.691385	24082.214506
506.056856	24689.476939
506.422270	24658.496528
506.787625	24222.466967
507.152924	24643.816688
507.518164	24671.341388
507.883347	24479.243180
508.248472	24158.046062
508.613540	24946.593429
508.978550	24724.308792
509.343503	24730.146448
509.708398	24978.819005
510.073236	25139.805733
510.438016	25354.503434
510.802738	25023.400449
511.167403	25278.006445
511.532010	24973.472862
511.896561	25754.214002
512.261053	25717.716048
512.625488	25555.637911
512.989866	25446.522136
513.354186	25287.193948
513.718449	25399.170578
514.082655	25777.753670
514.446803	25522.220102
514.810894	25971.517979
515.174927	25461.494363
515.538904	25503.938357
515.902822	25983.583981
516.266684	25751.811892
516.630488	25636.631609
516.994235	25623.131399
517.357925	25921.487048
517.721558	26111.223476
518.085133	26202.601951
518.448651	26117.426616
518.812112	25837.367834
519.175516	26046.001027
519.538863	26204.361314
519.902152	25992.479097
520.265385	26269.891273
520.628560	26065.590951
520.991678	26064.585241
521.354739	26133.938915
521.717743	26212.437242
522.080690	26003.544430
522.443580	26336.991551
522.806413	26319.712996
523.169189	26429.234584
523.531908	26465.112476
523.894569	26071.741159
524.257174	26147.539948
524.619722	26324.431516
524.982213	26031.424531
525.344647	26086.166421
525.707025	26210.509001
526.069345	26206.786109
526.431608	26151.560268
526.793815	26346.844486
527.155964	25807.277187
527.518057	25969.186446
527.880093	25904.150520
528.242072	26126.770394
528.603995	25845.569792
528.965860	25653.108620
529.327669	25680.683732
529.689421	25683.194226
530.051117	25514.320614
530.412755	25684.598188
530.774337	25489.540822
531.135862	25354.856315
531.497331	25564.008747
531.858743	25108.815239
532.220098	25591.357006
532.581396	25272.279694
532.942638	25219.927311
533.303824	25316.893906
533.664953	25330.217675
534.026025	24993.133362
534.387040	25232.759568
534.747999	25277.824963
535.108902	25441.954850
535.469748	24947.934376
535.830537	25116.964265
536.191270	25243.441773
536.551947	25113.412772
536.912567	24765.845379
537.273131	25113.788338
537.633638	24806.928262
537.994089	25039.118767
538.354483	24557.176898
538.714821	25056.316663
539.075103	25112.394459
539.435328	24888.685695
539.795497	24445.177582
540.155609	24838.032181
540.515665	25148.080787
540.875665	24376.045719
541.235609	24684.970148
541.595496	24645.661750
541.955328	24989.329811
542.315102	24898.538630
542.674821	24452.555311
543.034483	24333.909235
543.394090	24506.319217
543.753640	24302.069307
544.113134	24925.397898
544.472571	24526.027608
544.831953	24827.796118
545.191278	24443.874444
545.550548	24366.747311
545.909761	24563.553957
546.268918	24808.619569
546.628019	24753.050930
546.987064	24456.116886
547.346053	24226.255394
547.704986	24326.370189
548.063863	24492.191383
548.422684	24500.322764
548.781449	24025.819118
549.140158	24443.387973
549.498811	24010.423434
549.857408	23756.016564
550.215949	24185.626215
550.574434	23861.963973
550.932864	24084.944290
551.291237	24234.779986
551.649555	24095.472740
552.007817	24146.900071
552.366022	24012.540718
552.724173	24060.237595
553.082267	24002.493699
553.440305	24487.803059
553.798288	23741.651796
554.156215	24250.463015
554.514086	24347.164949
554.871902	23724.713519
555.229661	24004.250541
555.587365	23866.085117
555.945014	23725.595721
556.302606	23983.808662
556.660143	23936.923411
557.017625	24179.954917
557.375050	23708.118040
557.732421	24101.509522
558.089735	23917.444392
558.446994	23976.017559
558.804197	24001.334233
559.161345	23938.198823
559.518437	23700.523542
559.875474	23896.097626
560.232455	24082.680812
560.589381	23897.496546
560.946251	23890.373396
561.303065	24198.665159
561.659825	24294.570591
562.016528	23889.836513
562.373177	23635.883347
562.729770	23999.037988
563.086307	23843.984698
563.442789	24024.427759
563.799216	23846.830430
564.155587	23854.931564
564.511904	23841.234749
564.868164	23777.000367
565.224370	23746.793773
565.580520	23666.939375
565.936615	23799.299911
566.292654	23494.199198
566.648638	23772.233956
567.004567	23604.502164
567.360441	23550.970152
567.716260	23282.637094
568.072023	23608.386373
568.427732	23363.676163
568.783385	23149.686744
569.138982	23391.636922
569.494525	23422.967694
569.850013	23174.877389
570.205445	23278.775570
570.560823	23081.890786
570.916145	22835.743847
571.271412	23012.572400
571.626625	22766.657354
571.981782	22889.069172
572.336884	22684.559643
572.691931	22824.746570
573.046923	22564.406262
573.401860	22437.210388
573.756743	22458.025312
574.111570	22351.818283
574.466342	22286.890742
574.821059	22370.152960
575.175722	22076.319226
575.530330	22064.283471
575.884882	22082.051017
576.239380	21996.207729
576.593823	21885.932489
576.948211	21857.323941
577.302544	21705.320549
577.656823	21568.632183
578.011047	21667.227070
578.365216	21544.361548
578.719330	21423.325965
579.073389	21315.016775
579.427394	21465.858180
579.781344	21238.996175
580.135239	21124.622476
580.489080	21083.768965
580.842866	20855.508040
581.196597	21061.739123
581.550273	21026.745954
581.903895	20922.000859
582.257463	21226.340358
582.610975	20753.608677
582.964434	21077.709498
583.317837	20772.069382
583.671186	20854.522494
584.024481	20829.394863
584.377721	20614.644230
584.730906	20674.122283
585.084037	20686.649551
585.437113	20596.738051
585.790135	20803.924433
586.143103	20263.260683
586.496016	20274.416757
586.848874	20511.048518
587.201679	20439.486819
587.554428	20134.267638
587.907124	20467.457661
588.259765	20236.068699
588.612352	20298.727721
588.964884	19877.193998
589.317362	20057.296781
589.669786	20110.584298
590.022155	20136.115221
590.374470	20333.259625
590.726731	20118.541759
591.078937	19908.280273
591.431090	19984.555452
591.783188	19735.923223
592.135232	19706.051866
592.487222	19806.373348
592.839157	19830.704477
593.191038	19705.522545
593.542866	19597.387274
593.894639	19305.912800
594.246358	19527.957983
594.598022	19440.594787
594.949633	19190.399801
595.301190	19159.963835
595.652692	19322.949380
596.004141	19559.361851
596.355535	18880.983860
596.706876	18901.488753
597.058162	18791.730231
597.409395	19023.598102
597.760573	19096.377241
598.111698	18868.338126
598.462768	18804.655750
598.813785	18778.111554
599.164748	18584.861442
599.515657	18635.583012
599.866511	18434.423329
600.217312	18784.833933
600.568060	18300.585736
600.918753	18614.420248
601.269392	18514.978447
601.619978	18297.969377
601.970510	18506.655502
602.320988	18453.120969
602.671412	18653.579931
603.021783	18566.504080
603.372100	18282.314073
603.722363	18429.495601
604.072572	18376.117344
604.422728	18513.788735
604.772830	18286.437737
605.122878	18238.138442
605.472872	18218.157829
605.822813	18213.207416
606.172701	18174.705603
606.522534	18375.688846
606.872314	18395.863543
607.222041	18229.611331
607.571714	18443.199978
607.921333	18267.724974
608.270899	18346.233384
608.620411	18519.260907
608.969870	18293.558367
609.319276	18296.020971
609.668627	18331.258636
610.017926	18465.451631
610.367171	18574.703517
610.716362	18624.023646
611.065500	18442.171582
611.414585	18583.059230
611.763616	18560.477381
612.112594	18503.908073
612.461518	18474.286253
612.810389	18656.440786
613.159207	18520.289302
613.507971	18433.379810
613.856682	18703.169761
614.205340	18624.326115
614.553945	18782.023490
614.902496	18532.619965
615.250994	18757.246218
615.599439	18705.445842
615.947830	18683.070681
616.296169	18748.131812
616.644454	18701.508701
616.992686	18675.435853
617.340864	18885.102483
617.688990	18640.518301
618.037063	18825.178287
618.385082	18661.681065
618.733048	18952.651424
619.080961	18822.314912
619.428821	18860.325212
619.776628	18742.216018
620.124382	18672.630451
620.472083	18714.371205
620.819731	18733.383917
621.167326	18433.823432
621.514868	18460.329819
621.862357	18232.056290
622.209793	18248.616481
622.557176	18075.956961
622.904506	17905.896157
623.251783	17811.755129
623.599007	17572.285198
623.946179	17525.364659
624.293297	17460.026264
624.640363	17210.925208
624.987376	17236.302377
625.334336	17022.265067
625.681243	16875.081018
626.028097	16887.136938
626.374899	16811.023077
626.721647	16676.242787
627.068343	16500.369532
627.414987	16436.573731
627.761577	16420.139569
628.108115	16451.445134
628.454600	16172.636559
628.801032	16279.088084
629.147412	16206.848350
629.493739	16216.797067
629.840014	16036.132195
630.186236	16133.980992
630.532405	15886.891356
630.878521	16092.406596
631.224585	15989.214177
631.570597	15812.627598
631.916556	15841.037021
632.262462	15823.939948
632.608316	15742.149747
632.954117	15681.872671
633.299866	15676.014850
633.645562	15592.480410
633.991206	15349.630385
634.336797	15224.697990
634.682336	15188.845304
635.027823	15074.953036
635.373257	14950.355877
635.718639	14861.588720
636.063968	14798.934739
