Dividing Wavelength (nm)	Counts (n)	Blue Motor Position (mm): 39.300000	Red Motor Position (mm): 0.000000	
326.493990	2245.569378
326.888308	2245.569378
327.282561	2245.569378
327.676750	2202.089426
328.070874	2204.267204
328.464933	2200.864426
328.858929	2206.366845
329.252859	2213.217773
329.646726	2219.461242
330.040528	2234.776268
330.434265	2244.661970
330.827938	2264.750968
331.221547	2281.885850
331.615091	2297.503345
332.008571	2315.674184
332.401986	2336.632781
332.795338	2355.504340
333.188625	2373.108050
333.581847	2393.416338
333.975006	2411.723288
334.368100	2433.362441
334.761129	2450.023454
335.154095	2467.221351
335.546996	2495.159425
335.939833	2534.263656
336.332606	2548.328475
336.725315	2561.183417
337.117960	2575.041549
337.510540	2588.060329
337.903056	2597.220106
338.295508	2605.802670
338.687896	2615.010337
339.080220	2620.555607
339.472480	2626.612553
339.864676	2633.902062
340.256807	2637.934985
340.648875	2644.153248
341.040879	2644.407826
341.432818	2648.055101
341.824694	2650.129536
342.216506	2649.156593
342.608253	2652.110709
342.999937	2651.009217
343.391557	2653.280257
343.783113	2651.798158
344.174605	2649.562406
344.566033	2650.248003
344.957397	2649.937972
345.348697	2648.198774
345.739934	2646.751963
346.131106	2641.723412
346.522215	2644.516211
346.913260	2642.562764
347.304241	2640.909265
347.695159	2638.242495
348.086012	2638.363483
348.476802	2634.968266
348.867528	2629.533902
349.258191	2626.826802
349.648789	2624.908643
350.039324	2624.291102
350.429796	2625.919394
350.820203	2625.740433
351.210548	2624.780094
351.600828	2622.919908
351.991045	2623.723972
352.381198	2624.878396
352.771288	2621.031996
353.161314	2621.210957
353.551276	2622.236832
353.941175	2619.839763
354.331010	2619.002931
354.720782	2618.846656
355.110490	2618.876902
355.500135	2619.993518
355.889717	2619.254989
356.279235	2618.639968
356.668689	2618.960082
357.058080	2618.534104
357.447408	2618.604680
357.836672	2622.294805
358.225873	2618.196347
358.615010	2618.486213
359.004084	2621.016872
359.393095	2621.420165
359.782043	2621.455453
360.170927	2623.633231
360.559748	2623.779425
360.948505	2625.405197
361.337199	2625.475773
361.725830	2622.577109
362.114398	2625.367388
362.502903	2628.324025
362.891344	2627.267903
363.279722	2625.909312
363.668037	2629.123048
364.056289	2628.419807
364.444478	2627.993829
364.832603	2628.049282
365.220665	2630.635394
365.608665	2630.191772
365.996601	2629.712863
366.384474	2631.903244
366.772284	2631.608337
367.160031	2631.716721
367.547715	2632.482977
367.935336	2630.305198
368.322893	2633.256794
368.710388	2629.843933
369.097820	2634.340642
369.485189	2630.274951
369.872495	2635.427011
370.259738	2634.958183
370.646918	2636.611682
371.034035	2638.882722
371.421090	2639.817856
371.808081	2638.335756
372.195010	2640.115284
372.581875	2639.550674
372.968678	2640.755510
373.355418	2641.816673
373.742096	2640.936992
374.128710	2640.642084
374.515262	2641.741056
374.901751	2640.810963
375.288177	2644.372538
375.674540	2641.199132
376.060841	2642.850110
376.447079	2643.558392
376.833254	2645.524442
377.219367	2645.721047
377.605417	2645.000162
377.991404	2645.847076
378.377329	2646.361273
378.763191	2645.448824
379.148991	2649.459062
379.534727	2650.802530
379.920402	2649.837149
380.306013	2648.380255
380.691563	2649.643064
381.077049	2650.558034
381.462474	2653.865031
381.847835	2651.609114
382.233134	2652.282108
382.618371	2652.662716
383.003545	2654.379228
383.388657	2654.056595
383.773706	2656.259579
384.158693	2655.788231
384.543618	2657.129178
384.928480	2653.055926
385.313280	2656.642707
385.698017	2655.389980
386.082692	2658.649086
386.467305	2659.279230
386.851856	2658.417193
387.236344	2660.242090
387.620770	2659.347286
388.005133	2658.321411
388.389435	2662.729900
388.773674	2661.870383
389.157851	2668.791887
389.541965	2670.374810
389.926018	2673.807835
390.310008	2679.090965
390.693936	2687.645803
391.077802	2694.403469
391.461606	2704.773123
391.845348	2715.014227
392.229027	2736.860067
392.612645	2752.437232
392.996200	2779.840945
393.379694	2810.360090
393.763125	2851.662264
394.146494	2889.070146
394.529801	2939.947991
394.913047	3001.145078
395.296230	3040.171171
395.679351	3111.657253
396.062410	3177.295596
396.445408	3230.336097
396.828343	3306.197900
397.211217	3378.644322
397.594028	3412.231010
397.976778	3511.498891
398.359466	3593.198350
398.742092	3671.321112
399.124656	3701.164742
399.507158	3820.284687
399.889598	3919.424019
400.271977	4052.059297
400.654294	4110.042648
401.036549	4209.867577
401.418742	4233.745002
401.800874	4422.105195
402.182944	4520.997510
402.564952	4669.456970
402.946898	4778.575266
403.328783	4735.037341
403.710606	4807.004853
404.092367	5103.389411
404.474067	5189.623389
404.855705	5171.369371
405.237282	5173.849618
405.618797	5427.457465
406.000250	5471.789372
406.381642	5680.331825
406.762972	5749.262042
407.144240	5852.215006
407.525447	5877.745930
407.906593	5950.202434
408.287677	6129.269260
408.668700	6082.409214
409.049661	6230.722481
409.430560	6281.537312
409.811399	6177.084604
410.192176	6468.949768
410.572891	6485.671275
410.953545	6708.989349
411.334138	6472.236600
411.714669	6656.952039
412.095139	6471.813143
412.475547	6725.229426
412.855894	6805.603063
413.236180	6981.322562
413.616405	6686.732655
413.996568	6905.249030
414.376670	6942.553569
414.756711	6845.833991
415.136691	6946.430216
415.516609	7150.155846
415.896466	7154.125754
416.276262	7346.796134
416.655997	7334.856161
417.035670	7532.459309
417.415283	7865.596400
417.794834	7913.290756
418.174324	7777.172041
418.553753	7693.236829
418.933121	8019.898557
419.312428	8116.839946
419.691674	7900.955053
420.070859	8370.697330
420.449983	8057.689567
420.829045	8411.349194
421.208047	8195.199641
421.586988	8487.952048
421.965867	8507.292434
422.344686	8626.117472
422.723444	8656.414806
423.102141	8032.627471
423.480777	8774.748331
423.859352	8300.408522
424.237866	8924.042102
424.616319	8790.585116
424.994712	9197.859935
425.373044	8765.346579
425.751314	9221.409685
426.129524	9095.186755
426.507673	9215.380465
426.885762	9365.755564
427.263789	9278.825907
427.641756	9208.438797
428.019662	9295.708731
428.397508	9543.741062
428.775292	9237.886697
429.153016	9619.280232
429.530679	9443.492677
429.908282	9488.958843
430.285824	9204.209268
430.663305	9883.529955
431.040726	9333.073764
431.418086	9326.895830
431.795385	9643.956680
432.172624	9739.035362
432.549802	9648.408019
432.926920	9730.109999
433.303977	9602.359599
433.680974	9815.222320
434.057910	9898.862624
434.434786	9962.247572
434.811601	9804.036000
435.188355	10378.084791
435.565050	10101.368295
435.941683	10029.627635
436.318257	10520.762048
436.694770	10665.526342
437.071222	10718.362676
437.447614	10568.002701
437.823946	10458.508839
438.200218	10597.541342
438.576429	10409.884390
438.952580	10653.762810
439.328670	10709.137364
439.704700	10495.762966
440.080670	10483.550771
440.456580	11038.990143
440.832429	10794.554675
441.208218	10391.738757
441.583947	10718.914682
441.959616	10867.293484
442.335224	10678.161995
442.710773	10808.465739
443.086261	11022.412308
443.461689	10307.274224
443.837057	10957.230189
444.212365	11229.276057
444.587612	10872.334638
444.962800	11096.035840
445.337927	10863.310972
445.712995	10463.817174
446.088002	11541.396576
446.462949	11207.140350
446.837837	11179.124137
447.212664	11147.760599
447.587431	11678.871362
447.962139	12407.839852
448.336786	14685.549107
448.711374	15219.792947
449.085901	13066.844689
449.460369	12680.203313
449.834776	12129.558078
450.209124	13018.210157
450.583412	13429.855657
450.957640	14373.327764
451.331808	13494.158095
451.705917	12499.137669
452.079965	11793.678600
452.453954	12699.977238
452.827883	12333.850838
453.201752	12621.514199
453.575562	12142.579378
453.949311	12567.533524
454.323001	12536.593442
454.696632	12766.674224
455.070202	13047.017831
455.443713	13277.005352
455.817164	13744.176640
456.190556	13724.097725
456.563888	14094.166308
456.937160	14250.938631
457.310373	13606.180095
457.683526	13690.821068
458.056619	13230.500707
458.429653	13394.232343
458.802628	12810.633086
459.175542	13189.611909
459.548398	14144.532476
459.921194	14483.149300
460.293930	14556.256113
460.666607	15425.368681
461.039224	16470.762836
461.411782	17179.372626
461.784280	17021.534099
462.156719	17087.580777
462.529099	16777.698529
462.901419	15708.406784
463.273680	15493.199926
463.645882	15371.977820
464.018024	15110.286483
464.390106	15332.984495
464.762130	16040.664193
465.134094	16826.449007
465.505999	18837.577005
465.877845	22091.130136
466.249631	24920.644090
466.621358	24580.966103
466.993026	23143.501248
467.364634	22578.334970
467.736184	21114.368769
468.107674	20308.603341
468.479105	20445.863878
468.850477	19914.659853
469.221790	19496.317181
469.593043	18810.322007
469.964238	18255.727028
470.335373	17902.863903
470.706449	18363.436321
471.077467	17927.943643
471.448425	19779.919893
471.819324	23846.709442
472.190164	25800.864839
472.560945	22197.795910
472.931667	19864.991885
473.302330	19237.453931
473.672934	18798.954205
474.043479	19086.294933
474.413965	18909.234486
474.784393	18509.052571
475.154761	19237.612727
475.525070	19190.843422
475.895321	18882.738182
476.265513	19489.413321
476.635645	20063.431865
477.005719	19835.196145
477.375734	20018.366470
477.745691	20509.057262
478.115588	21036.992099
478.485427	21585.504925
478.855207	22653.632164
479.224928	24431.289204
479.594591	26653.858317
479.964194	26646.979663
480.333739	26849.316455
480.703226	26436.569463
481.072653	26135.647866
481.442022	26716.824849
481.811333	27638.115879
482.180584	27544.007619
482.549777	26613.385413
482.918912	26258.331907
483.287988	26375.999999
483.657005	26027.789859
484.025964	25796.451309
484.394864	25690.566914
484.763706	25367.474323
485.132489	24813.252389
485.501213	24982.073070
485.869879	24891.692743
486.238487	24719.585230
486.607036	24862.970769
486.975527	24579.630197
487.343959	24899.793878
487.712333	24818.107021
488.080648	24486.348686
488.448905	24979.812112
488.817104	24738.489557
489.185244	25433.405053
489.553326	25381.040068
489.921350	26400.212661
490.289315	28707.251349
490.657222	30471.592180
491.025070	30969.441411
491.392861	30724.302702
491.760593	29879.927077
492.128267	28971.682553
492.495883	27917.121059
492.863440	27051.507053
493.230939	26173.632961
493.598380	26021.558993
493.965763	25628.815300
494.333088	25159.347766
494.700354	25112.129798
495.067563	24963.748476
495.434713	24724.770057
495.801805	24885.154367
496.168839	24673.912377
496.535815	24535.391551
496.902733	24733.980245
497.269593	24426.648822
497.636395	24603.857982
498.003139	24557.933071
498.369825	24302.565861
498.736453	24502.427446
499.103023	24370.780234
499.469535	24383.733479
499.835989	24611.457522
500.202385	24624.902279
500.568723	24143.598115
500.935003	24365.529872
501.301226	24009.994936
501.667390	24842.410423
502.033497	25074.490023
502.399546	24794.819410
502.765537	24352.513613
503.131470	24744.203705
503.497345	24879.409972
503.863163	24115.067705
504.228923	24687.654562
504.594625	24900.817232
504.960269	24444.217243
505.325856	24928.767909
505.691385	24332.835469
506.056856	24937.998262
506.422270	24914.627473
506.787625	24462.493946
507.152924	24876.561720
507.518164	24926.207003
507.883347	24727.459513
508.248472	24412.939404
508.613540	25197.501738
508.978550	24985.299408
509.343503	24983.240097
509.708398	25220.955707
510.073236	25388.342179
510.438016	25593.668375
510.802738	25259.117241
511.167403	25522.595668
511.532010	25240.522945
511.896561	26003.151220
512.261053	25960.145136
512.625488	25794.391998
512.989866	25693.815937
513.354186	25527.379723
513.718449	25655.919063
514.082655	26031.701795
514.446803	25761.884117
514.810894	26226.703708
515.174927	25719.180503
515.538904	25746.251499
515.902822	26245.131646
516.266684	25997.227864
516.630488	25895.948563
516.994235	25865.918409
517.357925	26186.893716
517.721558	26362.005756
518.085133	26467.270090
518.448651	26350.509405
518.812112	26107.671983
519.175516	26318.601422
519.538863	26471.398795
519.902152	26273.823373
520.265385	26545.125670
520.628560	26330.836302
520.991678	26317.928428
521.354739	26389.298563
521.717743	26470.919885
522.080690	26247.979898
522.443580	26575.733035
522.806413	26550.199591
523.169189	26671.746852
523.531908	26711.884518
523.894569	26322.382287
524.257174	26412.361842
524.619722	26574.956698
524.982213	26269.198114
525.344647	26310.545658
525.707025	26462.702804
526.069345	26435.813290
526.431608	26402.604689
526.793815	26582.803254
527.155964	26057.704066
527.518057	26235.911375
527.880093	26150.103375
528.242072	26377.605607
528.603995	26099.868277
528.965860	25886.103189
529.327669	25920.529229
529.689421	25910.260398
530.051117	25752.666367
530.412755	25931.113131
530.774337	25720.891975
531.135862	25601.956032
531.497331	25802.364583
531.858743	25370.093202
532.220098	25856.357861
532.581396	25534.356680
532.942638	25446.232269
533.303824	25564.286010
533.664953	25557.286368
534.026025	25218.684667
534.387040	25464.745907
534.747999	25514.328175
535.108902	25688.169845
535.469748	25177.662277
535.830537	25344.857186
536.191270	25480.360881
536.551947	25329.915206
536.912567	24959.014832
537.273131	25363.577511
537.633638	25049.468256
537.994089	25266.931030
538.354483	24775.655464
538.714821	25284.171776
539.075103	25324.221223
539.435328	25095.950215
539.795497	24682.739437
540.155609	25053.637290
540.515665	25355.632652
540.875665	24577.694394
541.235609	24899.042746
541.595496	24837.328940
541.955328	25202.563057
542.315102	25129.554546
542.674821	24642.952130
543.034483	24526.501476
543.394090	24705.288518
543.753640	24500.892415
544.113134	25122.325532
544.472571	24725.826179
544.831953	25023.196282
545.191278	24668.629247
545.550548	24574.079886
545.909761	24761.454534
546.268918	24989.783515
546.628019	24970.496060
546.987064	24656.442258
547.346053	24406.151490
547.704986	24517.432441
548.063863	24672.722664
548.422684	24687.394943
548.781449	24208.949113
549.140158	24618.028666
549.498811	24193.744993
549.857408	23953.539054
550.215949	24351.696946
550.574434	24045.663620
550.932864	24255.942749
551.291237	24413.625001
551.649555	24264.429532
552.007817	24335.172044
552.366022	24186.357182
552.724173	24220.016967
553.082267	24171.538711
553.440305	24664.487939
553.798288	23901.340426
554.156215	24415.212964
554.514086	24523.716239
554.871902	23909.214708
555.229661	24179.186141
555.587365	24030.938409
555.945014	23917.514968
556.302606	24150.517099
556.660143	24119.818993
557.017625	24369.182188
557.375050	23887.033632
557.732421	24278.776656
558.089735	24085.692902
558.446994	24146.539629
558.804197	24187.249467
559.161345	24092.316978
559.518437	23871.975705
559.875474	24051.281986
560.232455	24238.465069
560.589381	24055.992944
560.946251	24035.669532
561.303065	24342.489279
561.659825	24444.670947
562.016528	24057.747265
562.373177	23792.620382
562.729770	24159.881042
563.086307	24009.977292
563.442789	24170.245655
563.799216	24023.938767
564.155587	24010.960317
564.511904	23997.717205
564.868164	23942.612353
565.224370	23902.164655
565.580520	23840.811292
565.936615	23955.124497
566.292654	23650.500173
566.648638	23924.438993
567.004567	23744.868052
567.360441	23690.400905
567.716260	23419.156581
568.072023	23743.194389
568.427732	23522.447303
568.783385	23285.215644
569.138982	23518.293392
569.494525	23566.012955
569.850013	23318.746879
570.205445	23417.540892
570.560823	23245.340117
570.916145	23001.378518
571.271412	23178.380991
571.626625	22927.124843
571.981782	23023.751159
572.336884	22837.873734
572.691931	22988.465603
573.046923	22714.952759
573.401860	22592.551023
573.756743	22615.422738
574.111570	22515.340711
574.466342	22446.206327
574.821059	22520.729705
575.175722	22224.632492
575.530330	22185.097243
575.884882	22217.766441
576.239380	22141.647538
576.593823	22025.040609
576.948211	21997.523470
577.302544	21845.421777
577.656823	21712.332794
578.011047	21822.973518
578.365216	21683.767096
578.719330	21560.906615
579.073389	21453.726643
579.427394	21603.156526
579.781344	21364.117613
580.135239	21248.476064
580.489080	21202.513344
580.842866	20985.978143
581.196597	21186.598422
581.550273	21153.601549
581.903895	21036.324146
582.257463	21348.071620
582.610975	20885.253368
582.964434	21208.098943
583.317837	20887.025334
583.671186	20983.006382
584.024481	20958.609718
584.377721	20724.349820
584.730906	20804.852005
585.084037	20795.634256
585.437113	20721.259592
585.790135	20921.257289
586.143103	20385.796010
586.496016	20394.068543
586.848874	20639.968466
587.201679	20551.385311
587.554428	20250.660319
587.907124	20581.125598
588.259765	20342.989052
588.612352	20419.019734
588.964884	19980.323403
589.317362	20155.327059
589.669786	20215.510874
590.022155	20230.326825
590.374470	20441.775502
590.726731	20223.594364
591.078937	20002.474233
591.431090	20093.903120
591.783188	19848.451859
592.135232	19824.108127
592.487222	19914.866541
592.839157	19923.451626
593.191038	19813.010027
593.542866	19712.212156
593.894639	19412.533204
594.246358	19630.424476
594.598022	19517.938690
594.949633	19273.241082
595.301190	19262.236243
595.652692	19422.585265
596.004141	19651.047837
596.355535	18983.311722
596.706876	19005.046656
597.058162	18894.642867
597.409395	19127.677765
597.760573	19187.027269
598.111698	18962.204410
598.462768	18905.226769
598.813785	18871.047746
599.164748	18680.774435
599.515657	18722.482422
599.866511	18520.821144
600.217312	18871.433394
600.568060	18399.946878
600.918753	18706.418785
601.269392	18601.358618
601.619978	18395.939161
601.970510	18585.534436
602.320988	18532.236837
602.671412	18740.186954
603.021783	18668.095933
603.372100	18371.683649
603.722363	18523.913892
604.072572	18471.606880
604.422728	18630.536817
604.772830	18367.807002
605.122878	18331.069593
605.472872	18316.558632
605.822813	18305.977250
606.172701	18285.197613
606.522534	18465.005489
606.872314	18491.826948
607.222041	18319.540474
607.571714	18541.320996
607.921333	18365.576291
608.270899	18438.768804
608.620411	18604.043033
608.969870	18391.732318
609.319276	18384.785608
609.668627	18417.641328
610.017926	18557.235919
610.367171	18661.396240
610.716362	18720.821361
611.065500	18528.420684
611.414585	18677.341409
611.763616	18656.725611
612.112594	18600.335264
612.461518	18578.917922
612.810389	18753.445188
613.159207	18615.826730
613.507971	18521.834416
613.856682	18785.791752
614.205340	18708.654537
614.553945	18860.002578
614.902496	18607.702910
615.250994	18821.306681
615.599439	18777.148694
615.947830	18767.116798
616.296169	18828.301282
616.644454	18785.968192
616.992686	18752.913347
617.340864	18977.564806
617.688990	18728.786384
618.037063	18902.680986
618.385082	18754.140868
618.733048	19040.135608
619.080961	18919.112627
619.428821	18940.666081
619.776628	18822.592175
620.124382	18750.980064
620.472083	18808.297983
620.819731	18810.107758
621.167326	18508.024175
621.514868	18541.900729
621.862357	18326.202359
622.209793	18326.315785
622.557176	18160.978542
622.904506	17986.047982
623.251783	17906.221311
623.599007	17662.738622
623.946179	17613.491590
624.293297	17543.369140
624.640363	17273.596833
624.987376	17307.294426
625.334336	17106.046523
625.681243	16948.515507
626.028097	16970.263044
626.374899	16884.974283
626.721647	16751.786998
627.068343	16583.392295
627.414987	16524.163779
627.761577	16484.235320
628.108115	16518.119435
628.454600	16241.551653
628.801032	16345.273393
629.147412	16282.233764
629.493739	16297.798327
629.840014	16114.411232
630.186236	16211.163577
630.532405	15963.884899
630.878521	16168.659089
631.224585	16066.169911
631.570597	15888.224742
631.916556	15910.254584
632.262462	15892.343364
632.608316	15807.725076
632.954117	15761.059115
633.299866	15740.062709
633.645562	15661.564382
633.991206	15432.159115
634.336797	15299.274299
634.682336	15261.274082
635.027823	15138.711029
635.373257	15009.907028
635.718639	14930.445840
636.063968	14876.616399
