Dividing Wavelength (nm)	Counts (n)	Blue Motor Position (mm): 16.300000	Red Motor Position (mm): 0.000000	
326.493990	2176.767710
326.888308	2176.767710
327.282561	2176.767710
327.676750	2134.658952
328.070874	2132.304733
328.464933	2132.841616
328.858929	2136.846813
329.252859	2139.042235
329.646726	2148.479275
330.040528	2160.472180
330.434265	2173.130518
330.827938	2193.620288
331.221547	2211.060159
331.615091	2227.333004
332.008571	2247.500140
332.401986	2267.662235
332.795338	2282.241252
333.188625	2303.144396
333.581847	2318.885399
333.975006	2336.579849
334.368100	2357.067098
334.761129	2373.647453
335.154095	2393.905330
335.546996	2414.725295
335.939833	2444.208483
336.332606	2456.115689
336.725315	2470.460292
337.117960	2479.771303
337.510540	2492.946359
337.903056	2504.014212
338.295508	2513.731036
338.687896	2522.147243
339.080220	2529.862728
339.472480	2536.786753
339.864676	2541.054090
340.256807	2546.508618
340.648875	2549.916438
341.040879	2552.673950
341.432818	2554.826522
341.824694	2560.986812
342.216506	2561.601833
342.608253	2562.922615
342.999937	2561.831206
343.391557	2565.009653
343.783113	2562.370609
344.174605	2559.653427
344.566033	2560.321380
344.957397	2559.073694
345.348697	2558.456153
345.739934	2557.949517
346.131106	2556.474980
346.522215	2550.662529
346.913260	2550.080276
347.304241	2548.376366
347.695159	2546.622044
348.086012	2545.487785
348.476802	2545.039122
348.867528	2538.972093
349.258191	2535.138296
349.648789	2535.599562
350.039324	2532.408511
350.429796	2534.692154
350.820203	2533.653676
351.210548	2534.551002
351.600828	2530.828109
351.991045	2528.652852
352.381198	2531.165867
352.771288	2526.459950
353.161314	2527.256452
353.551276	2528.400794
353.941175	2527.132944
354.331010	2525.691174
354.720782	2524.642614
355.110490	2526.918695
355.500135	2526.510361
355.889717	2528.655372
356.279235	2523.064732
356.668689	2526.167563
357.058080	2527.231246
357.447408	2529.073788
357.836672	2525.744106
358.225873	2529.542615
358.615010	2525.759229
359.004084	2528.887265
359.393095	2530.084539
359.782043	2528.738551
360.170927	2530.006401
360.559748	2527.765608
360.948505	2531.740558
361.337199	2533.867925
361.725830	2533.119314
362.114398	2535.133255
362.502903	2532.547143
362.891344	2532.562266
363.279722	2535.057638
363.668037	2534.039324
364.056289	2535.662576
364.444478	2535.271887
364.832603	2535.828934
365.220665	2537.328677
365.608665	2537.648791
365.996601	2538.553678
366.384474	2536.960673
366.772284	2537.386651
367.160031	2540.068544
367.547715	2540.471837
367.935336	2539.125849
368.322893	2535.438245
368.710388	2536.703574
369.097820	2538.407484
369.485189	2533.394057
369.872495	2541.598535
370.259738	2539.269522
370.646918	2542.969728
371.034035	2539.445962
371.421090	2541.923689
371.808081	2540.872608
372.195010	2541.785057
372.581875	2540.020653
372.968678	2545.220604
373.355418	2542.959646
373.742096	2541.061652
374.128710	2546.294369
374.515262	2544.746735
374.901751	2540.701209
375.288177	2547.113557
375.674540	2544.529966
376.060841	2543.355377
376.447079	2544.169523
376.833254	2545.613814
377.219367	2542.982331
377.605417	2544.792106
377.991404	2544.136756
378.377329	2547.229503
378.763191	2546.271684
379.148991	2546.722867
379.534727	2545.061807
379.920402	2547.640357
380.306013	2546.115408
380.691563	2550.788558
381.077049	2548.598177
381.462474	2549.137580
381.847835	2546.866540
382.233134	2549.944165
382.618371	2546.866540
383.003545	2548.905687
383.388657	2545.845707
383.773706	2548.976263
384.158693	2548.051212
384.543618	2551.335523
384.928480	2551.660678
385.313280	2547.683207
385.698017	2551.252344
386.082692	2549.082128
386.467305	2552.003476
386.851856	2553.074721
387.236344	2552.661347
387.620770	2548.061294
388.005133	2548.550286
388.389435	2549.626572
388.773674	2548.794782
389.157851	2554.191337
389.541965	2551.282591
389.926018	2551.269988
390.310008	2551.963147
390.693936	2554.231666
391.077802	2552.827705
391.461606	2554.894578
391.845348	2551.862324
392.229027	2554.854249
392.612645	2555.408776
392.996200	2553.762839
393.379694	2555.252500
393.763125	2554.070349
394.146494	2556.941286
394.529801	2558.438509
394.913047	2555.008004
395.296230	2553.634289
395.679351	2554.206460
396.062410	2556.096893
396.445408	2555.902809
396.828343	2554.957592
397.211217	2556.779969
397.594028	2557.105124
397.976778	2551.970709
398.359466	2557.679815
398.742092	2557.165618
399.124656	2555.718807
399.507158	2561.455640
399.889598	2557.309291
400.271977	2559.625701
400.654294	2559.242573
401.036549	2557.342058
401.418742	2563.295661
401.800874	2556.918601
402.182944	2559.930691
402.564952	2561.861452
402.946898	2555.925494
403.328783	2561.067471
403.710606	2557.407593
404.092367	2559.502193
404.474067	2561.420352
404.855705	2562.136195
405.237282	2561.828685
405.618797	2562.133675
406.000250	2559.895402
406.381642	2561.967317
406.762972	2558.448591
407.144240	2557.362223
407.525447	2558.836760
407.906593	2556.389280
408.287677	2559.693756
408.668700	2560.654096
409.049661	2560.533108
409.430560	2562.698284
409.811399	2560.185269
410.192176	2561.112841
410.572891	2560.742316
410.953545	2563.424210
411.334138	2563.028480
411.714669	2565.249108
412.095139	2564.346741
412.475547	2564.750034
412.855894	2565.997719
413.236180	2561.334652
413.616405	2563.605692
413.996568	2564.210630
414.376670	2563.797256
414.756711	2564.876062
415.136691	2564.566032
415.516609	2567.139541
415.896466	2565.080229
416.276262	2561.543860
416.655997	2566.116186
417.035670	2564.407235
417.415283	2565.337328
417.794834	2566.017884
418.174324	2566.164077
418.553753	2568.210786
418.933121	2566.486711
419.312428	2568.540981
419.691674	2567.202555
420.070859	2565.327246
420.449983	2567.651218
420.829045	2565.889334
421.208047	2566.438820
421.586988	2567.981413
421.965867	2567.368913
422.344686	2566.433779
422.723444	2568.147771
423.102141	2568.558625
423.480777	2567.668862
423.859352	2563.870352
424.237866	2568.581311
424.616319	2568.692216
424.994712	2570.756568
425.373044	2570.355797
425.751314	2567.704150
426.129524	2565.748182
426.507673	2566.489232
426.885762	2565.634756
427.263789	2569.697926
427.641756	2569.997875
428.019662	2570.015519
428.397508	2567.651218
428.775292	2570.789336
429.153016	2570.043245
429.530679	2570.577608
429.908282	2568.949315
430.285824	2569.503842
430.663305	2568.619119
431.040726	2570.494428
431.418086	2569.234140
431.795385	2570.635581
432.172624	2570.083574
432.549802	2571.021229
432.926920	2570.302865
433.303977	2571.850499
433.680974	2570.998544
434.057910	2571.295972
434.434786	2573.355283
434.811601	2570.277659
435.188355	2571.469892
435.565050	2572.074830
435.941683	2571.724470
436.318257	2573.720767
436.694770	2574.728998
437.071222	2570.973338
437.447614	2574.015674
437.823946	2569.468554
438.200218	2573.962742
438.576429	2570.025601
438.952580	2574.852506
439.328670	2572.447876
439.704700	2573.929975
440.080670	2575.192784
440.456580	2572.049624
440.832429	2574.403843
441.208218	2570.459140
441.583947	2572.785633
441.959616	2570.486867
442.335224	2574.597928
442.710773	2573.587176
443.086261	2574.855027
443.461689	2571.989131
443.837057	2571.321178
444.212365	2575.394430
444.587612	2569.246743
444.962800	2572.145406
445.337927	2570.796898
445.712995	2568.324212
446.088002	2574.318144
446.462949	2575.510377
446.837837	2577.443659
447.212664	2576.306879
447.587431	2575.346539
447.962139	2576.672362
448.336786	2576.455593
448.711374	2577.093299
449.085901	2575.601117
449.460369	2577.980542
449.834776	2576.614389
450.209124	2578.731674
450.583412	2577.965418
450.957640	2576.458113
451.331808	2580.937179
451.705917	2574.373596
452.079965	2579.046746
452.453954	2582.210070
452.827883	2579.371900
453.201752	2578.078844
453.575562	2578.802250
453.949311	2579.013978
454.323001	2577.768813
454.696632	2580.244020
455.070202	2583.480441
455.443713	2579.581108
455.817164	2580.841397
456.190556	2579.326530
456.563888	2580.705286
456.937160	2577.186560
457.310373	2580.851479
457.683526	2578.976170
458.056619	2579.916345
458.429653	2578.313258
458.802628	2580.465831
459.175542	2580.944740
459.548398	2580.589339
459.921194	2580.417940
460.293930	2581.960533
460.666607	2580.296952
461.039224	2581.743763
461.411782	2585.431367
461.784280	2584.055132
462.156719	2584.629824
462.529099	2583.931624
462.901419	2583.525811
463.273680	2580.934658
463.645882	2578.396437
464.018024	2583.271233
464.390106	2577.335274
464.762130	2582.925914
465.134094	2585.945565
465.505999	2586.421954
465.877845	2586.671491
466.249631	2589.865062
466.621358	2589.824733
466.993026	2592.153746
467.364634	2594.606267
467.736184	2589.890268
468.107674	2585.887592
468.479105	2588.846749
468.850477	2588.284660
469.221790	2589.741554
469.593043	2588.322469
469.964238	2585.237283
470.335373	2588.766091
470.706449	2589.849939
471.077467	2588.209043
471.448425	2590.165011
471.819324	2595.201123
472.190164	2593.933273
472.560945	2591.944538
472.931667	2594.119796
473.302330	2591.447984
473.672934	2589.250041
474.043479	2589.297932
474.413965	2591.352202
474.784393	2590.517892
475.154761	2592.501586
475.525070	2588.831626
475.895321	2589.015628
476.265513	2592.362954
476.635645	2593.161977
477.005719	2590.031420
477.375734	2593.247676
477.745691	2593.638366
478.115588	2592.592326
478.485427	2594.437389
478.855207	2592.851946
479.224928	2596.100969
479.594591	2601.762185
479.964194	2599.236567
480.333739	2598.177925
480.703226	2600.161619
481.072653	2601.066506
481.442022	2598.941660
481.811333	2597.729262
482.180584	2595.596854
482.549777	2600.958121
482.918912	2594.850763
483.287988	2600.627926
483.657005	2598.770260
484.025964	2598.840837
484.394864	2600.854777
484.763706	2602.238574
485.132489	2599.418049
485.501213	2601.479881
485.869879	2600.627926
486.238487	2599.133223
486.607036	2600.781681
486.975527	2601.305961
487.343959	2599.108018
487.712333	2602.551126
488.080648	2597.331011
488.448905	2603.574480
488.817104	2597.058789
489.185244	2601.411825
489.553326	2603.118256
489.921350	2604.640684
490.289315	2605.369131
490.657222	2606.720160
491.025070	2607.728391
491.392861	2610.178392
491.760593	2609.482712
492.128267	2606.924327
492.495883	2606.523555
492.863440	2605.016250
493.230939	2607.151179
493.598380	2604.355859
493.965763	2606.420211
494.333088	2605.507762
494.700354	2605.129676
495.067563	2604.726384
495.434713	2605.928699
495.801805	2606.493308
496.168839	2605.250664
496.535815	2606.352156
496.902733	2607.262084
497.269593	2606.642022
497.636395	2607.630088
498.003139	2606.831065
498.369825	2608.252671
498.736453	2606.687392
499.103023	2609.056735
499.469535	2608.585387
499.835989	2608.837445
500.202385	2605.059100
500.568723	2609.971704
500.935003	2609.896087
501.301226	2606.488267
501.667390	2612.971191
502.033497	2615.096037
502.399546	2611.968001
502.765537	2615.988321
503.131470	2612.215018
503.497345	2612.575460
503.863163	2615.615276
504.228923	2617.135184
504.594625	2616.348764
504.960269	2617.546038
505.325856	2619.197016
505.691385	2615.448918
506.056856	2619.960751
506.422270	2619.471759
506.787625	2623.411420
507.152924	2622.435957
507.518164	2626.052985
507.883347	2624.134826
508.248472	2625.624487
508.613540	2625.513582
508.978550	2628.795373
509.343503	2629.493572
509.708398	2631.678913
510.073236	2632.099849
510.438016	2634.910292
510.802738	2632.593882
511.167403	2637.322484
511.532010	2638.945736
511.896561	2640.768113
512.261053	2642.971097
512.625488	2643.518062
512.989866	2645.088382
513.354186	2649.514515
513.718449	2649.627941
514.082655	2654.142294
514.446803	2653.585247
514.810894	2655.878972
515.174927	2659.450629
515.538904	2662.477842
515.902822	2662.558501
516.266684	2667.161074
516.630488	2666.785508
516.994235	2672.434121
517.357925	2675.962929
517.721558	2679.998372
518.085133	2682.148424
518.448651	2687.734023
518.812112	2684.679084
519.175516	2689.011955
519.538863	2692.734847
519.902152	2700.835982
520.265385	2705.872094
520.628560	2707.825542
520.991678	2713.184288
521.354739	2721.880278
521.717743	2722.404558
522.080690	2731.362689
522.443580	2735.206569
522.806413	2744.520100
523.169189	2749.974629
523.531908	2760.056937
523.894569	2759.930908
524.257174	2769.325098
524.619722	2776.216355
524.982213	2780.821449
525.344647	2786.099537
525.707025	2801.777526
526.069345	2808.820018
526.431608	2816.916111
526.793815	2830.731393
527.155964	2833.695591
527.518057	2846.674042
527.880093	2857.099148
528.242072	2865.802700
528.603995	2880.074207
528.965860	2887.126781
529.327669	2902.068761
529.689421	2916.176430
530.051117	2927.216557
530.412755	2946.274639
530.774337	2958.154118
531.135862	2968.044862
531.497331	2990.939262
531.858743	2997.878410
532.220098	3029.226826
532.581396	3036.496169
532.942638	3057.298491
533.303824	3076.159968
533.664953	3103.412446
534.026025	3119.919704
534.387040	3139.766727
534.747999	3171.407529
535.108902	3194.017104
535.469748	3206.693085
535.830537	3238.142323
536.191270	3269.067282
536.551947	3297.451498
536.912567	3301.731438
537.273131	3350.058459
537.633638	3369.499669
537.994089	3412.818304
538.354483	3424.854059
538.714821	3476.228458
539.075103	3523.030530
539.435328	3550.635888
539.795497	3567.347313
540.155609	3617.393368
540.515665	3669.803724
540.875665	3679.361752
541.235609	3725.694997
541.595496	3772.265176
541.955328	3836.650793
542.315102	3877.053121
542.674821	3898.581368
543.034483	3935.364147
543.394090	3982.113287
543.753640	4016.090664
544.113134	4093.318621
544.472571	4135.427379
544.831953	4222.278898
545.191278	4235.254828
545.550548	4289.522849
545.909761	4332.624714
546.268918	4421.021347
546.628019	4470.165035
546.987064	4534.061660
547.346053	4569.755550
547.704986	4627.265033
548.063863	4715.245771
548.422684	4747.945215
548.781449	4790.795023
549.140158	4889.120208
549.498811	4942.140543
549.857408	4958.947750
550.215949	5067.657713
550.574434	5104.894195
550.932864	5200.396334
551.291237	5273.896357
551.649555	5348.724725
552.007817	5430.356129
552.366022	5488.130272
552.724173	5550.562442
553.082267	5631.541017
553.440305	5773.328510
553.798288	5757.063227
554.156215	5910.601650
554.514086	6005.856772
554.871902	5992.381768
555.229661	6109.455005
555.587365	6195.308375
555.945014	6238.886630
556.302606	6386.733590
556.660143	6436.091527
557.017625	6587.507624
557.375050	6598.220076
557.732421	6734.956333
558.089735	6814.389794
558.446994	6893.409880
558.804197	7009.182499
559.161345	7104.624144
559.518437	7097.758093
559.875474	7267.713033
560.232455	7372.435442
560.589381	7465.051521
560.946251	7521.388936
561.303065	7713.933286
561.659825	7829.143816
562.016528	7841.653439
562.373177	7894.164618
562.729770	8039.448152
563.086307	8164.123448
563.442789	8296.428531
563.799216	8360.771298
564.155587	8436.476826
564.511904	8565.648831
564.868164	8617.973488
565.224370	8752.431143
565.580520	8793.289695
565.936615	8962.707752
566.292654	8951.218963
566.648638	9185.625055
567.004567	9211.045073
567.360441	9308.752717
567.716260	9319.939037
568.072023	9561.077590
568.427732	9582.789840
568.783385	9610.375034
569.138982	9786.331468
569.494525	9929.908570
569.850013	9967.686977
570.205445	10086.542262
570.560823	10098.477193
570.916145	10165.348099
571.271412	10293.617738
571.626625	10363.422595
571.981782	10464.739705
572.336884	10489.453962
572.691931	10656.079220
573.046923	10628.370518
573.401860	10733.516384
573.756743	10842.962355
574.111570	10898.031920
574.466342	10965.323762
574.821059	11124.324275
575.175722	11085.482184
575.530330	11227.025181
575.884882	11311.981227
576.239380	11407.959755
576.593823	11444.412338
576.948211	11508.918943
577.302544	11539.538911
577.656823	11592.057652
578.011047	11748.610685
578.365216	11788.755913
578.719330	11834.348109
579.073389	11868.111237
579.427394	12072.023389
579.781344	12016.938701
580.135239	12101.241917
580.489080	12149.747899
580.842866	12109.310283
581.196597	12346.829288
581.550273	12371.402392
581.903895	12479.598157
582.257463	12714.707490
582.610975	12572.990573
582.964434	12827.578925
583.317837	12779.244342
583.671186	12921.293975
584.024481	13001.957477
584.377721	12940.810802
584.730906	13079.087131
585.084037	13201.440976
585.437113	13223.148185
585.790135	13408.037543
586.143103	13213.154097
586.496016	13271.152572
586.848874	13556.716293
587.201679	13579.618255
587.554428	13454.285088
587.907124	13746.084717
588.259765	13695.070761
588.612352	13851.399462
588.964884	13662.986337
589.317362	13849.072970
589.669786	13958.718066
590.022155	14072.663266
590.374470	14278.279329
590.726731	14239.757352
591.078937	14149.066994
591.431090	14285.218477
591.783188	14186.583261
592.135232	14242.245161
592.487222	14414.927365
592.839157	14498.232433
593.191038	14520.940310
593.542866	14489.586854
593.894639	14408.068876
594.246358	14610.319968
594.598022	14604.832672
594.949633	14532.066137
595.301190	14548.097006
595.652692	14744.535648
596.004141	14994.554193
596.355535	14585.588067
596.706876	14654.876206
597.058162	14657.331248
597.409395	14862.251631
597.760573	15016.889026
598.111698	14929.021714
598.462768	14929.760243
598.813785	14962.331138
599.164748	14892.619542
599.515657	14970.079392
599.866511	14882.703592
600.217312	15215.145003
600.568060	14916.859930
600.918753	15219.939141
601.269392	15221.063318
601.619978	15074.322891
601.970510	15336.364589
602.320988	15324.734647
602.671412	15549.071034
603.021783	15520.149935
603.372100	15369.623601
603.722363	15529.276944
604.072572	15536.442944
604.422728	15681.202197
604.772830	15572.522482
605.122878	15545.728749
605.472872	15611.457834
605.822813	15648.112063
606.172701	15660.503219
606.522534	15877.953391
606.872314	15949.434432
607.222041	15827.851883
607.571714	16067.803244
607.921333	15963.889940
608.270899	16068.950107
608.620411	16306.945501
608.969870	16103.865138
609.319276	16167.587844
609.668627	16242.920326
610.017926	16400.905047
610.367171	16540.829833
610.716362	16620.376720
611.065500	16487.892677
611.414585	16635.704349
611.763616	16668.670974
612.112594	16669.543094
612.461518	16666.531004
612.810389	16882.516720
613.159207	16756.760097
613.507971	16719.725260
613.856682	17039.969599
614.205340	16991.864388
614.553945	17168.156059
614.902496	16941.233560
615.250994	17221.957773
615.599439	17188.280345
615.947830	17192.174637
616.296169	17239.702635
616.644454	17248.128924
616.992686	17236.317500
617.340864	17467.802244
617.688990	17280.707380
618.037063	17470.557234
618.385082	17345.597113
618.733048	17636.378428
619.080961	17506.167945
619.428821	17601.385259
619.776628	17525.392385
620.124382	17474.731310
620.472083	17519.375768
620.819731	17587.764061
621.167326	17306.442471
621.514868	17385.933905
621.862357	17193.586160
622.209793	17234.122078
622.557176	17116.169160
622.904506	16959.505222
623.251783	16905.579999
623.599007	16734.611787
623.946179	16691.325920
624.293297	16671.070563
624.640363	16451.646781
624.987376	16476.660986
625.334336	16293.999817
625.681243	16176.818196
626.028097	16183.023857
626.374899	16146.873742
626.721647	16031.998449
627.068343	15878.505397
627.414987	15829.863303
627.761577	15824.378528
628.108115	15884.413629
628.454600	15612.455982
628.801032	15710.292175
629.147412	15655.739329
629.493739	15694.740216
629.840014	15516.802608
630.186236	15617.441683
630.532405	15401.934877
630.878521	15600.934425
631.224585	15499.927346
631.570597	15338.865001
631.916556	15374.294230
632.262462	15353.191960
632.608316	15287.941786
632.954117	15242.047121
633.299866	15248.719088
633.645562	15178.284087
633.991206	14935.184525
634.336797	14821.771166
634.682336	14801.142764
635.027823	14703.389750
635.373257	14602.559112
635.718639	14507.160316
636.063968	14465.457371
636.409245	14230.537081
636.754470	14263.130661
637.099642	14118.787303
637.444762	13900.200352
637.789829	13954.312097
638.134845	13802.800218
638.479808	13828.656297
638.824719	13799.498263
639.169577	13640.732163
639.514383	13692.272920
639.859137	13512.860776
640.203839	13596.458230
640.548489	13442.803861
640.893086	13429.996809
641.237632	13300.003096
641.582125	13451.469604
