Dividing Wavelength (nm)	Counts (n)	Blue Motor Position (mm): 26.900000	Red Motor Position (mm): 0.000000	
326.493990	2203.178315
326.888308	2203.178315
327.282561	2203.178315
327.676750	2163.368323
328.070874	2159.529485
328.464933	2163.595175
328.858929	2161.964362
329.252859	2167.917965
329.646726	2175.988852
330.040528	2188.574093
330.434265	2204.052955
330.827938	2221.641541
331.221547	2237.261556
331.615091	2254.099010
332.008571	2275.292021
332.401986	2295.875052
332.795338	2314.484472
333.188625	2331.029538
333.581847	2349.676767
333.975006	2366.451206
334.368100	2386.560369
334.761129	2404.645508
335.154095	2422.569331
335.546996	2449.680656
335.939833	2485.077118
336.332606	2496.994405
336.725315	2511.782630
337.117960	2526.646472
337.510540	2537.134593
337.903056	2548.711603
338.295508	2556.865669
338.687896	2566.217009
339.080220	2573.544327
339.472480	2579.956674
339.864676	2585.950606
340.256807	2591.992429
340.648875	2594.518047
341.040879	2599.299582
341.432818	2601.530292
341.824694	2605.810232
342.216506	2604.751589
342.608253	2603.360231
342.999937	2605.628750
343.391557	2603.166147
343.783113	2602.682196
344.174605	2602.838472
344.566033	2603.337546
344.957397	2601.091712
345.348697	2598.795466
345.739934	2598.049375
346.131106	2596.080805
346.522215	2596.438727
346.913260	2592.436051
347.304241	2591.279106
347.695159	2589.605443
348.086012	2590.323807
348.476802	2585.494382
348.867528	2579.999524
349.258191	2579.702096
349.648789	2577.037846
350.039324	2575.051632
350.429796	2578.978690
350.820203	2576.122877
351.210548	2576.735377
351.600828	2572.682289
351.991045	2572.377299
352.381198	2570.431414
352.771288	2569.715570
353.161314	2571.295972
353.551276	2572.906621
353.941175	2570.040725
354.331010	2571.169943
354.720782	2568.997206
355.110490	2569.529047
355.500135	2568.399829
355.889717	2568.374623
356.279235	2568.525858
356.668689	2571.663976
357.058080	2568.999726
357.447408	2571.893349
357.836672	2570.544840
358.225873	2571.066599
358.615010	2571.197669
359.004084	2569.574418
359.393095	2571.595921
359.782043	2573.957701
360.170927	2574.497105
360.559748	2572.747824
360.948505	2571.666497
361.337199	2575.764955
361.725830	2574.524831
362.114398	2579.271077
362.502903	2573.410736
362.891344	2577.274780
363.279722	2576.163206
363.668037	2579.525656
364.056289	2578.784606
364.444478	2577.887281
364.832603	2580.833835
365.220665	2578.068762
365.608665	2579.734863
365.996601	2580.067580
366.384474	2581.423650
366.772284	2584.287025
367.160031	2581.443815
367.547715	2583.316603
367.935336	2582.230235
368.322893	2583.014134
368.710388	2574.171950
369.097820	2582.207549
369.485189	2579.767631
369.872495	2585.302818
370.259738	2585.569999
370.646918	2583.099834
371.034035	2584.105544
371.421090	2585.938003
371.808081	2585.877509
372.195010	2585.421285
372.581875	2586.179979
372.968678	2587.054619
373.355418	2587.243662
373.742096	2585.300297
374.128710	2589.572675
374.515262	2588.360278
374.901751	2588.226687
375.288177	2590.159970
375.674540	2588.173755
376.060841	2592.032758
376.447079	2591.279106
376.833254	2589.245000
377.219367	2587.588981
377.605417	2590.192737
377.991404	2588.148549
378.377329	2589.227356
378.763191	2589.353385
379.148991	2590.780032
379.534727	2592.017635
379.920402	2592.373036
380.306013	2592.362954
380.691563	2594.515527
381.077049	2591.581575
381.462474	2594.099631
381.847835	2591.377408
382.233134	2592.683067
382.618371	2593.499734
383.003545	2590.369177
383.388657	2592.365474
383.773706	2593.741709
384.158693	2594.928901
384.543618	2592.574682
384.928480	2594.787749
385.313280	2594.996957
385.698017	2596.095928
386.082692	2594.623911
386.467305	2595.944694
386.851856	2597.782194
387.236344	2595.964858
387.620770	2593.199785
388.005133	2594.810434
388.389435	2595.054930
388.773674	2594.767584
389.157851	2600.280086
389.541965	2596.748758
389.926018	2597.951073
390.310008	2598.767740
390.693936	2599.302102
391.077802	2598.845878
391.461606	2600.887545
391.845348	2599.138265
392.229027	2602.722525
392.612645	2600.184304
392.996200	2601.863008
393.379694	2599.695312
393.763125	2601.520210
394.146494	2600.698502
394.529801	2601.222782
394.913047	2602.404932
395.296230	2603.713112
395.679351	2602.712443
396.062410	2605.114552
396.445408	2603.864346
396.828343	2604.000457
397.211217	2602.626743
397.594028	2606.115222
397.976778	2606.906683
398.359466	2606.546240
398.742092	2604.512135
399.124656	2603.450972
399.507158	2602.876280
399.889598	2606.929368
400.271977	2606.707557
400.654294	2606.266456
401.036549	2603.854264
401.418742	2606.757969
401.800874	2607.015067
402.182944	2610.662342
402.564952	2606.810901
402.946898	2607.446086
403.328783	2608.285438
403.710606	2608.086313
404.092367	2609.525562
404.474067	2610.695110
404.855705	2608.378700
405.237282	2610.165789
405.618797	2610.816097
406.000250	2608.169492
406.381642	2611.562188
406.762972	2609.853237
407.144240	2611.847013
407.525447	2609.545727
407.906593	2607.239399
408.287677	2609.883484
408.668700	2611.877260
409.049661	2614.833897
409.430560	2614.246603
409.811399	2612.204935
410.192176	2612.862806
410.572891	2616.522684
410.953545	2615.821963
411.334138	2615.459000
411.714669	2617.414968
412.095139	2614.977570
412.475547	2613.891201
412.855894	2615.733743
413.236180	2615.763990
413.616405	2617.609052
413.996568	2613.923969
414.376670	2613.175357
414.756711	2615.416150
415.136691	2618.728188
415.516609	2620.238014
415.896466	2618.783641
416.276262	2618.145935
416.655997	2619.794392
417.035670	2618.024947
417.415283	2621.765484
417.794834	2620.288426
418.174324	2620.280864
418.553753	2621.944445
418.933121	2621.347068
419.312428	2623.373612
419.691674	2621.057202
420.070859	2623.073663
420.449983	2621.841101
420.829045	2623.663478
421.208047	2623.686163
421.586988	2620.835391
421.965867	2624.865793
422.344686	2625.725310
422.723444	2624.412089
423.102141	2623.144239
423.480777	2627.514920
423.859352	2625.851339
424.237866	2628.336628
424.616319	2627.698922
424.994712	2626.844446
425.373044	2629.397791
425.751314	2625.931997
426.129524	2626.531895
426.507673	2628.329066
426.885762	2629.700260
427.263789	2630.060702
427.641756	2631.389046
428.019662	2631.860394
428.397508	2631.565487
428.775292	2634.834675
429.153016	2634.355765
429.530679	2634.333080
429.908282	2634.564973
430.285824	2636.672176
430.663305	2638.638226
431.040726	2637.393061
431.418086	2638.955818
431.795385	2639.941364
432.172624	2639.621251
432.549802	2642.391365
432.926920	2642.172074
433.303977	2639.875829
433.680974	2644.985038
434.057910	2642.817342
434.434786	2645.965543
434.811601	2647.840852
435.188355	2648.584422
435.565050	2649.181799
435.941683	2648.239103
436.318257	2657.668581
436.694770	2653.444094
437.071222	2656.337717
437.447614	2659.017090
437.823946	2663.705363
438.200218	2666.087308
438.576429	2668.481856
438.952580	2676.777075
439.328670	2680.976356
439.704700	2684.449711
440.080670	2687.597912
440.456580	2699.079140
440.832429	2704.415201
441.208218	2711.951726
441.583947	2724.917574
441.959616	2737.238154
442.335224	2746.269381
442.710773	2760.661875
443.086261	2779.230965
443.461689	2785.313117
443.837057	2817.541214
444.212365	2842.096674
444.587612	2857.935980
444.962800	2886.466390
445.337927	2909.922879
445.712995	2919.894281
446.088002	2994.185765
446.462949	3020.951772
446.837837	3060.487021
447.212664	3101.222064
447.587431	3178.006399
447.962139	3274.146244
448.336786	3498.654031
448.711374	3628.471304
449.085901	3516.782020
449.460369	3539.494938
449.834776	3563.211047
450.209124	3724.893453
450.583412	3864.414948
450.957640	4073.365734
451.331808	4061.440884
451.705917	4008.418028
452.079965	3996.722551
452.453954	4226.682346
452.827883	4265.647944
453.201752	4408.899892
453.575562	4421.719547
453.949311	4594.958799
454.323001	4693.737688
454.696632	4845.357951
455.070202	5026.337895
455.443713	5195.682856
455.817164	5436.150935
456.190556	5558.885387
456.563888	5785.265963
456.937160	5967.216328
457.310373	5904.567389
457.683526	6038.699890
458.056619	6040.529829
458.429653	6203.177616
458.802628	6172.325755
459.175542	6419.198620
459.548398	6874.898763
459.921194	7160.638925
460.293930	7319.899058
460.666607	7845.419181
461.039224	8417.769104
461.411782	8911.582891
461.784280	9047.600783
462.156719	9258.530222
462.529099	9264.231767
462.901419	8953.588305
463.273680	9030.458339
463.645882	9109.145710
464.018024	9126.504923
464.390106	9401.862828
464.762130	9972.632349
465.134094	10492.420681
465.505999	11688.005933
465.877845	13700.540413
466.249631	15587.111581
466.621358	15740.254273
466.993026	15193.210943
467.364634	15101.358599
467.736184	14475.650584
468.107674	14164.271114
468.479105	14415.287808
468.850477	14285.231080
469.221790	14181.337940
469.593043	13904.702102
469.964238	13729.136358
470.335373	13649.208864
470.706449	14097.712760
471.077467	13898.057862
471.448425	15353.933010
471.819324	18505.833794
472.190164	20374.130780
472.560945	17931.850538
472.931667	16191.664394
473.302330	15821.419371
473.672934	15530.070925
474.043479	15984.248640
474.413965	15959.652850
474.784393	15803.067050
475.154761	16461.923173
475.525070	16619.204652
475.895321	16415.499187
476.265513	17035.208229
476.635645	17644.300602
477.005719	17578.226198
477.375734	17859.701544
477.745691	18423.736083
478.115588	18950.055230
478.485427	19549.771056
478.855207	20570.498845
479.224928	22201.601981
479.594591	24327.259953
479.964194	24546.456884
480.333739	24909.102368
480.703226	24611.817964
481.072653	24413.730865
481.442022	24985.062474
481.811333	25894.428655
482.180584	25942.823732
482.549777	25130.615709
482.918912	24857.538926
483.287988	25021.469687
483.657005	24806.456914
484.025964	24573.616100
484.394864	24615.550938
484.763706	24378.483117
485.132489	23860.844837
485.501213	24061.853285
485.869879	24052.784249
486.238487	23850.631460
486.607036	24066.617176
486.975527	23764.158027
487.343959	24136.048988
487.712333	24143.499813
488.080648	23832.432894
488.448905	24313.905936
488.817104	24085.715587
489.185244	24752.511527
489.553326	24750.835343
489.921350	25699.479674
490.289315	27926.338809
490.657222	29764.565312
491.025070	30276.807037
491.392861	30088.487173
491.760593	29288.577046
492.128267	28414.161185
492.495883	27409.877639
492.863440	26544.563581
493.230939	25680.799678
493.598380	25532.962801
493.965763	25137.653160
494.333088	24712.013417
494.700354	24635.029957
495.067563	24537.987745
495.434713	24296.191322
495.801805	24420.478449
496.168839	24267.814667
496.535815	24096.659932
496.902733	24290.454489
497.269593	23969.307783
497.636395	24173.600543
498.003139	24157.768799
498.369825	23903.903853
498.736453	24095.409726
499.103023	23976.458660
499.469535	24004.747094
499.835989	24204.588515
500.202385	24224.518717
500.568723	23736.144335
500.935003	24010.786397
501.301226	23584.062806
501.667390	24419.618933
502.033497	24660.790253
502.399546	24400.144955
502.765537	23993.243181
503.131470	24367.435428
503.497345	24502.072045
503.863163	23713.733886
504.228923	24345.337531
504.594625	24516.358675
504.960269	24035.835890
505.325856	24535.648650
505.691385	23946.481438
506.056856	24557.166815
506.422270	24523.665827
506.787625	24118.203303
507.152924	24518.009653
507.518164	24539.212746
507.883347	24349.864487
508.248472	24047.927098
508.613540	24812.750795
508.978550	24603.754638
509.343503	24592.873308
509.708398	24869.050401
510.073236	25026.992271
510.438016	25232.678910
510.802738	24918.332721
511.167403	25156.219730
511.532010	24842.715413
511.896561	25642.905325
512.261053	25611.735871
512.625488	25451.611180
512.989866	25347.539080
513.354186	25189.569483
513.718449	25291.131089
514.082655	25676.129049
514.446803	25420.023310
514.810894	25858.462543
515.174927	25339.634551
515.538904	25379.305911
515.902822	25872.209769
516.266684	25618.685101
516.630488	25526.689085
516.994235	25515.868248
517.357925	25805.366590
517.721558	26006.611972
518.085133	26085.145587
518.448651	26014.438363
518.812112	25731.687606
519.175516	25917.633086
519.538863	26091.353768
519.902152	25866.132658
520.265385	26164.800859
520.628560	25949.475534
520.991678	25952.026358
521.354739	26039.324019
521.717743	26080.283394
522.080690	25884.830298
522.443580	26204.963732
522.806413	26231.049182
523.169189	26309.905431
523.531908	26366.878032
523.894569	25975.376983
524.257174	26031.472422
524.619722	26238.071510
524.982213	25915.888847
525.344647	25987.508519
525.707025	26111.689783
526.069345	26110.232889
526.431608	26051.407665
526.793815	26259.330055
527.155964	25696.626381
527.518057	25875.025254
527.880093	25797.618336
528.242072	26032.160540
528.603995	25735.997792
528.965860	25533.366093
529.327669	25586.605719
529.689421	25566.569653
530.051117	25405.643419
530.412755	25567.943367
530.774337	25386.847477
531.135862	25259.039103
531.497331	25470.321423
531.858743	24992.523382
532.220098	25490.821275
532.581396	25156.139071
532.942638	25109.672236
533.303824	25199.326636
533.664953	25228.918209
534.026025	24889.615788
534.387040	25117.244049
534.747999	25181.183523
535.108902	25355.672982
535.469748	24853.284192
535.830537	25031.937643
536.191270	25144.020137
536.551947	25028.318095
536.912567	24682.633573
537.273131	25007.684652
537.633638	24730.060748
537.994089	24934.141779
538.354483	24484.112934
538.714821	24978.100641
539.075103	25013.043399
539.435328	24813.622914
539.795497	24363.583987
540.155609	24777.911380
540.515665	25056.306581
540.875665	24301.343381
541.235609	24577.787655
541.595496	24550.983840
541.955328	24906.879219
542.315102	24821.711446
542.674821	24387.090887
543.034483	24254.773202
543.394090	24429.058493
543.753640	24210.658064
544.113134	24851.391239
544.472571	24450.957265
544.831953	24743.039199
545.191278	24336.021478
545.550548	24273.985039
545.909761	24487.137627
546.268918	24717.687236
546.628019	24677.300032
546.987064	24378.256265
547.346053	24147.505010
547.704986	24268.895994
548.063863	24430.114615
548.422684	24417.637759
548.781449	23972.110664
549.140158	24374.235945
549.498811	23945.770636
549.857408	23681.599051
550.215949	24124.444251
550.574434	23798.737822
550.932864	24019.815103
551.291237	24164.844058
551.649555	24031.979407
552.007817	24083.056378
552.366022	23966.255364
552.724173	24000.787268
553.082267	23945.871459
553.440305	24408.689711
553.798288	23688.742366
554.156215	24200.658936
554.514086	24283.180104
554.871902	23653.827334
555.229661	23943.784421
555.587365	23815.676099
555.945014	23661.159692
556.302606	23923.282048
556.660143	23855.670093
557.017625	24118.979641
557.375050	23644.659996
557.732421	24031.518142
558.089735	23846.354041
558.446994	23917.872890
558.804197	23937.772845
559.161345	23886.262335
559.518437	23629.962512
559.875474	23827.941226
560.232455	24005.926724
560.589381	23836.322144
560.946251	23814.965296
561.303065	24136.442197
561.659825	24223.386978
562.016528	23827.626154
562.373177	23567.621083
562.729770	23918.792901
563.086307	23796.174395
563.442789	23961.418377
563.799216	23795.050218
564.155587	23798.420229
564.511904	23781.837354
564.868164	23711.185583
565.224370	23693.385268
565.580520	23604.792031
565.936615	23741.540890
566.292654	23400.690835
566.648638	23713.375964
567.004567	23542.427916
567.360441	23491.756758
567.716260	23219.610068
568.072023	23547.176683
568.427732	23303.348675
568.783385	23090.944698
569.138982	23314.106497
569.494525	23361.377397
569.850013	23106.544549
570.205445	23213.830385
570.560823	23006.497810
570.916145	22777.425258
571.271412	22944.980609
571.626625	22705.661913
571.981782	22826.286642
572.336884	22622.223255
572.691931	22754.059510
573.046923	22488.201659
573.401860	22376.295606
573.756743	22378.385164
574.111570	22287.233541
574.466342	22215.046738
574.821059	22312.280514
575.175722	22006.322804
575.530330	22000.074294
575.884882	22022.799816
576.239380	21932.558121
576.593823	21816.173002
576.948211	21792.310700
577.302544	21644.541878
577.656823	21516.196622
578.011047	21619.232765
578.365216	21486.857106
578.719330	21347.176816
579.073389	21260.516860
579.427394	21409.593862
579.781344	21175.454951
580.135239	21072.222203
580.489080	21044.208511
580.842866	20803.319495
581.196597	20994.011221
581.550273	20971.530196
581.903895	20860.866786
582.257463	21176.493429
582.610975	20707.678724
582.964434	21013.936382
583.317837	20727.548432
583.671186	20820.698872
584.024481	20786.318203
584.377721	20554.004190
584.730906	20613.285639
585.084037	20638.806480
585.437113	20553.321114
585.790135	20738.520503
586.143103	20212.478620
586.496016	20218.641430
586.848874	20466.678802
587.201679	20407.777961
587.554428	20078.043650
587.907124	20404.218906
588.259765	20180.956285
588.612352	20258.706001
588.964884	19833.832513
589.317362	19993.901751
589.669786	20052.865607
590.022155	20098.775395
590.374470	20284.809095
590.726731	20082.152190
591.078937	19828.642645
591.431090	19935.941084
591.783188	19687.812972
592.135232	19659.272479
592.487222	19754.230173
592.839157	19776.181878
593.191038	19662.236678
593.542866	19558.661131
593.894639	19266.269166
594.246358	19495.772736
594.598022	19400.847809
594.949633	19154.292537
595.301190	19104.102809
595.652692	19267.526934
596.004141	19518.964565
596.355535	18837.680349
596.706876	18857.701291
597.058162	18754.929808
597.409395	18973.879723
597.760573	19061.706705
598.111698	18831.938474
598.462768	18761.352238
598.813785	18724.471157
599.164748	18544.096152
599.515657	18589.774047
599.866511	18374.887302
600.217312	18748.199868
600.568060	18263.896218
600.918753	18579.424558
601.269392	18483.125916
601.619978	18259.588552
601.970510	18471.468248
602.320988	18411.871727
602.671412	18618.405280
603.021783	18518.202265
603.372100	18258.482019
603.722363	18396.471002
604.072572	18335.258792
604.422728	18474.074525
604.772830	18247.204958
605.122878	18176.563269
605.472872	18175.083690
605.822813	18172.406837
606.172701	18129.015106
606.522534	18329.411053
606.872314	18347.332355
607.222041	18182.264814
607.571714	18398.300941
607.921333	18234.934789
608.270899	18303.212177
608.620411	18492.164705
608.969870	18257.975383
609.319276	18254.116379
609.668627	18285.928581
610.017926	18421.326411
610.367171	18524.039921
610.716362	18581.216688
611.065500	18392.511176
611.414585	18522.406587
611.763616	18509.851593
612.112594	18450.837326
612.461518	18432.356456
612.810389	18613.976626
613.159207	18478.309094
613.507971	18377.392756
613.856682	18661.272732
614.205340	18590.729345
614.553945	18737.225276
614.902496	18485.840578
615.250994	18716.163335
615.599439	18662.321292
615.947830	18637.004617
616.296169	18687.312812
616.644454	18649.171442
616.992686	18632.951529
617.340864	18838.083641
617.688990	18600.695706
618.037063	18769.430687
618.385082	18625.215879
618.733048	18903.419515
619.080961	18761.052290
619.428821	18807.151121
619.776628	18699.439307
620.124382	18622.581876
620.472083	18647.515423
620.819731	18683.194189
621.167326	18373.800933
621.514868	18405.797137
621.862357	18186.131379
622.209793	18186.214558
622.557176	18022.054424
622.904506	17849.631839
623.251783	17750.903361
623.599007	17519.748813
623.946179	17477.040158
624.293297	17408.583809
624.640363	17164.770924
624.987376	17182.339345
625.334336	16974.709342
625.681243	16810.332438
626.028097	16835.074422
626.374899	16759.378976
626.721647	16630.277547
627.068343	16456.140969
627.414987	16385.101029
627.761577	16363.066146
628.108115	16402.641724
628.454600	16123.875999
628.801032	16222.710340
629.147412	16154.528735
629.493739	16178.161664
629.840014	15983.784854
630.186236	16094.407934
630.532405	15842.216651
630.878521	16050.557457
631.224585	15934.149653
631.570597	15754.619041
631.916556	15786.287570
632.262462	15770.750733
632.608316	15697.759867
632.954117	15637.555887
633.299866	15627.234125
633.645562	15546.837803
633.991206	15298.729855
634.336797	15173.379044
634.682336	15136.603827
635.027823	15032.254463
635.373257	14910.145113
635.718639	14809.536286
636.063968	14761.156332
636.409245	14513.340771
636.754470	14542.289597
637.099642	14385.711358
