Dividing Wavelength (nm)	Counts (n)	Blue Motor Position (mm): 27.800000	Red Motor Position (mm): 0.000000	
326.493990	2205.741742
326.888308	2205.741742
327.282561	2205.741742
327.676750	2166.856802
328.070874	2163.552325
328.464933	2161.808086
328.858929	2167.401246
329.252859	2172.966680
329.646726	2179.769717
330.040528	2192.365040
330.434265	2206.356763
330.827938	2226.589434
331.221547	2240.243399
331.615091	2260.052613
332.008571	2278.346960
332.401986	2297.465536
332.795338	2315.769966
333.188625	2334.195383
333.581847	2351.070646
333.975006	2369.765765
334.368100	2391.659496
334.761129	2408.791857
335.154095	2425.394897
335.546996	2450.399020
335.939833	2487.075935
336.332606	2502.955570
336.725315	2516.186078
337.117960	2526.961544
337.510540	2539.788760
337.903056	2551.088507
338.295508	2559.504713
338.687896	2571.472412
339.080220	2579.545820
339.472480	2584.818867
339.864676	2590.525453
340.256807	2594.881010
340.648875	2596.446288
341.040879	2602.934253
341.432818	2603.057762
341.824694	2606.339553
342.216506	2606.626899
342.608253	2604.839810
342.999937	2608.671087
343.391557	2608.666045
343.783113	2607.667897
344.174605	2606.795777
344.566033	2605.621188
344.957397	2605.270828
345.348697	2602.909048
345.739934	2603.352669
346.131106	2599.110538
346.522215	2598.409818
346.913260	2597.462081
347.304241	2594.782708
347.695159	2593.109045
348.086012	2590.717017
348.476802	2590.434712
348.867528	2584.816347
349.258191	2586.502612
349.648789	2581.264854
350.039324	2577.526838
350.429796	2581.768969
350.820203	2579.253433
351.210548	2578.875347
351.600828	2579.283680
351.991045	2573.093143
352.381198	2576.649677
352.771288	2575.833010
353.161314	2576.301838
353.551276	2575.603638
353.941175	2574.996179
354.331010	2575.001220
354.720782	2572.949470
355.110490	2574.176991
355.500135	2572.014336
355.889717	2573.289748
356.279235	2574.756724
356.668689	2570.963256
357.058080	2573.425859
357.447408	2574.018195
357.836672	2575.338977
358.225873	2573.100705
358.615010	2572.137845
359.004084	2575.132290
359.393095	2573.292269
359.782043	2574.555078
360.170927	2578.620768
360.559748	2576.034657
360.948505	2577.262177
361.337199	2580.181006
361.725830	2578.618248
362.114398	2578.799729
362.502903	2582.285687
362.891344	2580.284349
363.279722	2579.797878
363.668037	2581.118660
364.056289	2581.602611
364.444478	2583.160327
364.832603	2582.099165
365.220665	2581.375759
365.608665	2583.097313
365.996601	2585.590164
366.384474	2585.350709
366.772284	2584.652509
367.160031	2583.641758
367.547715	2586.691656
367.935336	2584.902046
368.322893	2585.282653
368.710388	2583.223342
369.097820	2585.461614
369.485189	2583.500605
369.872495	2587.979671
370.259738	2588.377922
370.646918	2588.793817
371.034035	2585.988415
371.421090	2591.604260
371.808081	2587.387335
372.195010	2590.233066
372.581875	2589.784404
372.968678	2591.223653
373.355418	2592.597367
373.742096	2592.514188
374.128710	2590.621235
374.515262	2591.942017
374.901751	2593.096442
375.288177	2592.304981
375.674540	2593.872779
376.060841	2591.536205
376.447079	2593.862697
376.833254	2594.255907
377.219367	2591.707604
377.605417	2593.144333
377.991404	2594.331524
378.377329	2595.390167
378.763191	2594.573500
379.148991	2592.630135
379.534727	2592.559559
379.920402	2594.011411
380.306013	2593.265320
380.691563	2596.048037
381.077049	2597.767071
381.462474	2596.597523
381.847835	2596.058120
382.233134	2596.942842
382.618371	2598.984509
383.003545	2597.010898
383.388657	2596.968048
383.773706	2598.664396
384.158693	2598.477873
384.543618	2598.656834
384.928480	2600.252360
385.313280	2599.627257
385.698017	2603.710591
386.082692	2599.624736
386.467305	2603.171188
386.851856	2599.695312
387.236344	2601.313522
387.620770	2598.001484
388.005133	2597.154571
388.389435	2597.940991
388.773674	2595.977461
389.157851	2602.581373
389.541965	2602.838472
389.926018	2600.988368
390.310008	2604.607917
390.693936	2604.655807
391.077802	2603.677824
391.461606	2603.937443
391.845348	2604.118925
392.229027	2605.376692
392.612645	2602.909048
392.996200	2602.460385
393.379694	2607.148658
393.763125	2606.947012
394.146494	2606.173195
394.529801	2604.237392
394.913047	2604.965838
395.296230	2608.003134
395.679351	2607.017588
396.062410	2607.332660
396.445408	2607.304934
396.828343	2605.384254
397.211217	2607.262084
397.594028	2609.349122
397.976778	2611.410954
398.359466	2610.269132
398.742092	2611.186622
399.124656	2607.362907
399.507158	2608.824842
399.889598	2615.209463
400.271977	2608.718977
400.654294	2612.880450
401.036549	2609.699482
401.418742	2608.842486
401.800874	2612.711571
402.182944	2610.672425
402.564952	2610.972373
402.946898	2612.469596
403.328783	2611.973042
403.710606	2613.843310
404.092367	2615.292642
404.474067	2613.382045
404.855705	2614.667539
405.237282	2614.947323
405.618797	2614.135697
406.000250	2618.120729
406.381642	2617.621655
406.762972	2613.704679
407.144240	2612.792230
407.525447	2614.685183
407.906593	2611.390789
408.287677	2616.026130
408.668700	2617.795575
409.049661	2617.893877
409.430560	2618.123250
409.811399	2616.542848
410.192176	2619.446553
410.572891	2619.660802
410.953545	2619.502006
411.334138	2620.376646
411.714669	2622.453601
412.095139	2620.379166
412.475547	2622.393107
412.855894	2621.972171
413.236180	2619.300359
413.616405	2622.173817
413.996568	2621.427726
414.376670	2625.493417
414.756711	2620.540483
415.136691	2623.736575
415.516609	2625.306894
415.896466	2623.645834
416.276262	2624.883437
416.655997	2624.104579
417.035670	2624.192799
417.415283	2628.220681
417.794834	2625.967285
418.174324	2624.643982
418.553753	2628.876031
418.933121	2628.341669
419.312428	2630.201855
419.691674	2630.254787
420.070859	2629.788480
420.449983	2628.553397
420.829045	2630.695888
421.208047	2631.600775
421.586988	2631.668830
421.965867	2634.438944
422.344686	2631.184880
422.723444	2635.744603
423.102141	2633.322329
423.480777	2635.298461
423.859352	2634.844757
424.237866	2637.667803
424.616319	2637.856847
424.994712	2640.200983
425.373044	2639.006230
425.751314	2638.252577
426.129524	2634.025570
426.507673	2634.827113
426.885762	2637.128400
427.263789	2641.504122
427.641756	2637.085550
428.019662	2641.108391
428.397508	2644.180974
428.775292	2645.421098
429.153016	2646.628454
429.530679	2644.884215
429.908282	2644.826242
430.285824	2647.016623
430.663305	2649.310348
431.040726	2648.841521
431.418086	2649.587612
431.795385	2652.236738
432.172624	2653.968374
432.549802	2655.452994
432.926920	2660.179076
433.303977	2661.222595
433.680974	2668.007988
434.057910	2668.980931
434.434786	2674.014523
434.811601	2674.473268
435.188355	2685.699917
435.565050	2687.093796
435.941683	2694.128727
436.318257	2705.095757
436.694770	2719.284084
437.071222	2727.770867
437.447614	2743.138824
437.823946	2750.672829
438.200218	2771.439862
438.576429	2783.301697
438.952580	2808.477219
439.328670	2829.566886
439.704700	2846.880729
440.080670	2876.434494
440.456580	2921.499888
440.832429	2946.637602
441.208218	2965.073102
441.583947	3016.026564
441.959616	3059.640107
442.335224	3093.796445
442.710773	3155.462359
443.086261	3213.748180
443.461689	3217.685321
443.837057	3321.074345
444.212365	3407.275555
444.587612	3440.716049
444.962800	3534.174001
445.337927	3581.591094
445.712995	3607.174949
446.088002	3813.060714
446.462949	3853.057228
446.837837	3932.377263
447.212664	4022.676932
447.587431	4192.664639
447.962139	4418.057148
448.336786	4949.644301
448.711374	5227.749635
449.085901	4895.981218
449.460369	4896.538266
449.834776	4898.690838
450.209124	5223.426846
450.583412	5452.610303
450.957640	5854.012178
451.331808	5760.944916
451.705917	5588.595427
452.079965	5503.291543
452.453954	5927.849958
452.827883	5928.598569
453.201752	6158.399567
453.575562	6116.358865
453.949311	6396.190794
454.323001	6508.129615
454.696632	6734.895839
455.070202	6989.043089
455.443713	7230.985707
455.817164	7592.018022
456.190556	7741.231134
456.563888	8068.487718
456.937160	8302.009088
457.310373	8129.720094
457.683526	8307.229203
458.056619	8234.288748
458.429653	8438.243750
458.802628	8314.639699
459.175542	8634.188359
459.548398	9298.136047
459.921194	9651.581425
460.293930	9814.458586
460.666607	10502.722279
461.039224	11261.133628
461.411782	11875.884696
461.784280	12008.804799
462.156719	12239.966909
462.529099	12205.808050
462.901419	11669.577995
463.273680	11693.720081
463.645882	11734.601318
464.018024	11681.739779
464.390106	11978.273051
464.762130	12684.495855
465.134094	13336.765710
465.505999	14850.687224
465.877845	17399.151811
466.249631	19837.184881
466.621358	19930.872204
466.993026	19071.284897
467.364634	18859.193473
467.736184	17873.050519
468.107674	17331.968353
468.479105	17580.393894
468.850477	17268.268333
469.221790	17035.140174
469.593043	16581.779126
469.964238	16249.768734
470.335373	16065.766618
470.706449	16503.815161
471.077467	16192.924683
471.448425	17885.350934
471.819324	21557.723127
472.190164	23648.392970
472.560945	20625.926332
472.931667	18472.849524
473.302330	17940.186085
473.672934	17494.079258
474.043479	17940.516281
474.413965	17833.210280
474.784393	17546.882824
475.154761	18231.325323
475.525070	18318.401173
475.895321	18008.788628
476.265513	18623.527092
476.635645	19216.308811
477.005719	19073.210618
477.375734	19305.577563
477.745691	19811.021292
478.115588	20327.958852
478.485427	20868.425997
478.855207	21915.763517
479.224928	23630.595177
479.594591	25824.349055
479.964194	25983.296635
480.333739	26231.805355
480.703226	25840.921848
481.072653	25528.387953
481.442022	26067.456178
481.811333	26984.489954
482.180584	26966.515720
482.549777	26041.030450
482.918912	25697.828696
483.287988	25810.213659
483.657005	25556.331069
484.025964	25265.753920
484.394864	25231.015329
484.763706	24955.922084
485.132489	24369.414081
485.501213	24542.194588
485.869879	24479.190247
486.238487	24274.320276
486.607036	24443.219094
486.975527	24111.939669
487.343959	24464.230623
487.712333	24440.511995
488.080648	24106.633855
488.448905	24578.175824
488.817104	24327.093595
489.185244	24965.008764
489.553326	24975.179292
489.921350	25923.687512
490.289315	28163.593153
490.657222	29992.223820
491.025070	30478.869086
491.392861	30285.540836
491.760593	29457.254053
492.128267	28569.990812
492.495883	27555.647643
492.863440	26667.585379
493.230939	25788.781194
493.598380	25644.367259
493.965763	25232.250412
494.333088	24802.106398
494.700354	24714.108017
495.067563	24610.834939
495.434713	24356.697771
495.801805	24502.336705
496.168839	24331.630633
496.535815	24153.609847
496.902733	24367.669842
497.269593	24029.141238
497.636395	24225.595003
498.003139	24212.026738
498.369825	23952.082160
498.736453	24139.597960
499.103023	24025.125959
499.469535	24051.501276
499.835989	24251.849332
500.202385	24278.620380
500.568723	23772.410396
500.935003	24053.769795
501.301226	23632.833449
501.667390	24459.302896
502.033497	24710.291863
502.399546	24431.972280
502.765537	24030.257853
503.131470	24405.750718
503.497345	24548.380084
503.863163	23754.685699
504.228923	24387.731114
504.594625	24560.320057
504.960269	24078.705863
505.325856	24574.828498
505.691385	23988.554908
506.056856	24600.324133
506.422270	24565.618310
506.787625	24159.472709
507.152924	24563.102774
507.518164	24578.874024
507.883347	24387.433686
508.248472	24078.274844
508.613540	24870.882860
508.978550	24637.119515
509.343503	24625.295489
509.708398	24908.729323
510.073236	25059.341356
510.438016	25252.127682
510.802738	24937.471461
511.167403	25198.031060
511.532010	24884.826692
511.896561	25674.987228
512.261053	25644.896581
512.625488	25485.293650
512.989866	25373.342226
513.354186	25237.427677
513.718449	25321.683002
514.082655	25707.671549
514.446803	25437.309427
514.810894	25897.675158
515.174927	25381.748350
515.538904	25416.275213
515.902822	25906.474492
516.266684	25657.416286
516.630488	25572.845889
516.994235	25549.165069
517.357925	25843.777662
517.721558	26032.021908
518.085133	26122.261082
518.448651	26038.230089
518.812112	25764.533244
519.175516	25946.624762
519.538863	26125.051361
519.902152	25882.544135
520.265385	26204.999020
520.628560	25979.601470
520.991678	25993.905744
521.354739	26072.083958
521.717743	26124.085980
522.080690	25917.131491
522.443580	26244.917397
522.806413	26254.611535
523.169189	26346.453797
523.531908	26384.136422
523.894569	26002.768092
524.257174	26068.983648
524.619722	26270.902024
524.982213	25960.291330
525.344647	26029.468563
525.707025	26139.857230
526.069345	26133.752392
526.431608	26088.439981
526.793815	26285.680167
527.155964	25724.234260
527.518057	25905.322588
527.880093	25818.604660
528.242072	26059.029890
528.603995	25762.541988
528.965860	25568.830610
529.327669	25617.182837
529.689421	25602.986948
530.051117	25430.687871
530.412755	25606.377124
530.774337	25416.968371
531.135862	25291.647807
531.497331	25479.813916
531.858743	25033.066862
532.220098	25520.327148
532.581396	25196.569125
532.942638	25148.794110
533.303824	25229.384516
533.664953	25251.452167
534.026025	24902.362345
534.387040	25149.439378
534.747999	25211.584202
535.108902	25385.778752
535.469748	24858.123700
535.830537	25064.846296
536.191270	25164.963611
536.551947	25057.972682
536.912567	24712.462080
537.273131	25028.890266
537.633638	24757.270376
537.994089	24956.932836
538.354483	24516.893037
538.714821	25001.163920
539.075103	25046.620004
539.435328	24840.139383
539.795497	24387.652976
540.155609	24797.282014
540.515665	25081.920684
540.875665	24329.946888
541.235609	24607.180103
541.595496	24578.715227
541.955328	24927.179946
542.315102	24848.626166
542.674821	24406.743826
543.034483	24280.309167
543.394090	24450.657317
543.753640	24233.108843
544.113134	24869.783889
544.472571	24476.957016
544.831953	24770.362252
545.191278	24383.418407
545.550548	24292.123111
545.909761	24510.639486
546.268918	24739.878395
546.628019	24709.505443
546.987064	24404.019082
547.346053	24169.678525
547.704986	24286.789570
548.063863	24451.529436
548.422684	24450.823675
548.781449	23987.760927
549.140158	24397.420212
549.498811	23969.630417
549.857408	23718.127251
550.215949	24143.497292
550.574434	23817.337159
550.932864	24044.357961
551.291237	24185.036400
551.649555	24047.702766
552.007817	24114.583754
552.366022	23992.872657
552.724173	24016.079608
553.082267	23953.879332
553.440305	24433.116622
553.798288	23707.258524
554.156215	24229.489295
554.514086	24309.850328
554.871902	23682.317415
555.229661	23973.262568
555.587365	23839.152752
555.945014	23675.650489
556.302606	23950.108548
556.660143	23884.147571
557.017625	24146.806810
557.375050	23668.590353
557.732421	24059.373037
558.089735	23862.664694
558.446994	23929.248254
558.804197	23957.219096
559.161345	23907.515840
559.518437	23662.440145
559.875474	23854.908879
560.232455	24039.730182
560.589381	23863.456155
560.946251	23830.353418
561.303065	24171.425285
561.659825	24249.371605
562.016528	23853.938457
562.373177	23602.999900
562.729770	23942.009935
563.086307	23808.008504
563.442789	23975.213495
563.799216	23805.752587
564.155587	23821.851512
564.511904	23803.050529
564.868164	23738.828750
565.224370	23718.321336
565.580520	23635.444767
565.936615	23762.565022
566.292654	23435.976391
566.648638	23740.492330
567.004567	23562.690834
567.360441	23523.425287
567.716260	23240.666968
568.072023	23564.495567
568.427732	23320.533968
568.783385	23113.695426
569.138982	23347.332742
569.494525	23392.874526
569.850013	23129.209577
570.205445	23229.878898
570.560823	23030.009751
570.916145	22787.749542
571.271412	22968.187561
571.626625	22727.815263
571.981782	22838.685360
572.336884	22634.344709
572.691931	22778.143623
573.046923	22517.926823
573.401860	22398.010376
573.756743	22388.119632
574.111570	22314.939722
574.466342	22244.025811
574.821059	22325.614366
575.175722	22050.072458
575.530330	22022.230165
575.884882	22040.857229
576.239380	21949.501439
576.593823	21841.459430
576.948211	21824.884116
577.302544	21662.962254
577.656823	21537.828213
578.011047	21621.443311
578.365216	21497.287254
578.719330	21395.203888
579.073389	21283.459152
579.427394	21425.778486
579.781344	21208.426618
580.135239	21095.129206
580.489080	21067.720452
580.842866	20827.007877
581.196597	21010.057214
581.550273	20990.734471
581.903895	20884.955940
582.257463	21206.281607
582.610975	20735.082436
582.964434	21038.696009
583.317837	20751.829149
583.671186	20832.212868
584.024481	20805.764454
584.377721	20574.743497
584.730906	20625.447422
585.084037	20662.227681
585.437113	20563.902496
585.790135	20756.759398
586.143103	20233.046528
586.496016	20249.992366
586.848874	20484.688325
587.201679	20422.727503
587.554428	20092.902451
587.907124	20425.790004
588.259765	20202.797084
588.612352	20275.188053
588.964884	19848.300625
589.317362	20024.524240
589.669786	20073.456200
590.022155	20119.882706
590.374470	20298.271497
590.726731	20104.514748
591.078937	19853.165338
591.431090	19953.529670
591.783188	19707.271825
592.135232	19675.794861
592.487222	19778.883936
592.839157	19800.845723
593.191038	19681.866931
593.542866	19569.305527
593.894639	19287.915881
594.246358	19503.248767
594.598022	19422.587785
594.949633	19170.104116
595.301190	19128.126428
595.652692	19295.487694
596.004141	19537.672287
596.355535	18869.878198
596.706876	18878.546462
597.058162	18771.091748
597.409395	18990.213061
597.760573	19084.593543
598.111698	18849.103603
598.462768	18786.570610
598.813785	18750.672554
599.164748	18570.322754
599.515657	18611.824053
599.866511	18404.458711
600.217312	18758.899717
600.568060	18287.899672
600.918753	18599.546323
601.269392	18502.136107
601.619978	18274.941386
601.970510	18474.543352
602.320988	18432.520293
602.671412	18645.544332
603.021783	18547.468683
603.372100	18283.783570
603.722363	18423.826824
604.072572	18360.416670
604.422728	18499.943206
604.772830	18252.916585
605.122878	18208.166262
605.472872	18196.130507
605.822813	18185.372685
606.172701	18150.835740
606.522534	18358.012040
606.872314	18369.843628
607.222041	18195.011371
607.571714	18421.512934
607.921333	18244.099607
608.270899	18322.199683
608.620411	18508.112395
608.969870	18268.448380
609.319276	18276.680584
609.668627	18313.067633
610.017926	18446.239794
610.367171	18558.728101
610.716362	18606.908928
611.065500	18409.983815
611.414585	18552.845074
611.763616	18537.043577
612.112594	18479.438312
612.461518	18445.476059
612.810389	18640.803126
613.159207	18493.147730
613.507971	18401.040808
613.856682	18685.472791
614.205340	18608.602756
614.553945	18760.815355
614.902496	18499.592845
615.250994	18736.242251
615.599439	18671.982663
615.947830	18668.184153
616.296169	18715.291216
616.644454	18673.719340
616.992686	18643.585843
617.340864	18864.776551
617.688990	18620.081463
618.037063	18793.497156
618.385082	18653.869797
618.733048	18919.566331
619.080961	18784.634807
619.428821	18825.090067
619.776628	18719.142657
620.124382	18637.894381
620.472083	18675.793775
620.819731	18697.233803
621.167326	18396.947391
621.514868	18435.030788
621.862357	18196.627061
622.209793	18211.135502
622.557176	18049.022076
622.904506	17871.538173
623.251783	17782.864277
623.599007	17539.308490
623.946179	17491.936768
624.293297	17438.281247
624.640363	17186.662135
624.987376	17198.571861
625.334336	16994.037126
625.681243	16839.392170
626.028097	16845.121441
626.374899	16784.612472
626.721647	16643.132489
627.068343	16473.031355
627.414987	16405.595840
627.761577	16375.127106
628.108115	16424.873213
628.454600	16151.297355
628.801032	16240.334214
629.147412	16174.131261
629.493739	16197.318048
629.840014	15999.195661
630.186236	16118.451717
630.532405	15862.419075
630.878521	16059.417285
631.224585	15960.749301
631.570597	15784.949143
631.916556	15814.724718
632.262462	15792.087417
632.608316	15715.988679
632.954117	15648.278421
633.299866	15647.595345
633.645562	15561.830195
633.991206	15326.917467
634.336797	15191.993504
634.682336	15159.462939
635.027823	15047.635023
635.373257	14934.042703
635.718639	14827.253421
636.063968	14780.458910
636.409245	14527.362740
636.754470	14560.213419
637.099642	14404.315737
