Dividing Wavelength (nm)	Counts (n)	Blue Motor Position (mm): 24.400000	Red Motor Position (mm): 0.000000	
326.493990	2196.080371
326.888308	2196.080371
327.282561	2196.080371
327.676750	2156.098979
328.070874	2153.724596
328.464933	2155.163845
328.858929	2156.439257
329.252859	2164.207675
329.646726	2171.726556
330.040528	2185.710717
330.434265	2197.940556
330.827938	2213.303473
331.221547	2231.421380
331.615091	2248.533576
332.008571	2267.188366
332.401986	2285.023968
332.795338	2303.701443
333.188625	2321.232056
333.581847	2342.034377
333.975006	2361.810824
334.368100	2377.524100
334.761129	2396.798952
335.154095	2414.939544
335.546996	2440.057093
335.939833	2476.282825
336.332606	2489.770432
336.725315	2502.774088
337.117960	2513.408402
337.510540	2527.269055
337.903056	2539.660211
338.295508	2544.197249
338.687896	2556.240566
339.080220	2565.319684
339.472480	2569.700447
339.864676	2575.906107
340.256807	2580.944740
340.648875	2585.965730
341.040879	2588.738364
341.432818	2591.236256
341.824694	2594.442430
342.216506	2593.083839
342.608253	2594.026535
342.999937	2594.770105
343.391557	2594.850763
343.783113	2593.139292
344.174605	2594.412183
344.566033	2590.981678
344.957397	2589.998653
345.348697	2591.258941
345.739934	2589.602922
346.131106	2586.396748
346.522215	2583.858527
346.913260	2582.056315
347.304241	2579.402147
347.695159	2580.692683
348.086012	2577.123546
348.476802	2574.103895
348.867528	2571.716908
349.258191	2565.813717
349.648789	2566.751372
350.039324	2562.713408
350.429796	2568.389747
350.820203	2569.067782
351.210548	2565.617112
351.600828	2563.688871
351.991045	2561.306926
352.381198	2560.457491
352.771288	2561.934549
353.161314	2562.128634
353.551276	2561.460681
353.941175	2559.199723
354.331010	2559.335834
354.720782	2558.675443
355.110490	2560.396997
355.500135	2558.940104
355.889717	2559.189641
356.279235	2560.593602
356.668689	2558.176369
357.058080	2559.419013
357.447408	2557.510937
357.836672	2561.216185
358.225873	2560.460012
358.615010	2559.459343
359.004084	2561.062430
359.393095	2564.523182
359.782043	2564.908830
360.170927	2562.310115
360.559748	2563.025959
360.948505	2562.229457
361.337199	2566.153995
361.725830	2563.633418
362.114398	2561.400187
362.502903	2566.373285
362.891344	2566.189283
363.279722	2567.981413
363.668037	2568.777916
364.056289	2570.713719
364.444478	2568.553584
364.832603	2568.926630
365.220665	2570.103739
365.608665	2572.664645
365.996601	2571.792526
366.384474	2566.925292
366.772284	2571.318657
367.160031	2572.412587
367.547715	2571.111970
367.935336	2569.370251
368.322893	2568.402350
368.710388	2570.653225
369.097820	2570.010478
369.485189	2568.359500
369.872495	2575.608679
370.259738	2572.256312
370.646918	2575.245716
371.034035	2574.469378
371.421090	2573.297310
371.808081	2573.808987
372.195010	2575.656570
372.581875	2574.741601
372.968678	2575.149934
373.355418	2576.763103
373.742096	2578.741756
374.128710	2577.463824
374.515262	2579.928948
374.901751	2580.579257
375.288177	2580.294432
375.674540	2576.639595
376.060841	2578.875347
376.447079	2577.478947
376.833254	2576.148082
377.219367	2578.489698
377.605417	2582.729309
377.991404	2580.977508
378.377329	2579.734863
378.763191	2579.409709
379.148991	2580.092785
379.534727	2580.445666
379.920402	2579.591191
380.306013	2580.576736
380.691563	2581.098496
381.077049	2577.584811
381.462474	2580.415419
381.847835	2579.908783
382.233134	2580.493557
382.618371	2584.604618
383.003545	2582.008424
383.388657	2580.453228
383.773706	2584.894484
384.158693	2583.820719
384.543618	2582.441963
384.928480	2583.956830
385.313280	2584.077817
385.698017	2586.699217
386.082692	2583.316603
386.467305	2586.938672
386.851856	2586.646285
387.236344	2587.319279
387.620770	2583.573702
388.005133	2582.683938
388.389435	2582.315934
388.773674	2582.184864
389.157851	2584.002200
389.541965	2586.711820
389.926018	2588.884558
390.310008	2587.205853
390.693936	2585.743919
391.077802	2587.367170
391.461606	2590.389342
391.845348	2585.804413
392.229027	2587.667119
392.612645	2588.710638
392.996200	2590.843046
393.379694	2588.950093
393.763125	2592.181472
394.146494	2589.809609
394.529801	2590.447315
394.913047	2587.823395
395.296230	2590.490165
395.679351	2587.841039
396.062410	2591.543766
396.445408	2590.497727
396.828343	2590.979157
397.211217	2593.121648
397.594028	2593.529981
397.976778	2592.927563
398.359466	2592.534353
398.742092	2594.220619
399.124656	2592.912440
399.507158	2593.966041
399.889598	2597.522575
400.271977	2593.098962
400.654294	2592.733479
401.036549	2594.081987
401.418742	2592.783890
401.800874	2594.961669
402.182944	2594.734817
402.564952	2594.913778
402.946898	2598.195569
403.328783	2597.411669
403.710606	2596.673140
404.092367	2595.034765
404.474067	2594.636514
404.855705	2597.663727
405.237282	2597.048706
405.618797	2599.944849
406.000250	2599.060127
406.381642	2599.130703
406.762972	2594.906216
407.144240	2595.962338
407.525447	2597.903182
407.906593	2595.241453
408.287677	2597.494848
408.668700	2598.956783
409.049661	2600.743872
409.430560	2599.589448
409.811399	2599.292020
410.192176	2600.645570
410.572891	2601.807556
410.953545	2600.441403
411.334138	2603.178749
411.714669	2602.399891
412.095139	2601.815117
412.475547	2603.095570
412.855894	2603.340066
413.236180	2602.286465
413.616405	2605.890890
413.996568	2603.755962
414.376670	2600.771598
414.756711	2602.803183
415.136691	2601.590786
415.516609	2604.837289
415.896466	2603.798811
416.276262	2603.057762
416.655997	2604.471805
417.035670	2605.969028
417.415283	2607.110849
417.794834	2607.120932
418.174324	2602.326794
418.553753	2604.907865
418.933121	2605.863164
419.312428	2608.393823
419.691674	2608.088833
420.070859	2607.418360
420.449983	2604.998606
420.829045	2608.219903
421.208047	2607.851899
421.586988	2607.856940
421.965867	2609.147476
422.344686	2609.545727
422.723444	2609.923813
423.102141	2610.548916
423.480777	2612.661160
423.859352	2608.764348
424.237866	2608.880294
424.616319	2610.697630
424.994712	2613.926489
425.373044	2611.199225
425.751314	2609.089502
426.129524	2606.364759
426.507673	2608.930706
426.885762	2608.197218
427.263789	2612.298197
427.641756	2610.836262
428.019662	2613.666870
428.397508	2610.669904
428.775292	2613.745008
429.153016	2614.518825
429.530679	2613.273660
429.908282	2614.513784
430.285824	2613.555965
430.663305	2614.997735
431.040726	2615.960595
431.418086	2613.792899
431.795385	2617.483023
432.172624	2616.802468
432.549802	2616.747015
432.926920	2613.351798
433.303977	2618.682818
433.680974	2619.988477
434.057910	2617.442694
434.434786	2616.792385
434.811601	2617.477982
435.188355	2617.004114
435.565050	2616.898250
435.941683	2618.702983
436.318257	2619.776748
436.694770	2621.163066
437.071222	2619.590226
437.447614	2621.344547
437.823946	2621.478138
438.200218	2620.091821
438.576429	2623.350927
438.952580	2621.929321
439.328670	2624.369240
439.704700	2624.107100
440.080670	2621.909157
440.456580	2625.594240
440.832429	2627.519961
441.208218	2625.707666
441.583947	2625.851339
441.959616	2627.575413
442.335224	2626.761267
442.710773	2626.778911
443.086261	2625.211112
443.461689	2626.557100
443.837057	2629.249077
444.212365	2629.773357
444.587612	2629.581793
444.962800	2628.361833
445.337927	2631.275620
445.712995	2627.303191
446.088002	2632.392236
446.462949	2636.687299
446.837837	2636.261322
447.212664	2636.672176
447.587431	2638.234933
447.962139	2639.679224
448.336786	2646.630975
448.711374	2648.576860
449.085901	2647.452683
449.460369	2644.551499
449.834776	2646.268012
450.209124	2651.581388
450.583412	2654.616163
450.957640	2657.666061
451.331808	2656.380567
451.705917	2653.917963
452.079965	2659.506082
452.453954	2664.285096
452.827883	2665.510096
453.201752	2665.137051
453.575562	2674.316992
453.949311	2677.518125
454.323001	2686.352747
454.696632	2692.785259
455.070202	2700.455375
455.443713	2710.492312
455.817164	2720.010010
456.190556	2731.655076
456.563888	2749.256264
456.937160	2763.275713
457.310373	2766.897782
457.683526	2779.982097
458.056619	2789.083900
458.429653	2807.060655
458.802628	2818.491471
459.175542	2841.249760
459.548398	2885.995042
459.921194	2922.787903
460.293930	2958.703604
460.666607	3019.308355
461.039224	3102.479832
461.411782	3173.159330
461.784280	3207.933209
462.156719	3246.916452
462.529099	3278.451389
462.901419	3273.037190
463.273680	3308.100936
463.645882	3347.505115
464.018024	3390.778379
464.390106	3460.515181
464.762130	3581.535641
465.134094	3713.371896
465.505999	3987.587980
465.877845	4436.240590
466.249631	4826.332637
466.621358	4874.039596
466.993026	4820.971370
467.364634	4847.371892
467.736184	4813.828055
468.107674	4821.767872
468.479105	4948.537768
468.850477	5011.602602
469.221790	5064.317948
469.593043	5069.858176
469.964238	5110.837716
470.335373	5165.304863
470.706449	5351.857802
471.077467	5386.238471
471.448425	5852.764492
471.819324	6804.902342
472.190164	7413.404900
472.560945	6869.177054
472.931667	6484.113558
473.302330	6488.237222
473.672934	6498.319530
474.043479	6746.331696
474.413965	6851.911102
474.784393	6916.967192
475.154761	7248.453305
475.525070	7403.496512
475.895321	7445.688449
476.265513	7786.394832
476.635645	8116.585367
477.005719	8231.564004
477.375734	8465.841547
477.745691	8825.497627
478.115588	9145.459662
478.485427	9546.546464
478.855207	10102.772256
479.224928	10946.585793
479.594591	12065.626165
479.964194	12302.570478
480.333739	12729.223492
480.703226	12712.393600
481.072653	12848.338396
481.442022	13364.113970
481.811333	13986.378877
482.180584	14240.747938
482.549777	14014.574050
482.918912	14131.780877
483.287988	14405.875974
483.657005	14510.681562
484.025964	14588.867338
484.394864	14805.521007
484.763706	14885.869437
485.132489	14862.027300
485.501213	15123.375839
485.869879	15360.002559
486.238487	15376.739190
486.607036	15771.433810
486.975527	15773.203255
487.343959	16179.852971
487.712333	16432.709686
488.080648	16379.112138
488.448905	16924.287721
488.817104	16966.792210
489.185244	17616.112990
489.553326	17875.253503
489.921350	18672.403599
490.289315	20418.364384
490.657222	21932.043923
491.025070	22545.164177
491.392861	22654.592504
491.760593	22279.820524
492.128267	21951.316254
492.495883	21378.784850
492.863440	20965.175821
493.230939	20464.690067
493.598380	20560.618184
493.965763	20408.786192
494.333088	20243.701006
494.700354	20351.569096
495.067563	20442.753486
495.434713	20398.356044
495.801805	20629.739965
496.168839	20681.048829
496.535815	20673.870226
496.902733	20974.459106
497.269593	20805.015843
497.636395	21141.386833
498.003139	21250.159810
498.369825	21189.683608
498.736453	21454.966767
499.103023	21461.986574
499.469535	21593.089341
499.835989	21892.569168
500.202385	22043.397970
500.568723	21692.510977
500.935003	22017.947705
501.301226	21746.569791
501.667390	22556.836969
502.033497	22903.179362
502.399546	22725.072876
502.765537	22462.955561
503.131470	22876.494014
503.497345	23089.147527
503.863163	22399.570613
504.228923	23086.125355
504.594625	23327.813394
504.960269	22904.598447
505.325856	23452.067754
505.691385	22958.478299
506.056856	23585.527261
506.422270	23615.751499
506.787625	23274.407410
507.152924	23717.885276
507.518164	23778.812661
507.883347	23615.259987
508.248472	23376.843657
508.613540	24166.479913
508.978550	23991.597245
509.343503	24007.658361
509.708398	24311.856707
510.073236	24504.701007
510.438016	24733.408074
510.802738	24452.741834
511.167403	24714.899478
511.532010	24414.814713
511.896561	25233.578756
512.261053	25229.492901
512.625488	25098.173364
512.989866	25000.836245
513.354186	24875.941658
513.718449	24982.884696
514.082655	25377.914552
514.446803	25128.677386
514.810894	25586.804844
515.174927	25084.088380
515.538904	25141.192050
515.902822	25633.264118
516.266684	25391.966769
516.630488	25311.509953
516.994235	25317.284595
517.357925	25603.838903
517.721558	25808.681148
518.085133	25891.275413
518.448651	25836.790622
518.812112	25551.783948
519.175516	25732.022842
519.538863	25935.282166
519.902152	25700.051845
520.265385	26011.474165
520.628560	25784.009742
520.991678	25820.994167
521.354739	25903.253195
521.717743	25950.198940
522.080690	25751.761480
522.443580	26080.069145
522.806413	26090.068274
523.169189	26181.653436
523.531908	26253.177327
523.894569	25842.945871
524.257174	25905.899800
524.619722	26120.877286
524.982213	25799.617154
525.344647	25889.977316
525.707025	25995.589489
526.069345	26003.849420
526.431608	25950.292201
526.793815	26144.301007
527.155964	25586.237714
527.518057	25749.455153
527.880093	25686.677664
528.242072	25927.455774
528.603995	25621.919001
528.965860	25424.893065
529.327669	25474.601363
529.689421	25478.246117
530.051117	25287.544308
530.412755	25482.541180
530.774337	25287.730831
531.135862	25149.144470
531.497331	25362.760844
531.858743	24897.749690
532.220098	25379.777259
532.581396	25062.545009
532.942638	25022.856005
533.303824	25098.375010
533.664953	25132.632171
534.026025	24795.898217
534.387040	25031.932602
534.747999	25095.325112
535.108902	25259.601192
535.469748	24744.672533
535.830537	24958.765295
536.191270	25051.744337
536.551947	24944.919766
536.912567	24614.404076
537.273131	24917.458081
537.633638	24641.286029
537.994089	24841.019065
538.354483	24405.249123
538.714821	24913.291567
539.075103	24944.536638
539.435328	24729.856581
539.795497	24274.257261
540.155609	24688.758575
540.515665	24981.785724
540.875665	24229.852258
541.235609	24492.975283
541.595496	24469.851510
541.955328	24828.101108
542.315102	24734.375976
542.674821	24315.947604
543.034483	24184.529764
543.394090	24356.506207
543.753640	24138.723320
544.113134	24779.040599
544.472571	24372.907601
544.831953	24660.013915
545.191278	24279.618528
545.550548	24206.547003
545.909761	24417.448716
546.268918	24641.086903
546.628019	24601.692807
546.987064	24316.189579
547.346053	24066.234048
547.704986	24202.108268
548.063863	24355.644170
548.422684	24351.462532
548.781449	23915.024638
549.140158	24307.647344
549.498811	23882.158836
549.857408	23609.553400
550.215949	24065.374531
550.574434	23732.595363
550.932864	23967.926507
551.291237	24087.459826
551.649555	23976.995543
552.007817	24014.128682
552.366022	23897.234406
552.724173	23938.579430
553.082267	23873.553586
553.440305	24351.134858
553.798288	23619.136634
554.156215	24144.417303
554.514086	24227.346804
554.871902	23588.408281
555.229661	23884.629001
555.587365	23745.218412
555.945014	23583.573814
556.302606	23867.569737
556.660143	23772.054995
557.017625	24057.081833
557.375050	23591.432973
557.732421	23971.475479
558.089735	23794.024343
558.446994	23846.626263
558.804197	23871.131312
559.161345	23829.347708
559.518437	23567.535383
559.875474	23777.716210
560.232455	23946.395739
560.589381	23770.116671
560.946251	23736.492175
561.303065	24075.371139
561.659825	24155.172605
562.016528	23763.386731
562.373177	23505.637576
562.729770	23862.112687
563.086307	23732.797009
563.442789	23915.211161
563.799216	23730.888932
564.155587	23748.220419
564.511904	23727.609662
564.868164	23653.494618
565.224370	23649.839781
565.580520	23533.449621
565.936615	23683.234905
566.292654	23345.603626
566.648638	23663.886957
567.004567	23479.244615
567.360441	23435.005969
567.716260	23167.038395
568.072023	23488.321212
568.427732	23239.585640
568.783385	23034.703066
569.138982	23265.885340
569.494525	23303.507471
569.850013	23054.638308
570.205445	23146.440241
570.560823	22950.596455
570.916145	22713.195917
571.271412	22884.514490
571.626625	22644.805104
571.981782	22759.884564
572.336884	22560.131363
572.691931	22696.537424
573.046923	22422.974170
573.401860	22315.186739
573.756743	22327.570333
574.111570	22230.639027
574.466342	22160.491371
574.821059	22256.921083
575.175722	21959.490485
575.530330	21936.709511
575.884882	21969.663534
576.239380	21872.069316
576.593823	21766.749530
576.948211	21745.702712
577.302544	21593.081780
577.656823	21462.200823
578.011047	21552.818084
578.365216	21429.622366
578.719330	21309.834468
579.073389	21215.572453
579.427394	21348.268225
579.781344	21135.735700
580.135239	21024.348885
580.489080	20991.929225
580.842866	20748.990980
581.196597	20941.996596
581.550273	20925.466652
581.903895	20817.197791
582.257463	21131.002056
582.610975	20656.261475
582.964434	20958.410593
583.317837	20671.326963
583.671186	20769.843712
584.024481	20729.695963
584.377721	20511.948364
584.730906	20559.819161
585.084037	20598.507496
585.437113	20487.891978
585.790135	20692.378822
586.143103	20169.036477
586.496016	20173.954122
586.848874	20423.808830
587.201679	20353.683860
587.554428	20019.412510
587.907124	20345.116419
588.259765	20134.479367
588.612352	20206.827486
588.964884	19780.726478
589.317362	19949.287539
589.669786	20002.012967
590.022155	20068.977134
590.374470	20242.513814
590.726731	20038.536127
591.078937	19778.596591
591.431090	19889.832171
591.783188	19642.903852
592.135232	19611.900756
592.487222	19711.022444
592.839157	19744.407485
593.191038	19620.584144
593.542866	19508.617596
593.894639	19227.560667
594.246358	19447.707855
594.598022	19362.671151
594.949633	19114.079252
595.301190	19076.169775
595.652692	19229.405729
596.004141	19477.415375
596.355535	18809.336461
596.706876	18816.033634
597.058162	18700.008958
597.409395	18923.576569
597.760573	19010.380197
598.111698	18789.139078
598.462768	18730.003823
598.813785	18691.484367
599.164748	18521.968007
599.515657	18548.388694
599.866511	18336.516560
600.217312	18696.107105
600.568060	18232.527638
600.918753	18536.431077
601.269392	18439.429195
601.619978	18216.403508
601.970510	18429.757741
602.320988	18372.434781
602.671412	18579.197706
603.021783	18485.961565
603.372100	18216.746306
603.722363	18353.112038
604.072572	18290.778171
604.422728	18429.306558
604.772830	18189.854271
605.122878	18141.144122
605.472872	18135.162793
605.822813	18113.881562
606.172701	18090.530937
606.522534	18297.782854
606.872314	18304.091858
607.222041	18142.278381
607.571714	18352.996092
607.921333	18186.166667
608.270899	18256.657121
608.620411	18446.542263
608.969870	18208.428402
609.319276	18210.661633
609.668627	18248.898785
610.017926	18379.353764
610.367171	18498.647629
610.716362	18524.687709
611.065500	18354.863839
611.414585	18490.246546
611.763616	18476.569896
612.112594	18420.199713
612.461518	18393.602586
612.810389	18577.289629
613.159207	18437.165717
613.507971	18340.410851
613.856682	18621.306464
614.205340	18549.951452
614.553945	18696.321354
614.902496	18435.378628
615.250994	18679.337706
615.599439	18610.939331
615.947830	18614.692470
616.296169	18644.468045
616.644454	18619.370661
616.992686	18576.450277
617.340864	18796.174008
617.688990	18558.271876
618.037063	18726.384275
618.385082	18582.734075
618.733048	18862.969297
619.080961	18725.307988
619.428821	18757.024408
619.776628	18652.614550
620.124382	18586.356144
620.472083	18617.926370
620.819731	18648.097676
621.167326	18338.742229
621.514868	18384.722593
621.862357	18138.111868
622.209793	18158.024425
622.557176	17993.944950
622.904506	17806.318245
623.251783	17713.026652
623.599007	17491.760327
623.946179	17435.979960
624.293297	17369.827419
624.640363	17127.668032
624.987376	17147.174777
625.334336	16940.691636
625.681243	16783.755475
626.028097	16789.343594
626.374899	16727.965026
626.721647	16585.065958
627.068343	16417.755103
627.414987	16353.697161
627.761577	16330.165055
628.108115	16378.222375
628.454600	16087.299907
628.801032	16194.260589
629.147412	16119.815349
629.493739	16139.266641
629.840014	15958.914321
630.186236	16051.318671
630.532405	15806.734490
630.878521	16018.452869
631.224585	15911.983700
631.570597	15729.841770
631.916556	15762.193375
632.262462	15738.492390
632.608316	15657.362581
632.954117	15600.795793
633.299866	15597.012407
633.645562	15512.058883
633.991206	15268.031748
634.336797	15138.300175
634.682336	15106.598879
635.027823	14994.597043
635.373257	14873.682448
635.718639	14773.348363
636.063968	14730.838833
636.409245	14481.969670
636.754470	14510.353887
637.099642	14354.859497
637.444762	14129.114107
637.789829	14174.335777
