Dividing Wavelength (nm)	Counts (n)	Blue Motor Position (mm): 38.000000	Red Motor Position (mm): 0.000000	
326.493990	2239.479664
326.888308	2239.479664
327.282561	2239.479664
327.676750	2199.984744
328.070874	2197.174301
328.464933	2198.565659
328.858929	2200.551874
329.252859	2208.398430
329.646726	2215.783720
330.040528	2227.612788
330.434265	2239.189798
330.827938	2258.257962
331.221547	2278.036929
331.615091	2291.675771
332.008571	2310.600263
332.401986	2332.436020
332.795338	2347.461179
333.188625	2368.291227
333.581847	2388.712941
333.975006	2405.711712
334.368100	2428.578386
334.761129	2447.646550
335.154095	2460.418314
335.546996	2487.234732
335.939833	2528.766277
336.332606	2542.931920
336.725315	2556.895916
337.117960	2570.943091
337.510540	2578.678742
337.903056	2593.348499
338.295508	2597.295723
338.687896	2608.151848
339.080220	2614.231479
339.472480	2623.565176
339.864676	2629.443161
340.256807	2633.571866
340.648875	2635.979017
341.040879	2638.469347
341.432818	2640.490850
341.824694	2644.422950
342.216506	2645.998310
342.608253	2644.488485
342.999937	2645.411016
343.391557	2647.485451
343.783113	2645.537045
344.174605	2646.325985
344.566033	2646.850265
344.957397	2645.053094
345.348697	2640.735346
345.739934	2643.971766
346.131106	2640.773154
346.522215	2638.504635
346.913260	2635.084212
347.304241	2635.074130
347.695159	2634.297792
348.086012	2634.653193
348.476802	2627.734210
348.867528	2624.543159
349.258191	2621.901595
349.648789	2622.007459
350.039324	2616.134515
350.429796	2620.411934
350.820203	2621.825977
351.210548	2618.612242
351.600828	2616.605863
351.991045	2616.842797
352.381198	2613.611417
352.771288	2616.784824
353.161314	2613.989504
353.551276	2613.843310
353.941175	2614.619648
354.331010	2615.214504
354.720782	2610.576643
355.110490	2612.207456
355.500135	2613.495471
355.889717	2611.400871
356.279235	2612.227621
356.668689	2613.422374
357.058080	2613.863475
357.447408	2613.374483
357.836672	2613.588732
358.225873	2613.465224
358.615010	2615.511932
359.004084	2615.474124
359.393095	2618.153497
359.782043	2617.843466
360.170927	2618.113168
360.559748	2617.767849
360.948505	2620.714403
361.337199	2618.554269
361.725830	2619.171810
362.114398	2620.336317
362.502903	2622.632562
362.891344	2618.702983
363.279722	2621.707510
363.668037	2621.311780
364.056289	2621.591564
364.444478	2624.160032
364.832603	2625.075001
365.220665	2624.402007
365.608665	2623.550052
365.996601	2627.346041
366.384474	2624.752367
366.772284	2624.918725
367.160031	2626.995681
367.547715	2628.291257
367.935336	2626.426030
368.322893	2625.390073
368.710388	2623.373612
369.097820	2625.521143
369.485189	2622.864455
369.872495	2629.463326
370.259738	2628.077008
370.646918	2631.371402
371.034035	2630.000208
371.421090	2633.418111
371.808081	2632.979530
372.195010	2633.276958
372.581875	2631.588172
372.968678	2631.600775
373.355418	2633.178656
373.742096	2632.654376
374.128710	2631.578090
374.515262	2637.690489
374.901751	2636.536064
375.288177	2635.779891
375.674540	2637.579583
376.060841	2639.371713
376.447079	2638.182001
376.833254	2636.591517
377.219367	2638.870119
377.605417	2639.318781
377.991404	2641.488998
378.377329	2641.952784
378.763191	2639.699388
379.148991	2642.545120
379.534727	2642.010757
379.920402	2640.886580
380.306013	2642.986221
380.691563	2643.752476
381.077049	2642.618217
381.462474	2643.165182
381.847835	2642.409009
382.233134	2645.509318
382.618371	2645.252219
383.003545	2646.479740
383.388657	2646.520070
383.773706	2646.683907
384.158693	2648.435708
384.543618	2647.455204
384.928480	2648.377735
385.313280	2647.130049
385.698017	2652.259423
386.082692	2651.326810
386.467305	2651.674649
386.851856	2653.686070
387.236344	2653.212201
387.620770	2649.290184
388.005133	2650.792447
388.389435	2654.316214
388.773674	2651.215904
389.157851	2656.529281
389.541965	2657.703869
389.926018	2656.650268
390.310008	2658.424754
390.693936	2661.313336
391.077802	2659.329642
391.461606	2663.370126
391.845348	2663.445744
392.229027	2663.523882
392.612645	2666.357010
392.996200	2671.183915
393.379694	2669.699295
393.763125	2680.275636
394.146494	2682.912159
394.529801	2691.381298
394.913047	2703.845551
395.296230	2711.853423
395.679351	2726.311453
396.062410	2745.372055
396.445408	2761.080291
396.828343	2786.699435
397.211217	2817.717654
397.594028	2839.465192
397.976778	2883.943292
398.359466	2926.969540
398.742092	2971.861015
399.124656	3009.805780
399.507158	3077.500915
399.889598	3146.305103
400.271977	3229.877352
400.654294	3285.435908
401.036549	3361.025489
401.418742	3403.408990
401.800874	3528.253165
402.182944	3614.754324
402.564952	3731.394021
402.946898	3825.167045
403.328783	3842.995085
403.710606	3918.433432
404.092367	4135.082060
404.474067	4227.277202
404.855705	4258.807098
405.237282	4299.645486
405.618797	4512.467878
406.000250	4583.487653
406.381642	4775.464874
406.762972	4868.534656
407.144240	4981.990865
407.525447	5046.220206
407.906593	5152.051669
408.287677	5331.564637
408.668700	5343.376060
409.049661	5498.031099
409.430560	5590.606848
409.811399	5543.318304
410.192176	5826.101829
410.572891	5888.927209
410.953545	6125.417818
411.334138	5959.531089
411.714669	6157.535009
412.095139	6038.689808
412.475547	6297.419467
412.855894	6401.539458
413.236180	6598.280570
413.616405	6368.731629
413.996568	6601.257371
414.376670	6654.166801
414.756711	6601.385920
415.136691	6713.662499
415.516609	6931.742814
415.896466	6957.871115
416.276262	7159.313102
416.655997	7167.013464
417.035670	7371.896039
417.415283	7712.909932
417.794834	7772.508973
418.174324	7658.460429
418.553753	7592.474246
418.933121	7922.692508
419.312428	8028.423148
419.691674	7823.628794
420.070859	8295.969786
420.449983	7989.210533
420.829045	8348.972477
421.208047	8147.308679
421.586988	8438.959594
421.965867	8459.827450
422.344686	8575.534534
422.723444	8602.895397
423.102141	7998.022470
423.480777	8738.746931
423.859352	8264.941484
424.237866	8886.394765
424.616319	8758.034386
424.994712	9159.590016
425.373044	8732.760561
425.751314	9188.972381
426.129524	9057.645282
426.507673	9190.840128
426.885762	9341.305968
427.263789	9249.446063
427.641756	9173.969907
428.019662	9276.627964
428.397508	9513.635292
428.775292	9210.180515
429.153016	9584.191281
429.530679	9421.677084
429.908282	9467.516296
430.285824	9174.804218
430.663305	9852.511735
431.040726	9311.270773
431.418086	9295.595305
431.795385	9619.186971
432.172624	9706.666113
432.549802	9623.013207
432.926920	9705.849447
433.303977	9582.754552
433.680974	9789.184761
434.057910	9873.790446
434.434786	9934.201113
434.811601	9781.123956
435.188355	10351.233085
435.565050	10073.253780
435.941683	10006.904634
436.318257	10501.131795
436.694770	10625.565116
437.071222	10694.712103
437.447614	10538.267455
437.823946	10429.318038
438.200218	10574.228526
438.576429	10391.350588
438.952580	10629.910591
439.328670	10679.170225
439.704700	10471.429317
440.080670	10454.909455
440.456580	11017.005671
440.832429	10763.609552
441.208218	10363.538542
441.583947	10703.917250
441.959616	10847.665752
442.335224	10648.041100
442.710773	10795.189861
443.086261	10994.176806
443.461689	10280.253639
443.837057	10933.700604
444.212365	11208.060361
444.587612	10850.952584
444.962800	11076.355175
445.337927	10842.112921
445.712995	10438.442526
446.088002	11518.350942
446.462949	11183.547750
446.837837	11147.122893
447.212664	11130.540017
447.587431	11660.128352
447.962139	12381.184752
448.336786	14638.772240
448.711374	15184.431774
449.085901	13037.976522
449.460369	12652.681133
449.834776	12097.208994
450.209124	12976.439157
450.583412	13390.650603
450.957640	14328.600126
451.331808	13471.016678
451.705917	12463.567288
452.079965	11764.051739
452.453954	12673.251561
452.827883	12306.918473
453.201752	12592.802308
453.575562	12111.775408
453.949311	12536.616128
454.323001	12490.862615
454.696632	12723.809293
455.070202	13006.640709
455.443713	13235.846851
455.817164	13696.673848
456.190556	13690.914329
456.563888	14059.089959
456.937160	14225.175814
457.310373	13568.850351
457.683526	13654.708762
458.056619	13203.749825
458.429653	13351.238863
458.802628	12779.813992
459.175542	13156.378102
459.548398	14104.916568
459.921194	14439.064410
460.293930	14510.797509
460.666607	15390.720830
461.039224	16431.766990
461.411782	17136.313611
461.784280	16982.818038
462.156719	17045.872790
462.529099	16732.938124
462.901419	15664.526060
463.273680	15454.526714
463.645882	15326.340254
464.018024	15055.574840
464.390106	15275.202790
464.762130	16001.885117
465.134094	16772.944721
465.505999	18763.887939
465.877845	22028.450949
466.249631	24862.670821
466.621358	24534.947930
466.993026	23102.375515
467.364634	22531.391745
467.736184	21057.756612
468.107674	20259.903275
468.479105	20391.152236
468.850477	19859.784373
469.221790	19448.554769
469.593043	18765.143186
469.964238	18204.524028
470.335373	17859.252881
470.706449	18312.543352
471.077467	17871.661681
471.448425	19711.481189
471.819324	23764.246247
472.190164	25737.081640
472.560945	22162.606135
472.931667	19816.412806
473.302330	19183.495941
473.672934	18731.057424
474.043479	19039.588642
474.413965	18849.438840
474.784393	18463.248647
475.154761	19178.689201
475.525070	19162.794442
475.895321	18824.137289
476.265513	19424.324463
476.635645	19994.972996
477.005719	19785.452560
477.375734	19967.168512
477.745691	20447.121646
478.115588	20979.303655
478.485427	21509.733862
478.855207	22571.645358
479.224928	24343.953734
479.594591	26583.277122
479.964194	26579.778561
480.333739	26781.215507
480.703226	26355.742123
481.072653	26046.043877
481.442022	26630.152291
481.811333	27541.829841
482.180584	27467.989540
482.549777	26512.970670
482.918912	26167.694481
483.287988	26291.593440
483.657005	25948.706758
484.025964	25711.127260
484.394864	25609.767300
484.763706	25286.341993
485.132489	24733.113167
485.501213	24901.376800
485.869879	24811.230887
486.238487	24650.697863
486.607036	24781.341886
486.975527	24499.876622
487.343959	24810.641072
487.712333	24740.722788
488.080648	24412.384877
488.448905	24894.125100
488.817104	24647.781556
489.185244	25339.836197
489.553326	25307.474510
489.921350	26314.097151
490.289315	28598.523742
490.657222	30364.538237
491.025070	30874.337523
491.392861	30638.598046
491.760593	29801.504367
492.128267	28883.129645
492.495883	27836.026538
492.863440	26961.887941
493.230939	26085.919404
493.598380	25929.978872
493.965763	25548.746653
494.333088	25078.311218
494.700354	25027.040162
495.067563	24896.098712
495.434713	24645.397090
495.801805	24794.988289
496.168839	24598.811787
496.535815	24445.379229
496.902733	24667.295862
497.269593	24338.317724
497.636395	24513.709548
498.003139	24468.770183
498.369825	24216.740217
498.736453	24430.817856
499.103023	24286.179590
499.469535	24304.920080
499.835989	24521.430076
500.202385	24544.377408
500.568723	24061.460075
500.935003	24282.668427
501.301226	23928.930661
501.667390	24768.421408
502.033497	24985.324614
502.399546	24717.712442
502.765537	24280.488127
503.131470	24664.445090
503.497345	24796.266222
503.863163	24024.367265
504.228923	24610.998777
504.594625	24828.091026
504.960269	24366.185222
505.325856	24849.901578
505.691385	24259.108594
506.056856	24866.902869
506.422270	24833.747200
506.787625	24389.666917
507.152924	24813.829602
507.518164	24833.258208
507.883347	24652.984026
508.248472	24330.927392
508.613540	25117.208761
508.978550	24909.392234
509.343503	24902.657253
509.708398	25144.609952
510.073236	25307.358563
510.438016	25523.722366
510.802738	25187.474883
511.167403	25435.313130
511.532010	25154.901468
511.896561	25920.272130
512.261053	25890.882203
512.625488	25718.716717
512.989866	25625.175587
513.354186	25451.780059
513.718449	25576.125160
514.082655	25954.415865
514.446803	25675.879512
514.810894	26157.017317
515.174927	25648.024617
515.538904	25683.322776
515.902822	26164.851271
516.266684	25918.048981
516.630488	25822.703118
516.994235	25790.038962
517.357925	26104.473371
517.721558	26278.231862
518.085133	26377.492181
518.448651	26271.287672
518.812112	26031.706836
519.175516	26241.605358
519.538863	26390.495837
519.902152	26182.528077
520.265385	26452.804499
520.628560	26243.881439
520.991678	26252.587512
521.354739	26307.284031
521.717743	26380.204322
522.080690	26165.194069
522.443580	26492.710273
522.806413	26482.602759
523.169189	26592.056292
523.531908	26627.770346
523.894569	26244.680462
524.257174	26339.902817
524.619722	26488.306825
524.982213	26195.259511
525.344647	26235.508083
525.707025	26387.173717
526.069345	26355.825302
526.431608	26319.110578
526.793815	26508.098395
527.155964	25971.951519
527.518057	26159.298440
527.880093	26073.225779
528.242072	26304.231613
528.603995	26011.615317
528.965860	25804.746528
529.327669	25858.323911
529.689421	25833.357597
530.051117	25682.228845
530.412755	25857.845001
530.774337	25655.321687
531.135862	25529.892738
531.497331	25725.640742
531.858743	25293.944053
532.220098	25756.379177
532.581396	25446.277640
532.942638	25375.356167
533.303824	25476.461548
533.664953	25483.473793
534.026025	25149.051209
534.387040	25382.799430
534.747999	25446.300325
535.108902	25604.837052
535.469748	25101.157727
535.830537	25273.943275
536.191270	25409.227679
536.551947	25260.876604
536.912567	24876.952409
537.273131	25287.695542
537.633638	24973.798016
537.994089	25193.057961
538.354483	24706.826070
538.714821	25219.982764
539.075103	25256.687405
539.435328	25025.124524
539.795497	24605.501398
540.155609	24986.920139
540.515665	25293.714680
540.875665	24512.129147
541.235609	24814.008563
541.595496	24783.933039
541.955328	25134.968746
542.315102	25053.019749
542.674821	24581.734878
543.034483	24469.428053
543.394090	24633.923424
543.753640	24439.423105
544.113134	25063.288579
544.472571	24655.189531
544.831953	24955.919564
545.191278	24590.496404
545.550548	24500.194215
545.909761	24703.967736
546.268918	24921.339769
546.628019	24904.424177
546.987064	24594.640232
547.346053	24342.290153
547.704986	24454.970024
548.063863	24612.914415
548.422684	24621.350786
548.781449	24140.936386
549.140158	24554.563059
549.498811	24123.947698
549.857408	23885.037335
550.215949	24286.847543
550.574434	23973.527229
550.932864	24182.553632
551.291237	24368.418453
551.649555	24216.105031
552.007817	24278.723724
552.366022	24129.918944
552.724173	24156.473222
553.082267	24115.077788
553.440305	24593.914306
553.798288	23850.172715
554.156215	24358.918399
554.514086	24462.390602
554.871902	23846.306150
555.229661	24124.923161
555.587365	23973.625531
555.945014	23866.107802
556.302606	24094.252781
556.660143	24062.732967
557.017625	24307.415451
557.375050	23831.240661
557.732421	24221.695671
558.089735	24029.335322
558.446994	24083.187448
558.804197	24114.442602
559.161345	24042.265882
559.518437	23814.942611
559.875474	24001.487988
560.232455	24181.242932
560.589381	24000.373893
560.946251	23994.642102
561.303065	24300.516632
561.659825	24390.745724
562.016528	23997.147555
562.373177	23730.077307
562.729770	24106.525470
563.086307	23950.411018
563.442789	24114.263641
563.799216	23952.089722
564.155587	23960.654642
564.511904	23943.655872
564.868164	23885.859043
565.224370	23851.896789
565.580520	23771.707155
565.936615	23898.532503
566.292654	23581.277568
566.648638	23869.311455
567.004567	23702.804664
567.360441	23651.833558
567.716260	23383.112331
568.072023	23692.301420
568.427732	23467.319765
568.783385	23239.956165
569.138982	23471.370332
569.494525	23512.818699
569.850013	23256.733125
570.205445	23359.348332
570.560823	23178.070960
570.916145	22940.461215
571.271412	23121.912507
571.626625	22875.758005
571.981782	22983.981496
572.336884	22787.502525
572.691931	22930.646088
573.046923	22660.631806
573.401860	22535.248228
573.756743	22570.047313
574.111570	22458.778965
574.466342	22384.026215
574.821059	22470.096355
575.175722	22176.242457
575.530330	22148.395123
575.884882	22163.269047
576.239380	22080.831058
576.593823	21972.098411
576.948211	21942.965583
577.302544	21810.468936
577.656823	21667.000218
578.011047	21764.186103
578.365216	21637.111217
578.719330	21516.733505
579.073389	21394.094834
579.427394	21548.729708
579.781344	21314.885705
580.135239	21209.560877
580.489080	21164.467756
580.842866	20933.880338
581.196597	21136.065895
581.550273	21113.471444
581.903895	20991.909060
582.257463	21309.494191
582.610975	20843.250474
582.964434	21169.024959
583.317837	20844.044456
583.671186	20931.745409
584.024481	20913.698079
584.377721	20683.952533
584.730906	20752.247565
585.084037	20761.155284
585.437113	20676.758807
585.790135	20874.727439
586.143103	20335.588638
586.496016	20349.187150
586.848874	20596.939697
587.201679	20510.272180
587.554428	20205.433607
587.907124	20527.666682
588.259765	20299.188987
588.612352	20375.688496
588.964884	19940.571384
589.317362	20116.200143
589.669786	20172.933288
590.022155	20188.765032
590.374470	20421.991494
590.726731	20194.524550
591.078937	19964.582400
591.431090	20051.564989
591.783188	19814.968516
592.135232	19780.474420
592.487222	19886.633559
592.839157	19898.460106
593.191038	19769.358676
593.542866	19674.867288
593.894639	19376.196567
594.246358	19592.391491
594.598022	19491.893568
594.949633	19250.893647
595.301190	19222.978258
595.652692	19387.367764
596.004141	19618.023238
596.355535	18953.377350
596.706876	18966.436459
597.058162	18859.218678
597.409395	19096.646942
597.760573	19153.090221
598.111698	18923.352238
598.462768	18870.778044
598.813785	18839.202777
599.164748	18646.570206
599.515657	18693.004274
599.866511	18482.866297
600.217312	18839.618672
600.568060	18362.740642
600.918753	18675.594650
601.269392	18561.576353
601.619978	18358.158233
601.970510	18558.879335
602.320988	18506.423609
602.671412	18710.550010
603.021783	18636.276170
603.372100	18346.616511
603.722363	18496.091764
604.072572	18438.463814
604.422728	18588.740610
604.772830	18339.077466
605.122878	18294.337225
605.472872	18285.121996
605.822813	18264.533924
606.172701	18241.889061
606.522534	18428.406712
606.872314	18452.480742
607.222041	18294.743038
607.571714	18505.261623
607.921333	18332.284511
608.270899	18409.530111
608.620411	18584.773222
608.969870	18357.147482
609.319276	18356.378706
609.668627	18386.673520
610.017926	18524.029839
610.367171	18639.540317
610.716362	18687.108645
611.065500	18507.464607
611.414585	18643.343868
611.763616	18632.560840
612.112594	18560.114418
612.461518	18536.552065
612.810389	18719.185507
613.159207	18585.413448
613.507971	18503.756838
613.856682	18760.225540
614.205340	18691.459161
614.553945	18835.542899
614.902496	18580.319362
615.250994	18800.622827
615.599439	18738.533455
615.947830	18739.950020
616.296169	18807.715730
616.644454	18763.930788
616.992686	18734.281242
617.340864	18946.226473
617.688990	18700.140028
618.037063	18879.675681
618.385082	18727.717660
618.733048	19008.613273
619.080961	18887.073574
619.428821	18929.031098
619.776628	18792.937588
620.124382	18723.248677
620.472083	18780.634652
620.819731	18791.599161
621.167326	18492.502462
621.514868	18525.590076
621.862357	18298.581877
622.209793	18310.108475
622.557176	18131.691958
622.904506	17962.450341
623.251783	17886.580976
623.599007	17636.156617
623.946179	17573.336279
624.293297	17511.693050
624.640363	17252.076147
624.987376	17279.426927
625.334336	17084.157833
625.681243	16930.011951
626.028097	16943.539888
626.374899	16861.036364
626.721647	16728.396044
627.068343	16558.284828
627.414987	16499.182341
627.761577	16459.500898
628.108115	16489.921741
628.454600	16226.750825
628.801032	16326.046432
629.147412	16257.073366
629.493739	16279.713188
629.840014	16085.227993
630.186236	16189.768921
630.532405	15949.058866
630.878521	16146.472971
631.224585	16049.647529
631.570597	15866.167173
631.916556	15895.168931
632.262462	15872.612288
632.608316	15789.317303
632.954117	15733.158849
633.299866	15727.613580
633.645562	15641.682072
633.991206	15403.386729
634.336797	15274.993582
634.682336	15238.999743
635.027823	15120.562875
635.373257	14996.530326
635.718639	14904.519186
636.063968	14855.889695
