Dividing Wavelength (nm)	Counts (n)	Blue Motor Position (mm): 47.500000	Red Motor Position (mm): 0.000000	
326.493990	2277.048863
326.888308	2277.048863
327.282561	2277.048863
327.676750	2236.265928
328.070874	2235.313150
328.464933	2236.888511
328.858929	2235.900445
329.252859	2242.925293
329.646726	2252.896695
330.040528	2264.839188
330.434265	2279.856786
330.827938	2296.074178
331.221547	2313.587146
331.615091	2331.054744
332.008571	2349.134843
332.401986	2365.407687
332.795338	2387.475338
333.188625	2408.212124
333.581847	2426.975299
333.975006	2445.698144
334.368100	2463.929477
334.761129	2481.644092
335.154095	2500.470281
335.546996	2524.047757
335.939833	2566.882442
336.332606	2583.046902
336.725315	2597.177256
337.117960	2606.384923
337.510540	2620.469907
337.903056	2631.310908
338.295508	2638.965901
338.687896	2647.359422
339.080220	2653.940648
339.472480	2659.632111
339.864676	2665.031187
340.256807	2671.009995
340.648875	2673.477640
341.040879	2677.223217
341.432818	2681.258661
341.824694	2684.137160
342.216506	2683.527180
342.608253	2684.946265
342.999937	2685.389886
343.391557	2683.000379
343.783113	2684.928621
344.174605	2681.659432
344.566033	2681.069617
344.957397	2682.042560
345.348697	2681.835873
345.739934	2678.178516
346.131106	2677.208094
346.522215	2675.345387
346.913260	2674.276663
347.304241	2672.759275
347.695159	2672.093843
348.086012	2669.757268
348.476802	2670.705005
348.867528	2661.794766
349.258191	2662.608912
349.648789	2661.066319
350.039324	2658.155053
350.429796	2661.741834
350.820203	2661.293171
351.210548	2657.240083
351.600828	2660.920126
351.991045	2655.591626
352.381198	2655.072387
352.771288	2656.420896
353.161314	2653.597850
353.551276	2654.376708
353.941175	2650.774803
354.331010	2655.142963
354.720782	2654.001142
355.110490	2655.591626
355.500135	2653.542397
355.889717	2655.294198
356.279235	2653.618014
356.668689	2653.822181
357.058080	2652.662716
357.447408	2653.431492
357.836672	2653.986018
358.225873	2653.129022
358.615010	2655.095072
359.004084	2657.555155
359.393095	2658.013900
359.782043	2658.641524
360.170927	2658.825526
360.559748	2655.326965
360.948505	2659.027172
361.337199	2661.988850
361.725830	2659.871566
362.114398	2663.458347
362.502903	2661.078922
362.891344	2663.153357
363.279722	2664.055723
363.668037	2664.625374
364.056289	2663.833912
364.444478	2665.300888
364.832603	2665.633604
365.220665	2666.485559
365.608665	2668.529747
365.996601	2667.597134
366.384474	2670.261384
366.772284	2668.623009
367.160031	2667.687875
367.547715	2674.286745
367.935336	2669.543019
368.322893	2668.718791
368.710388	2667.909685
369.097820	2669.033863
369.485189	2665.477329
369.872495	2674.692558
370.259738	2674.097702
370.646918	2676.126766
371.034035	2678.967456
371.421090	2680.930986
371.808081	2685.732685
372.195010	2689.790814
372.581875	2696.770291
372.968678	2700.561239
373.355418	2708.480892
373.742096	2721.487068
374.128710	2733.154819
374.515262	2745.102354
374.901751	2763.066505
375.288177	2776.241561
375.674540	2794.493058
376.060841	2816.036429
376.447079	2838.661128
376.833254	2863.025024
377.219367	2884.724671
377.605417	2918.606266
377.991404	2942.279525
378.377329	2980.998107
378.763191	3000.487207
379.148991	3047.092675
379.534727	3085.871751
379.920402	3122.256279
380.306013	3146.983138
380.691563	3210.942778
381.077049	3233.774163
381.462474	3274.161367
381.847835	3333.460460
382.233134	3375.440669
382.618371	3405.009557
383.003545	3471.215030
383.388657	3493.691015
383.773706	3555.787948
384.158693	3589.914039
384.543618	3622.197588
384.928480	3679.946526
385.313280	3738.013056
385.698017	3759.004421
386.082692	3850.612269
386.467305	3852.583360
386.851856	3892.927714
387.236344	3970.783294
387.620770	3994.189371
388.005133	4045.457906
388.389435	4091.723095
388.773674	4102.884210
389.157851	4177.901620
389.541965	4243.923092
389.926018	4208.808935
390.310008	4312.850788
390.693936	4363.970609
391.077802	4399.631731
391.461606	4394.802306
391.845348	4462.444508
392.229027	4524.322151
392.612645	4523.376935
392.996200	4624.797388
393.379694	4686.070093
393.763125	4791.284015
394.146494	4817.084640
394.529801	4870.246128
394.913047	4956.744766
395.296230	4905.365326
395.679351	5012.948590
396.062410	5067.085542
396.445408	5039.631418
396.828343	5098.801961
397.211217	5155.716588
397.594028	5035.994225
397.976778	5155.167102
398.359466	5199.405748
398.742092	5222.516917
399.124656	5141.132530
399.507158	5268.020893
399.889598	5324.857382
400.271977	5447.450682
400.654294	5445.829951
401.036549	5491.344008
401.418742	5411.494652
401.800874	5619.689264
402.182944	5675.678840
402.564952	5780.038286
402.946898	5837.204971
403.328783	5672.013921
403.710606	5698.298497
404.092367	6023.112642
404.474067	6045.432351
404.855705	5939.053922
405.237282	5873.808789
405.618797	6133.735722
406.000250	6110.193534
406.381642	6318.748589
406.762972	6336.561506
407.144240	6392.399847
407.525447	6376.197578
407.906593	6389.349948
408.287677	6555.299692
408.668700	6466.492205
409.049661	6582.710966
409.430560	6608.446056
409.811399	6474.169882
410.192176	6739.246355
410.572891	6757.989365
410.953545	6951.161339
411.334138	6677.169586
411.714669	6848.866245
412.095139	6637.301621
412.475547	6888.257821
412.855894	6957.906403
413.236180	7142.654609
413.616405	6807.009545
413.996568	7020.877976
414.376670	7078.246307
414.756711	6967.139276
415.136691	7068.695841
415.516609	7274.503467
415.896466	7257.497135
416.276262	7458.682023
416.655997	7446.923532
417.035670	7616.717155
417.415283	7968.488870
417.794834	8039.140641
418.174324	7886.164307
418.553753	7817.707959
418.933121	8108.345601
419.312428	8211.225469
419.691674	7982.495716
420.070859	8467.187535
420.449983	8150.187178
420.829045	8513.278805
421.208047	8275.931199
421.586988	8595.774767
421.965867	8616.042726
422.344686	8709.820790
422.723444	8786.658057
423.102141	8118.871531
423.480777	8889.003563
423.859352	8411.150069
424.237866	9025.129840
424.616319	8892.376094
424.994712	9322.966250
425.373044	8857.818985
425.751314	9346.863840
426.129524	9233.833609
426.507673	9312.747831
426.885762	9461.212333
427.263789	9393.832270
427.641756	9326.328700
428.019662	9408.897759
428.397508	9687.189616
428.775292	9330.742230
429.153016	9723.075069
429.530679	9551.075941
429.908282	9565.216378
430.285824	9299.855080
430.663305	9980.433535
431.040726	9434.332900
431.418086	9410.117718
431.795385	9754.491540
432.172624	9851.884112
432.549802	9748.467361
432.926920	9825.854114
433.303977	9691.005769
433.680974	9898.260207
434.057910	10002.710394
434.434786	10077.236292
434.811601	9890.663188
435.188355	10458.241658
435.565050	10209.155726
435.941683	10124.648343
436.318257	10603.847825
436.694770	10778.881728
437.071222	10822.492750
437.447614	10650.866667
437.823946	10579.650287
438.200218	10665.115488
438.576429	10513.679227
438.952580	10767.458473
439.328670	10775.547005
439.704700	10583.385782
440.080670	10577.507796
440.456580	11091.786147
440.832429	10884.700588
441.208218	10484.536317
441.583947	10773.152457
441.959616	10965.623710
442.335224	10774.556418
442.710773	10879.029290
443.086261	11115.219951
443.461689	10377.253001
443.837057	11067.936448
444.212365	11294.211159
444.587612	10930.076014
444.962800	11140.153498
445.337927	10874.285564
445.712995	10565.028420
446.088002	11593.423805
446.462949	11295.746191
446.837837	11256.838565
447.212664	11175.789414
447.587431	11778.797114
447.962139	12548.588868
448.336786	14846.072048
448.711374	15315.400951
449.085901	13128.823155
449.460369	12782.074949
449.834776	12226.741442
450.209124	13173.076924
450.583412	13592.440430
450.957640	14512.118291
451.331808	13542.117112
451.705917	12625.292544
452.079965	11855.488187
452.453954	12777.651337
452.827883	12438.724482
453.201752	12723.461454
453.575562	12280.308743
453.949311	12685.330166
454.323001	12680.200792
454.696632	12922.912185
455.070202	13194.537116
455.443713	13374.065207
455.817164	13885.714596
456.190556	13840.366897
456.563888	14209.822980
456.937160	14346.234082
457.310373	13718.161766
457.683526	13827.942973
458.056619	13333.927540
458.429653	13559.521696
458.802628	12903.861665
459.175542	13321.002022
459.548398	14280.910811
459.921194	14648.400844
460.293930	14714.868458
460.666607	15552.786365
461.039224	16625.362422
461.411782	17347.873194
461.784280	17103.624249
462.156719	17230.999083
462.529099	16891.789923
462.901419	15852.903897
463.273680	15613.950684
463.645882	15519.247568
464.018024	15244.809673
464.390106	15471.656555
464.762130	16171.981209
465.134094	16987.145868
465.505999	19070.753056
465.877845	22345.300071
466.249631	25141.164324
466.621358	24735.374124
466.993026	23307.353871
467.364634	22710.791287
467.736184	21240.846278
468.107674	20453.980136
468.479105	20586.093655
468.850477	20037.721981
469.221790	19644.577516
469.593043	18945.679508
469.964238	18377.327221
470.335373	18014.424638
470.706449	18531.740283
471.077467	18113.067415
471.448425	20006.108905
471.819324	24166.114429
472.190164	25946.430677
472.560945	22255.587697
472.931667	19976.650922
473.302330	19369.496874
473.672934	19034.081182
474.043479	19233.683148
474.413965	19039.875988
474.784393	18629.309296
475.154761	19428.995092
475.525070	19318.606426
475.895321	19054.371826
476.265513	19654.455657
476.635645	20255.046123
477.005719	19999.439458
477.375734	20188.873417
477.745691	20665.890079
478.115588	21229.251624
478.485427	21788.275257
478.855207	22891.965315
479.224928	24699.534041
479.594591	26931.209999
479.964194	26805.849106
480.333739	27041.787708
480.703226	26615.230476
481.072653	26342.365421
481.442022	26993.279206
481.811333	27928.130939
482.180584	27775.111756
482.549777	26827.452970
482.918912	26518.871341
483.287988	26660.028689
483.657005	26273.808249
484.025964	26068.040952
484.394864	25923.947131
484.763706	25576.621713
485.132489	25042.685383
485.501213	25222.455450
485.869879	25132.702747
486.238487	24996.815924
486.607036	25115.391425
486.975527	24869.572160
487.343959	25158.384905
487.712333	25064.289248
488.080648	24730.874894
488.448905	25242.607463
488.817104	25006.084086
489.185244	25726.772481
489.553326	25662.873335
489.921350	26720.194861
490.289315	29092.130842
490.657222	30780.642637
491.025070	31308.156538
491.392861	31032.501204
491.760593	30165.523566
492.128267	29238.662061
492.495883	28176.039762
492.863440	27322.801788
493.230939	26452.270137
493.598380	26280.114733
493.965763	25897.647432
494.333088	25400.801391
494.700354	25388.541305
495.067563	25212.128646
495.434713	24968.048580
495.801805	25163.690720
496.168839	24910.135805
496.535815	24797.370234
496.902733	25022.553535
497.269593	24727.885490
497.636395	24888.302567
498.003139	24813.544776
498.369825	24539.984042
498.736453	24770.707572
499.103023	24629.683813
499.469535	24628.647856
499.835989	24856.379461
500.202385	24867.497725
500.568723	24430.472537
500.935003	24583.590023
501.301226	24296.486229
501.667390	25138.119467
502.033497	25332.902090
502.399546	25066.956018
502.765537	24601.077786
503.131470	24971.453879
503.497345	25137.985876
503.863163	24377.729465
504.228923	24904.628344
504.594625	25160.666027
504.960269	24722.085643
505.325856	25208.796444
505.691385	24603.381593
506.056856	25193.723394
506.422270	25205.398706
506.787625	24707.461255
507.152924	25153.739482
507.518164	25192.208527
507.883347	25008.768500
508.248472	24682.983933
508.613540	25452.107734
508.978550	25251.459729
509.343503	25269.948160
509.708398	25457.106038
510.073236	25642.887681
510.438016	25842.255233
510.802738	25506.965570
511.167403	25755.912871
511.532010	25523.064495
511.896561	26258.785611
512.261053	26219.792286
512.625488	26055.566617
512.989866	25936.136641
513.354186	25769.380313
513.718449	25918.885813
514.082655	26283.010876
514.446803	25993.898182
514.810894	26489.534346
515.174927	25982.215308
515.538904	26019.166966
515.902822	26523.297474
516.266684	26272.348835
516.630488	26174.989031
516.994235	26109.431346
517.357925	26464.996529
517.721558	26601.536181
518.085133	26735.373775
518.448651	26612.593952
518.812112	26402.264411
519.175516	26626.696580
519.538863	26756.811282
519.902152	26578.558602
520.265385	26803.736862
520.628560	26618.421526
520.991678	26596.280778
521.354739	26634.059185
521.717743	26759.457887
522.080690	26525.823092
522.443580	26849.407195
522.806413	26809.299775
523.169189	26941.105784
523.531908	26985.505746
523.894569	26608.855937
524.257174	26717.344088
524.619722	26830.926325
524.982213	26560.294502
525.344647	26562.005973
525.707025	26758.061488
526.069345	26695.538577
526.431608	26668.412128
526.793815	26829.655955
527.155964	26341.440369
527.518057	26519.493923
527.880093	26423.560765
528.242072	26639.559084
528.603995	26362.053647
528.965860	26148.674208
529.327669	26187.556627
529.689421	26178.626223
530.051117	26036.921909
530.412755	26189.101741
530.774337	25978.315975
531.135862	25884.230401
531.497331	26058.518212
531.858743	25662.807800
532.220098	26113.514680
532.581396	25816.265564
532.942638	25693.984816
533.303824	25836.326836
533.664953	25808.509749
534.026025	25471.448121
534.387040	25715.679422
534.747999	25754.781132
535.108902	25922.507882
535.469748	25436.202894
535.830537	25579.162455
536.191270	25734.989562
536.551947	25540.401023
536.912567	25154.664534
537.273131	25622.347499
537.633638	25275.644664
537.994089	25502.269735
538.354483	24975.930424
538.714821	25487.136192
539.075103	25552.645986
539.435328	25309.322093
539.795497	24927.908393
540.155609	25241.720219
540.515665	25563.907923
540.875665	24775.534476
541.235609	25131.961697
541.595496	25049.838781
541.955328	25428.215185
542.315102	25332.949981
542.674821	24841.066956
543.034483	24733.007303
543.394090	24893.736931
543.753640	24718.113213
544.113134	25346.833318
544.472571	24923.315901
544.831953	25230.770833
545.191278	24883.939449
545.550548	24766.775472
545.909761	24963.670338
546.268918	25207.231165
546.628019	25190.983527
546.987064	24868.072417
547.346053	24603.895791
547.704986	24705.921183
548.063863	24855.265366
548.422684	24886.031527
548.781449	24371.009607
549.140158	24793.334791
549.498811	24361.096178
549.857408	24138.887157
550.215949	24514.926987
550.574434	24228.070210
550.932864	24400.805346
551.291237	24612.705207
551.649555	24432.637712
552.007817	24506.929197
552.366022	24341.929711
552.724173	24365.754204
553.082267	24338.957950
553.440305	24829.923485
553.798288	24053.512696
554.156215	24535.424319
554.514086	24692.191600
554.871902	24074.965326
555.229661	24349.251987
555.587365	24194.697771
555.945014	24117.432006
556.302606	24311.541635
556.660143	24303.984946
557.017625	24524.028790
557.375050	24052.020515
557.732421	24437.056284
558.089735	24262.942392
558.446994	24309.492406
558.804197	24363.972156
559.161345	24231.213369
559.518437	24055.743407
559.875474	24199.345715
560.232455	24395.101281
560.589381	24188.915568
560.946251	24208.487848
561.303065	24499.332178
561.659825	24587.917854
562.016528	24189.802811
562.373177	23922.616616
562.729770	24294.956239
563.086307	24133.846003
563.442789	24308.854700
563.799216	24163.727443
564.155587	24153.209075
564.511904	24132.043791
564.868164	24090.708850
565.224370	24057.023860
565.580520	23995.483974
565.936615	24112.045533
566.292654	23820.077026
566.648638	24043.669843
567.004567	23867.468913
567.360441	23818.138702
567.716260	23542.755591
568.072023	23844.440923
568.427732	23636.175734
568.783385	23387.926633
569.138982	23650.522858
569.494525	23676.600747
569.850013	23428.487757
570.205445	23549.419997
570.560823	23365.813612
570.916145	23147.027535
571.271412	23333.000742
571.626625	23076.867276
571.981782	23170.655423
572.336884	22984.835972
572.691931	23125.035501
573.046923	22867.949258
573.401860	22740.811358
573.756743	22781.632101
574.111570	22664.596674
574.466342	22590.128749
574.821059	22662.275222
575.175722	22372.355944
575.530330	22325.379952
575.884882	22321.488181
576.239380	22249.336667
576.593823	22141.387919
576.948211	22111.236778
577.302544	21974.873566
577.656823	21843.259122
578.011047	21948.747786
578.365216	21814.877425
578.719330	21683.275584
579.073389	21574.074109
579.427394	21730.254096
579.781344	21466.155608
580.135239	21367.825382
580.489080	21308.085188
580.842866	21092.434709
581.196597	21309.776495
581.550273	21268.829723
581.903895	21136.174280
582.257463	21456.075821
582.610975	20987.112402
582.964434	21328.380873
583.317837	20988.145839
583.671186	21076.857543
584.024481	21064.345400
584.377721	20828.081642
584.730906	20918.630848
585.084037	20877.805063
585.437113	20833.021973
585.790135	21025.964575
586.143103	20477.867643
586.496016	20515.341061
586.848874	20740.017726
587.201679	20644.092130
587.554428	20361.399346
587.907124	20680.103612
588.259765	20442.375400
588.612352	20511.295535
588.964884	20072.069882
589.317362	20255.119220
589.669786	20311.915379
590.022155	20297.485077
590.374470	20563.050541
590.726731	20304.368772
591.078937	20115.091089
591.431090	20185.810916
591.783188	19960.625094
592.135232	19904.852289
592.487222	20010.199801
592.839157	20011.845738
593.191038	19894.001205
593.542866	19784.898033
593.894639	19489.587241
594.246358	19701.658501
594.598022	19581.326158
594.949633	19348.253451
595.301190	19337.543520
595.652692	19503.594087
596.004141	19719.930163
596.355535	19044.312204
596.706876	19087.658565
597.058162	18968.891501
597.409395	19218.529439
597.760573	19245.366022
598.111698	19027.136992
598.462768	18974.615731
598.813785	18955.832392
599.164748	18745.454960
599.515657	18805.043919
599.866511	18607.148383
600.217312	18954.055385
600.568060	18457.088357
600.918753	18764.714688
601.269392	18676.917952
601.619978	18472.552096
601.970510	18652.478439
602.320988	18608.950596
602.671412	18803.750863
603.021783	18737.048836
603.372100	18437.901725
603.722363	18609.336244
604.072572	18542.435091
604.422728	18690.713070
604.772830	18436.152445
605.122878	18401.129028
605.472872	18380.787973
605.822813	18369.062249
606.172701	18361.739973
606.522534	18520.473305
606.872314	18555.884890
607.222041	18398.056445
607.571714	18610.415051
607.921333	18431.065921
608.270899	18508.581223
608.620411	18655.253594
608.969870	18468.514132
609.319276	18452.153067
609.668627	18483.693046
610.017926	18610.641903
610.367171	18730.018947
610.716362	18782.431823
611.065500	18597.731508
611.414585	18749.838243
611.763616	18734.777796
612.112594	18664.990583
612.461518	18644.047109
612.810389	18830.859667
613.159207	18691.660807
613.507971	18603.690152
613.856682	18842.146811
614.205340	18765.831303
614.553945	18922.694367
614.902496	18665.270367
615.250994	18866.046921
615.599439	18825.049738
615.947830	18810.009455
616.296169	18892.089522
616.644454	18851.820785
616.992686	18825.823555
617.340864	19042.777172
617.688990	18779.581051
618.037063	18959.525037
618.385082	18826.546960
618.733048	19091.293237
619.080961	18987.085025
619.428821	19004.348457
619.776628	18878.299446
620.124382	18816.673861
620.472083	18873.028919
620.819731	18875.312562
621.167326	18574.895081
621.514868	18608.864896
621.862357	18409.008352
622.209793	18389.609992
622.557176	18226.218634
622.904506	18050.564669
623.251783	18007.493051
623.599007	17735.613542
623.946179	17673.609870
624.293297	17614.978730
624.640363	17328.391655
624.987376	17360.642436
625.334336	17168.516502
625.681243	17012.921288
626.028097	17029.794030
626.374899	16952.893749
626.721647	16817.400136
627.068343	16653.542472
627.414987	16584.423211
627.761577	16547.416101
628.108115	16572.720172
628.454600	16306.819472
628.801032	16404.932928
629.147412	16344.759196
629.493739	16354.952409
629.840014	16167.270251
630.186236	16262.341371
630.532405	16025.104671
630.878521	16209.600820
631.224585	16136.753626
631.570597	15950.006602
631.916556	15976.122300
632.262462	15945.575428
632.608316	15864.745567
632.954117	15813.466951
633.299866	15799.555887
633.645562	15711.726384
633.991206	15488.614997
634.336797	15364.867273
634.682336	15331.918291
635.027823	15192.033834
635.373257	15048.877667
635.718639	14976.958046
636.063968	14909.260391
