Dividing Wavelength (nm)	Counts (n)	Blue Motor Position (mm): 27.100000	Red Motor Position (mm): 0.000000	
326.493990	2205.711495
326.888308	2205.711495
327.282561	2205.711495
327.676750	2165.956956
328.070874	2161.530823
328.464933	2161.024187
328.858929	2165.538540
329.252859	2169.679848
329.646726	2180.092351
330.040528	2193.292613
330.434265	2205.663604
330.827938	2221.102138
331.221547	2240.026629
331.615091	2258.404156
332.008571	2275.075251
332.401986	2291.713580
332.795338	2310.343164
333.188625	2329.766729
333.581847	2350.359843
333.975006	2370.867257
334.368100	2389.161604
334.761129	2406.127607
335.154095	2422.385328
335.546996	2448.551437
335.939833	2485.130050
336.332606	2499.126813
336.725315	2512.687517
337.117960	2525.481966
337.510540	2538.951929
337.903056	2552.000956
338.295508	2556.628735
338.687896	2568.440158
339.080220	2574.653380
339.472480	2581.060687
339.864676	2586.447160
340.256807	2591.233735
340.648875	2596.862184
341.040879	2599.365117
341.432818	2602.399891
341.824694	2602.263780
342.216506	2604.469285
342.608253	2605.686723
342.999937	2606.528596
343.391557	2605.578339
343.783113	2604.660849
344.174605	2601.250508
344.566033	2603.748400
344.957397	2604.416353
345.348697	2602.352000
345.739934	2600.764037
346.131106	2599.652462
346.522215	2596.801690
346.913260	2594.497882
347.304241	2591.730289
347.695159	2591.206009
348.086012	2590.585947
348.476802	2589.423961
348.867528	2585.532190
349.258191	2578.099009
349.648789	2581.350553
350.039324	2574.043401
350.429796	2579.495409
350.820203	2577.262178
351.210548	2579.780234
351.600828	2575.822928
351.991045	2574.461817
352.381198	2574.066086
352.771288	2573.942578
353.161314	2569.778585
353.551276	2572.573904
353.941175	2571.989131
354.331010	2571.427042
354.720782	2572.147927
355.110490	2571.578277
355.500135	2572.057186
355.889717	2568.626681
356.279235	2571.109449
356.668689	2572.878894
357.058080	2572.175653
357.447408	2573.163719
357.836672	2572.349573
358.225873	2572.573904
358.615010	2573.433421
359.004084	2570.837227
359.393095	2574.532393
359.782043	2576.372414
360.170927	2574.262691
360.559748	2574.771847
360.948505	2575.901066
361.337199	2576.745459
361.725830	2577.814184
362.114398	2578.504822
362.502903	2575.906107
362.891344	2578.756880
363.279722	2581.632858
363.668037	2578.724112
364.056289	2579.961715
364.444478	2580.700244
364.832603	2579.210583
365.220665	2582.205029
365.608665	2579.376942
365.996601	2579.475244
366.384474	2581.600090
366.772284	2583.475400
367.160031	2582.777200
367.547715	2584.982705
367.935336	2584.748291
368.322893	2578.847620
368.710388	2579.807960
369.097820	2579.586149
369.485189	2578.719071
369.872495	2587.168045
370.259738	2586.174937
370.646918	2587.470514
371.034035	2588.861873
371.421090	2585.653178
371.808081	2583.659402
372.195010	2586.132088
372.581875	2584.710482
372.968678	2588.072932
373.355418	2585.781727
373.742096	2592.131061
374.128710	2588.080494
374.515262	2588.861872
374.901751	2588.536718
375.288177	2591.531163
375.674540	2590.432192
376.060841	2588.471183
376.447079	2589.139136
376.833254	2590.278437
377.219367	2588.347675
377.605417	2593.547625
377.991404	2590.601071
378.377329	2588.425813
378.763191	2591.379929
379.148991	2593.119127
379.534727	2592.085690
379.920402	2592.410845
380.306013	2591.440423
380.691563	2596.257245
381.077049	2594.944025
381.462474	2594.845722
381.847835	2591.387491
382.233134	2595.846391
382.618371	2594.356730
383.003545	2594.233222
383.388657	2595.387646
383.773706	2594.195413
384.158693	2596.867225
384.543618	2598.603902
384.928480	2596.463932
385.313280	2597.421752
385.698017	2597.280599
386.082692	2597.840168
386.467305	2597.444437
386.851856	2600.436362
387.236344	2598.704725
387.620770	2595.864035
388.005133	2594.959148
388.389435	2595.778336
388.773674	2596.194231
389.157851	2599.544078
389.541965	2601.197576
389.926018	2599.841506
390.310008	2597.414190
390.693936	2600.595158
391.077802	2603.347628
391.461606	2602.341918
391.845348	2602.167998
392.229027	2601.830241
392.612645	2599.806217
392.996200	2600.191866
393.379694	2605.127155
393.763125	2604.653287
394.146494	2601.928543
394.529801	2605.611106
394.913047	2602.115066
395.296230	2602.409973
395.679351	2602.740169
396.062410	2606.647063
396.445408	2604.257556
396.828343	2604.978441
397.211217	2607.171343
397.594028	2604.423914
397.976778	2606.261415
398.359466	2606.732763
398.742092	2606.102619
399.124656	2604.781836
399.507158	2606.274018
399.889598	2607.630088
400.271977	2607.451127
400.654294	2607.158740
401.036549	2612.073865
401.418742	2610.122939
401.800874	2609.230655
402.182944	2609.868361
402.564952	2607.993051
402.946898	2612.366252
403.328783	2609.651591
403.710606	2607.887187
404.092367	2610.342229
404.474067	2609.971704
404.855705	2609.838114
405.237282	2611.171499
405.618797	2612.824997
406.000250	2611.403392
406.381642	2613.755090
406.762972	2610.561519
407.144240	2611.741149
407.525447	2610.362394
407.906593	2605.253184
408.287677	2615.481685
408.668700	2615.721140
409.049661	2616.331120
409.430560	2616.391614
409.811399	2615.073352
410.192176	2615.824484
410.572891	2617.712396
410.953545	2617.435132
411.334138	2618.632407
411.714669	2617.881275
412.095139	2613.414812
412.475547	2614.843979
412.855894	2617.919083
413.236180	2616.419340
413.616405	2618.277005
413.996568	2618.702983
414.376670	2617.379680
414.756711	2621.523508
415.136691	2619.474279
415.516609	2620.840432
415.896466	2620.467387
416.276262	2616.762138
416.655997	2620.971502
417.035670	2622.514095
417.415283	2621.271451
417.794834	2622.259517
418.174324	2620.923611
418.553753	2622.496451
418.933121	2624.429733
419.312428	2620.036368
419.691674	2621.566358
420.070859	2625.143057
420.449983	2626.932666
420.829045	2624.119702
421.208047	2626.801596
421.586988	2625.110289
421.965867	2629.188583
422.344686	2631.333594
422.723444	2630.264869
423.102141	2626.052985
423.480777	2628.659262
423.859352	2626.831843
424.237866	2627.502317
424.616319	2631.215127
424.994712	2632.540950
425.373044	2627.640948
425.751314	2629.770836
426.129524	2626.736061
426.507673	2630.174128
426.885762	2628.795373
427.263789	2634.060858
427.641756	2634.723770
428.019662	2637.584624
428.397508	2636.137813
428.775292	2637.950108
429.153016	2637.912299
429.530679	2636.488173
429.908282	2636.238636
430.285824	2637.312402
430.663305	2639.230561
431.040726	2641.204173
431.418086	2642.663587
431.795385	2641.728453
432.172624	2643.636530
432.549802	2644.944709
432.926920	2643.470172
433.303977	2646.900677
433.680974	2648.130718
434.057910	2648.226500
434.434786	2648.367652
434.811601	2650.026192
435.188355	2651.447797
435.565050	2652.922335
435.941683	2657.446771
436.318257	2660.733603
436.694770	2663.831392
437.071222	2665.686537
437.447614	2669.452278
437.823946	2673.517969
438.200218	2678.554082
438.576429	2680.537776
438.952580	2688.714527
439.328670	2694.955476
439.704700	2701.864377
440.080670	2708.422918
440.456580	2722.780124
440.832429	2729.489900
441.208218	2740.479616
441.583947	2759.424272
441.959616	2775.210645
442.335224	2785.461831
442.710773	2808.487302
443.086261	2831.888338
443.461689	2837.463854
443.837057	2877.604041
444.212365	2918.071904
444.587612	2929.273348
444.962800	2971.094760
445.337927	2999.937722
445.712995	3018.378263
446.088002	3110.545678
446.462949	3143.706388
446.837837	3188.882688
447.212664	3241.419073
447.587431	3334.675378
447.962139	3452.088893
448.336786	3731.434351
448.711374	3893.794792
449.085901	3745.627719
449.460369	3766.135133
449.834776	3787.484420
450.209124	3978.012309
450.583412	4133.489055
450.957640	4384.047004
451.331808	4358.430381
451.705917	4287.776089
452.079965	4263.714662
452.453954	4534.835477
452.827883	4565.067277
453.201752	4726.653902
453.575562	4736.388370
453.949311	4930.220735
454.323001	5029.970046
454.696632	5199.430953
455.070202	5398.639709
455.443713	5575.314508
455.817164	5846.871383
456.190556	5974.828471
456.563888	6222.069340
456.937160	6418.628970
457.310373	6337.675601
457.683526	6481.655996
458.056619	6470.111754
458.429653	6642.257075
458.802628	6599.011537
459.175542	6862.288317
459.548398	7359.643514
459.921194	7673.777975
460.293930	7835.873757
460.666607	8386.186275
461.039224	9011.831276
461.411782	9527.508547
461.784280	9672.277883
462.156719	9892.969516
462.529099	9891.394155
462.901419	9539.937512
463.273680	9599.067726
463.645882	9680.913379
464.018024	9683.859933
464.390106	9976.236774
464.762130	10565.371218
465.134094	11122.746393
465.505999	12393.061710
465.877845	14519.553993
466.249631	16540.819751
466.621358	16686.567070
466.993026	16064.879375
467.364634	15954.752849
467.736184	15257.213432
468.107674	14888.329520
468.479105	15158.409338
468.850477	14972.526872
469.221790	14859.869686
469.593043	14540.890677
469.964238	14336.857536
470.335373	14234.862391
470.706449	14679.189691
471.077467	14462.137771
471.448425	15963.274919
471.819324	19273.881309
472.190164	21194.006397
472.560945	18629.180746
472.931667	16773.332890
473.302330	16363.529932
473.672934	16034.387956
474.043479	16497.415416
474.413965	16457.388655
474.784393	16255.659322
475.154761	16936.739371
475.525070	17071.925473
475.895321	16848.766195
476.265513	17450.760623
476.635645	18082.197910
477.005719	17998.081217
477.375734	18268.564326
477.745691	18815.237132
478.115588	19335.668211
478.485427	19907.163658
478.855207	20953.077052
479.224928	22604.435544
479.594591	24749.209571
479.964194	24959.834020
480.333739	25285.447188
480.703226	24965.490194
481.072653	24723.108997
481.442022	25302.652646
481.811333	26219.630969
482.180584	26244.166265
482.549777	25394.946091
482.918912	25104.789878
483.287988	25258.477015
483.657005	25020.577403
484.025964	24777.624035
484.394864	24777.397183
484.763706	24534.937847
485.132489	24013.155739
485.501213	24195.635426
485.869879	24160.601927
486.238487	23966.298214
486.607036	24148.702284
486.975527	23847.523588
487.343959	24202.269584
487.712333	24205.994997
488.080648	23896.982349
488.448905	24362.248081
488.817104	24127.587411
489.185244	24784.285919
489.553326	24798.212107
489.921350	25738.561219
490.289315	27977.849319
490.657222	29803.483020
491.025070	30301.473403
491.392861	30120.070002
491.760593	29301.089189
492.128267	28426.542258
492.495883	27408.670282
492.863440	26545.551647
493.230939	25675.677866
493.598380	25520.107858
493.965763	25127.152437
494.333088	24689.575242
494.700354	24617.542194
495.067563	24514.175855
495.434713	24275.681387
495.801805	24402.219390
496.168839	24247.965123
496.535815	24058.188366
496.902733	24275.890595
497.269593	23937.959368
497.636395	24139.277847
498.003139	24125.921309
498.369825	23873.500654
498.736453	24064.890580
499.103023	23947.524957
499.469535	23971.949347
499.835989	24177.245297
500.202385	24206.516757
500.568723	23697.728222
500.935003	23985.167253
501.301226	23558.841913
501.667390	24379.660227
502.033497	24628.884790
502.399546	24362.966446
502.765537	23943.139153
503.131470	24346.502037
503.497345	24459.965807
503.863163	23675.501775
504.228923	24301.373628
504.594625	24489.660724
504.960269	24000.704089
505.325856	24503.914587
505.691385	23906.197578
506.056856	24517.913871
506.422270	24486.283151
506.787625	24088.130300
507.152924	24481.068077
507.518164	24502.185471
507.883347	24326.639891
508.248472	23994.558923
508.613540	24780.273161
508.978550	24568.728702
509.343503	24547.981833
509.708398	24834.856254
510.073236	24993.372816
510.438016	25193.599885
510.802738	24871.240782
511.167403	25128.243846
511.532010	24809.622759
511.896561	25594.767347
512.261053	25571.595683
512.625488	25410.145169
512.989866	25301.331864
513.354186	25167.872357
513.718449	25246.854635
514.082655	25638.665714
514.446803	25379.802464
514.810894	25827.411556
515.174927	25313.997763
515.538904	25340.461300
515.902822	25835.739542
516.266684	25582.905512
516.630488	25493.515772
516.994235	25479.692928
517.357925	25760.064261
517.721558	25959.061288
518.085133	26042.033639
518.448651	25963.094211
518.812112	25698.468922
519.175516	25880.290739
519.538863	26053.638376
519.902152	25815.723640
520.265385	26126.583872
520.628560	25911.878609
520.991678	25920.468735
521.354739	25989.842574
521.717743	26043.404833
522.080690	25838.514697
522.443580	26182.906163
522.806413	26190.414962
523.169189	26273.089885
523.531908	26320.801885
523.894569	25917.403713
524.257174	25997.066547
524.619722	26209.387344
524.982213	25865.469747
525.344647	25951.106348
525.707025	26070.705202
526.069345	26078.150986
526.431608	26014.992890
526.793815	26211.918003
527.155964	25659.616750
527.518057	25828.074467
527.880093	25751.164104
528.242072	25992.085887
528.603995	25699.351124
528.965860	25497.561298
529.327669	25538.984459
529.689421	25546.831015
530.051117	25379.623503
530.412755	25545.283381
530.774337	25344.925242
531.135862	25225.452416
531.497331	25413.132053
531.858743	24969.543282
532.220098	25444.241013
532.581396	25126.875173
532.942638	25074.401803
533.303824	25152.811910
533.664953	25177.911815
534.026025	24845.432595
534.387040	25072.894498
534.747999	25148.451312
535.108902	25300.590814
535.469748	24799.389216
535.830537	24997.909855
536.191270	25094.274031
536.551947	24998.192159
536.912567	24653.175590
537.273131	24965.943898
537.633638	24692.272259
537.994089	24887.178390
538.354483	24436.884884
538.714821	24941.756442
539.075103	24987.767053
539.435328	24770.740339
539.795497	24315.665299
540.155609	24730.753907
540.515665	25021.757033
540.875665	24265.677218
541.235609	24546.260279
541.595496	24516.865311
541.955328	24875.608942
542.315102	24784.948831
542.674821	24350.265258
543.034483	24224.990065
543.394090	24387.098449
543.753640	24177.376367
544.113134	24815.173069
544.472571	24408.147787
544.831953	24703.458579
545.191278	24308.330420
545.550548	24250.841102
545.909761	24451.010198
546.268918	24681.489231
546.628019	24647.973119
546.987064	24348.296688
547.346053	24097.930303
547.704986	24231.031888
548.063863	24387.111052
548.422684	24387.925198
548.781449	23933.376959
549.140158	24331.202135
549.498811	23905.368308
549.857408	23641.839470
550.215949	24095.802936
550.574434	23759.835238
550.932864	23981.537622
551.291237	24131.632937
551.649555	23994.886597
552.007817	24057.313726
552.366022	23915.856429
552.724173	23960.062307
553.082267	23893.556885
553.440305	24377.631162
553.798288	23655.490915
554.156215	24171.488299
554.514086	24255.254632
554.871902	23637.163800
555.229661	23904.349995
555.587365	23770.393934
555.945014	23611.486683
556.302606	23884.752509
556.660143	23816.432272
557.017625	24080.621501
557.375050	23613.377116
557.732421	24006.188864
558.089735	23805.767711
558.446994	23877.727662
558.804197	23898.204828
559.161345	23855.786039
559.518437	23596.690896
559.875474	23799.592297
560.232455	23970.615962
560.589381	23803.441218
560.946251	23768.122895
561.303065	24102.805098
561.659825	24192.134345
562.016528	23783.319453
562.373177	23528.443756
562.729770	23879.620615
563.086307	23741.588781
563.442789	23928.968470
563.799216	23751.671089
564.155587	23761.461010
564.511904	23753.415328
564.868164	23677.079656
565.224370	23675.254758
565.580520	23561.927099
565.936615	23704.780797
566.292654	23370.958109
566.648638	23679.854811
567.004567	23505.060363
567.360441	23450.200007
567.716260	23186.098998
568.072023	23505.672864
568.427732	23264.120936
568.783385	23053.345252
569.138982	23285.896200
569.494525	23331.493437
569.850013	23063.704824
570.205445	23180.427700
570.560823	22970.675371
570.916145	22748.171443
571.271412	22917.155961
571.626625	22673.602695
571.981782	22785.717957
572.336884	22596.125202
572.691931	22728.987332
573.046923	22461.160910
573.401860	22337.120799
573.756743	22346.472140
574.111570	22252.099219
574.466342	22197.077545
574.821059	22269.846601
575.175722	21975.564204
575.530330	21961.448973
575.884882	21998.342658
576.239380	21897.607801
576.593823	21791.627624
576.948211	21761.781472
577.302544	21604.210127
577.656823	21483.446766
578.011047	21584.030388
578.365216	21464.373560
578.719330	21334.699960
579.073389	21235.898386
579.427394	21382.969008
579.781344	21163.288126
580.135239	21047.356711
580.489080	21016.593070
580.842866	20784.110178
581.196597	20970.816872
581.550273	20946.329468
581.903895	20841.778457
582.257463	21149.813122
582.610975	20679.110505
582.964434	20989.769090
583.317837	20694.959893
583.671186	20793.587547
584.024481	20748.628017
584.377721	20528.460663
584.730906	20583.832697
585.084037	20619.188830
585.437113	20514.698313
585.790135	20717.146011
586.143103	20182.657674
586.496016	20189.102789
586.848874	20442.272056
587.201679	20372.562981
587.554428	20043.751201
587.907124	20381.377438
588.259765	20157.472070
588.612352	20226.503110
588.964884	19805.549120
589.317362	19973.908535
589.669786	20021.716317
590.022155	20079.974412
590.374470	20255.212481
590.726731	20062.035466
591.078937	19814.537497
591.431090	19917.414844
591.783188	19652.643362
592.135232	19637.144334
592.487222	19731.658407
592.839157	19765.746689
593.191038	19645.673967
593.542866	19531.854795
593.894639	19243.684797
594.246358	19470.345156
594.598022	19374.913593
594.949633	19131.874525
595.301190	19078.619776
595.652692	19255.294574
596.004141	19501.471761
596.355535	18822.292227
596.706876	18839.817798
597.058162	18729.192197
597.409395	18946.430640
597.760573	19033.511532
598.111698	18811.995670
598.462768	18749.301360
598.813785	18704.399803
599.164748	18527.001599
599.515657	18557.142658
599.866511	18360.119242
600.217312	18714.345999
600.568060	18245.674967
600.918753	18554.082677
601.269392	18453.725907
601.619978	18229.462617
601.970510	18443.694011
602.320988	18394.993944
602.671412	18591.152802
603.021783	18498.375407
603.372100	18238.524091
603.722363	18374.511736
604.072572	18314.033013
604.422728	18450.335731
604.772830	18210.860759
605.122878	18170.622269
605.472872	18160.013161
605.822813	18141.708731
606.172701	18110.864431
606.522534	18304.878278
606.872314	18326.598089
607.222041	18156.386050
607.571714	18381.080360
607.921333	18196.422894
608.270899	18287.385474
608.620411	18465.156723
608.969870	18236.976456
609.319276	18230.954798
609.668627	18270.147249
610.017926	18399.972084
610.367171	18505.619545
610.716362	18552.671154
611.065500	18376.858393
611.414585	18508.195574
611.763616	18485.081884
612.112594	18444.924053
612.461518	18397.025529
612.810389	18596.761086
613.159207	18457.305126
613.507971	18365.062093
613.856682	18645.619949
614.205340	18572.717302
614.553945	18718.746927
614.902496	18455.906206
615.250994	18694.645170
615.599439	18638.539648
615.947830	18625.601527
616.296169	18666.712137
616.644454	18639.265574
616.992686	18609.903374
617.340864	18821.825920
617.688990	18583.588551
618.037063	18753.740096
618.385082	18606.382128
618.733048	18890.005005
619.080961	18757.190766
619.428821	18792.188976
619.776628	18680.172017
620.124382	18605.378938
620.472083	18637.042426
620.819731	18662.638884
621.167326	18355.201596
621.514868	18393.239623
621.862357	18157.606010
622.209793	18181.065019
622.557176	18008.428185
622.904506	17834.510898
623.251783	17745.443792
623.599007	17504.307759
623.946179	17453.024101
624.293297	17389.288793
624.640363	17157.219276
624.987376	17165.741346
625.334336	16962.209801
625.681243	16804.784649
626.028097	16813.533571
626.374899	16751.834889
626.721647	16605.472549
627.068343	16442.822241
627.414987	16373.430758
627.761577	16350.198601
628.108115	16392.521608
628.454600	16113.387878
628.801032	16210.258690
629.147412	16138.520551
629.493739	16154.826163
629.840014	15973.042155
630.186236	16072.524285
630.532405	15832.220043
630.878521	16031.685898
631.224585	15922.771769
631.570597	15751.329688
631.916556	15780.795232
632.262462	15755.158445
632.608316	15683.556416
632.954117	15622.235821
633.299866	15612.667711
633.645562	15531.288364
633.991206	15292.040244
634.336797	15163.654658
634.682336	15135.313291
635.027823	15014.970867
635.373257	14896.423093
635.718639	14790.785714
636.063968	14749.105454
636.409245	14498.078677
636.754470	14526.525909
637.099642	14380.082910
