Dividing Wavelength (nm)	Counts (n)	Blue Motor Position (mm): 27.300000	Red Motor Position (mm): 0.000000	
326.493990	2205.519931
326.888308	2205.519931
327.282561	2205.519931
327.676750	2164.152223
328.070874	2160.247849
328.464933	2162.218940
328.858929	2165.016781
329.252859	2169.430311
329.646726	2179.810047
330.040528	2191.591223
330.434265	2204.068079
330.827938	2223.799155
331.221547	2240.737432
331.615091	2258.552870
332.008571	2274.450148
332.401986	2293.339352
332.795338	2312.210911
333.188625	2331.997440
333.581847	2348.466890
333.975006	2368.379447
334.368100	2389.277551
334.761129	2410.682290
335.154095	2424.976482
335.546996	2450.492282
335.939833	2485.704741
336.332606	2501.133193
336.725315	2514.361180
337.117960	2526.752337
337.510540	2538.389840
337.903056	2546.985007
338.295508	2557.642007
338.687896	2566.196845
339.080220	2574.219841
339.472480	2582.174782
339.864676	2586.752150
340.256807	2592.620053
340.648875	2595.707759
341.040879	2595.748089
341.432818	2602.157916
341.824694	2603.410642
342.216506	2605.805191
342.608253	2606.054728
342.999937	2605.598503
343.391557	2605.704367
343.783113	2606.115222
344.174605	2605.540530
344.566033	2602.777978
344.957397	2604.920468
345.348697	2602.150354
345.739934	2600.542226
346.131106	2597.875456
346.522215	2596.791607
346.913260	2596.282451
347.304241	2594.757502
347.695159	2590.676688
348.086012	2590.157449
348.476802	2587.238621
348.867528	2580.380131
349.258191	2579.792837
349.648789	2577.549523
350.039324	2576.690007
350.429796	2580.647312
350.820203	2576.619430
351.210548	2579.155131
351.600828	2577.113463
351.991045	2574.718915
352.381198	2574.976014
352.771288	2572.367217
353.161314	2573.677917
353.551276	2574.456775
353.941175	2571.550550
354.331010	2570.895200
354.720782	2571.510221
355.110490	2570.922927
355.500135	2570.333112
355.889717	2571.106929
356.279235	2571.230437
356.668689	2571.573235
357.058080	2570.350756
357.447408	2570.698595
357.836672	2571.482495
358.225873	2569.844120
358.615010	2572.480643
359.004084	2573.864440
359.393095	2574.272773
359.782043	2574.386199
360.170927	2575.938875
360.559748	2572.294120
360.948505	2577.088258
361.337199	2577.917528
361.725830	2576.480799
362.114398	2577.219328
362.502903	2578.766962
362.891344	2578.000707
363.279722	2578.668659
363.668037	2576.581622
364.056289	2576.939544
364.444478	2582.371387
364.832603	2581.892477
365.220665	2580.601942
365.608665	2579.876016
365.996601	2582.615883
366.384474	2580.783423
366.772284	2581.975656
367.160031	2583.472879
367.547715	2582.590677
367.935336	2581.446335
368.322893	2580.269226
368.710388	2580.891808
369.097820	2581.839545
369.485189	2579.019020
369.872495	2585.998497
370.259738	2585.393559
370.646918	2588.839187
371.034035	2584.380287
371.421090	2587.389856
371.808081	2588.146029
372.195010	2586.452201
372.581875	2585.086048
372.968678	2589.144177
373.355418	2587.586461
373.742096	2588.443457
374.128710	2589.429002
374.515262	2588.297263
374.901751	2589.247521
375.288177	2589.572675
375.674540	2590.391863
376.060841	2591.180803
376.447079	2590.890937
376.833254	2590.475042
377.219367	2590.114599
377.605417	2589.534867
377.991404	2591.132912
378.377329	2592.635176
378.763191	2593.557707
379.148991	2590.951431
379.534727	2591.652151
379.920402	2592.030238
380.306013	2595.974941
380.691563	2594.389498
381.077049	2594.071905
381.462474	2593.734148
381.847835	2593.562748
382.233134	2595.044848
382.618371	2594.513006
383.003545	2593.033427
383.388657	2595.581731
383.773706	2596.519385
384.158693	2595.052409
384.543618	2596.766402
384.928480	2595.128027
385.313280	2595.309508
385.698017	2594.049220
386.082692	2594.817996
386.467305	2598.384612
386.851856	2601.391660
387.236344	2600.086002
387.620770	2593.003180
388.005133	2593.663572
388.389435	2596.930239
388.773674	2594.457553
389.157851	2600.660693
389.541965	2599.239088
389.926018	2600.184304
390.310008	2599.334870
390.693936	2601.376537
391.077802	2601.958790
391.461606	2600.106166
391.845348	2600.930395
392.229027	2603.720673
392.612645	2601.842844
392.996200	2603.665221
393.379694	2603.292175
393.763125	2603.947525
394.146494	2603.513986
394.529801	2603.692947
394.913047	2602.944336
395.296230	2603.818976
395.679351	2603.357710
396.062410	2604.580190
396.445408	2604.769233
396.828343	2606.110180
397.211217	2605.185129
397.594028	2606.468102
397.976778	2606.337032
398.359466	2608.958432
398.742092	2607.990531
399.124656	2605.601024
399.507158	2606.599172
399.889598	2609.462548
400.271977	2608.260233
400.654294	2606.899121
401.036549	2607.362907
401.418742	2609.449945
401.800874	2611.171499
402.182944	2605.674121
402.564952	2612.164606
402.946898	2610.543875
403.328783	2610.264091
403.710606	2611.935234
404.092367	2610.967332
404.474067	2609.671756
404.855705	2612.983794
405.237282	2613.802981
405.618797	2611.448762
406.000250	2612.300717
406.381642	2614.044957
406.762972	2612.388937
407.144240	2611.841972
407.525447	2610.364914
407.906593	2611.171499
408.287677	2615.688373
408.668700	2613.865996
409.049661	2616.497478
409.430560	2616.124432
409.811399	2613.908845
410.192176	2616.986470
410.572891	2617.281377
410.953545	2615.176696
411.334138	2616.749536
411.714669	2618.791203
412.095139	2619.658281
412.475547	2618.773559
412.855894	2616.401696
413.236180	2620.230452
413.616405	2619.814557
413.996568	2619.280195
414.376670	2618.191306
414.756711	2618.808847
415.136691	2617.248610
415.516609	2619.741460
415.896466	2620.603498
416.276262	2620.384207
416.655997	2623.744137
417.035670	2620.288426
417.415283	2625.228756
417.794834	2623.262706
418.174324	2623.187089
418.553753	2623.648355
418.933121	2623.459311
419.312428	2621.906636
419.691674	2626.310084
420.070859	2625.228756
420.449983	2629.279323
420.829045	2629.397791
421.208047	2628.886113
421.586988	2626.453757
421.965867	2627.683798
422.344686	2630.564818
422.723444	2629.543984
423.102141	2626.357975
423.480777	2629.687657
423.859352	2627.749333
424.237866	2631.300826
424.616319	2631.956176
424.994712	2633.508852
425.373044	2631.893162
425.751314	2630.781587
426.129524	2630.617750
426.507673	2632.293933
426.885762	2631.167236
427.263789	2635.611013
427.641756	2634.290230
428.019662	2637.289717
428.397508	2636.725108
428.775292	2636.329377
429.153016	2638.320633
429.530679	2639.359111
429.908282	2638.975983
430.285824	2639.139820
430.663305	2639.704430
431.040726	2642.774492
431.418086	2642.824904
431.795385	2646.020995
432.172624	2643.772641
432.549802	2644.979997
432.926920	2645.647950
433.303977	2646.477220
433.680974	2651.946872
434.057910	2651.546100
434.434786	2650.978970
434.811601	2656.267141
435.188355	2658.313849
435.565050	2660.995743
435.941683	2661.381391
436.318257	2671.446055
436.694770	2671.993020
437.071222	2676.189781
437.447614	2679.935358
437.823946	2686.635051
438.200218	2694.920188
438.576429	2698.496886
438.952580	2708.075079
439.328670	2717.270143
439.704700	2729.215157
440.080670	2739.978021
440.456580	2760.455188
440.832429	2772.687547
441.208218	2778.275667
441.583947	2803.196611
441.959616	2826.015393
442.335224	2842.419308
442.710773	2872.262939
443.086261	2905.000192
443.461689	2915.936975
443.837057	2966.088894
444.212365	3014.738549
444.587612	3034.416693
444.962800	3091.651434
445.337927	3121.243007
445.712995	3144.243271
446.088002	3264.744492
446.462949	3299.674647
446.837837	3356.576671
447.212664	3422.283070
447.587431	3538.025442
447.962139	3686.225283
448.336786	4025.247920
448.711374	4214.911251
449.085901	4023.846479
449.460369	4046.705592
449.834776	4063.379208
450.209124	4294.672388
450.583412	4471.684943
450.957640	4754.980145
451.331808	4717.491605
451.705917	4625.679590
452.079965	4586.285493
452.453954	4894.574736
452.827883	4921.454169
453.201752	5098.358339
453.575562	5096.823308
453.949311	5309.635618
454.323001	5420.994706
454.696632	5607.003201
455.070202	5820.859029
455.443713	6018.928484
455.817164	6313.067208
456.190556	6444.532939
456.563888	6725.405867
456.937160	6930.180057
457.310373	6823.539488
457.683526	6983.412121
458.056619	6954.130578
458.429653	7140.038250
458.802628	7069.028557
459.175542	7355.653441
459.548398	7910.318996
459.921194	8231.168274
460.293930	8402.406188
460.666607	8994.131785
461.039224	9650.038832
461.411782	10196.719199
461.784280	10338.915026
462.156719	10570.122506
462.529099	10555.356966
462.901419	10148.321602
463.273680	10209.793432
463.645882	10284.465523
464.018024	10270.499007
464.390106	10571.549152
464.762130	11193.887157
465.134094	11776.740323
465.505999	13139.301193
465.877845	15378.150713
466.249631	17522.561777
466.621358	17668.180547
466.993026	16962.058566
467.364634	16832.901684
467.736184	16061.950465
468.107674	15640.560415
468.479105	15903.522123
468.850477	15689.799885
469.221790	15546.618513
469.593043	15195.136664
469.964238	14941.188539
470.335373	14825.562114
470.706449	15267.729279
471.077467	15022.252813
471.448425	16586.537975
471.819324	20014.671305
472.190164	21997.881392
472.560945	19295.351583
472.931667	17323.433680
473.302330	16879.451699
473.672934	16521.363418
474.043479	16986.893811
474.413965	16917.593069
474.784393	16698.416302
475.154761	17371.979991
475.525070	17503.138212
475.895321	17245.411742
476.265513	17868.793265
476.635645	18488.126741
477.005719	18399.341939
477.375734	18647.379312
477.745691	19173.275001
478.115588	19698.923675
478.485427	20252.608725
478.855207	21298.617901
479.224928	22982.239777
479.594591	25145.048533
479.964194	25332.559291
480.333739	25640.546065
480.703226	25287.703104
481.072653	25021.199986
481.442022	25593.010505
481.811333	26514.072162
482.180584	26525.344182
482.549777	25642.509594
482.918912	25329.849671
483.287988	25466.273376
483.657005	25216.844646
484.025964	24950.177690
484.394864	24952.231960
484.763706	24696.781571
485.132489	24137.760459
485.501213	24327.973276
485.869879	24271.456900
486.238487	24081.997736
486.607036	24260.825107
486.975527	23951.966214
487.343959	24305.305728
487.712333	24290.693943
488.080648	23972.249296
488.448905	24439.453352
488.817104	24194.352452
489.185244	24848.197668
489.553326	24851.726476
489.921350	25794.417204
490.289315	28032.197999
490.657222	29855.537975
491.025070	30352.207575
491.392861	30163.320582
491.760593	29342.393883
492.128267	28465.850656
492.495883	27444.107073
492.863440	26579.193787
493.230939	25694.584713
493.598380	25540.111157
493.965763	25139.082327
494.333088	24725.803494
494.700354	24633.477282
495.067563	24540.016810
495.434713	24296.526558
495.801805	24425.217134
496.168839	24261.220838
496.535815	24083.525206
496.902733	24292.085302
497.269593	23965.037926
497.636395	24150.461646
498.003139	24147.235308
498.369825	23892.132759
498.736453	24075.091355
499.103023	23965.925169
499.469535	23989.429548
499.835989	24174.303783
500.202385	24213.259300
500.568723	23710.638617
500.935003	23994.553881
501.301226	23570.880189
501.667390	24400.013885
502.033497	24645.238293
502.399546	24375.750812
502.765537	23974.278361
503.131470	24348.102603
503.497345	24486.288192
503.863163	23684.757333
504.228923	24320.265352
504.594625	24489.156609
504.960269	24003.398586
505.325856	24515.736092
505.691385	23927.962760
506.056856	24533.911973
506.422270	24504.882488
506.787625	24098.222690
507.152924	24496.877136
507.518164	24511.695608
507.883347	24312.590195
508.248472	24024.369786
508.613540	24791.260356
508.978550	24577.134826
509.343503	24546.915629
509.708398	24840.262892
510.073236	24994.522199
510.438016	25198.237747
510.802738	24884.178903
511.167403	25120.689677
511.532010	24826.306457
511.896561	25611.120850
512.261053	25588.775935
512.625488	25422.115389
512.989866	25313.528935
513.354186	25171.867471
513.718449	25250.164152
514.082655	25642.098740
514.446803	25381.392948
514.810894	25833.866753
515.174927	25323.311294
515.538904	25349.479924
515.902822	25842.822363
516.266684	25595.551246
516.630488	25500.437276
516.994235	25493.296482
517.357925	25776.427846
517.721558	25976.866644
518.085133	26058.621556
518.448651	25978.411757
518.812112	25700.505549
519.175516	25891.494703
519.538863	26066.042135
519.902152	25833.758368
520.265385	26133.659131
520.628560	25924.103407
520.991678	25938.674862
521.354739	26017.309300
521.717743	26063.403091
522.080690	25856.035227
522.443580	26181.454311
522.806413	26192.582658
523.169189	26279.691276
523.531908	26336.270666
523.894569	25939.032784
524.257174	26002.732804
524.619722	26204.628495
524.982213	25893.294395
525.344647	25969.277187
525.707025	26083.469403
526.069345	26087.582985
526.431608	26033.420828
526.793815	26227.202782
527.155964	25672.874984
527.518057	25838.408833
527.880093	25778.938341
528.242072	25999.375396
528.603995	25709.778751
528.965860	25508.006568
529.327669	25552.766973
529.689421	25544.542331
530.051117	25367.796957
530.412755	25548.668515
530.774337	25356.570307
531.135862	25231.713529
531.497331	25418.886530
531.858743	24975.408665
532.220098	25462.810104
532.581396	25124.271417
532.942638	25082.276085
533.303824	25157.618650
533.664953	25193.277252
534.026025	24853.657238
534.387040	25094.969710
534.747999	25159.335163
535.108902	25310.955426
535.469748	24807.906246
535.830537	25003.145093
536.191270	25112.119716
536.551947	25006.643654
536.912567	24659.746734
537.273131	24975.123839
537.633638	24701.142169
537.994089	24904.162037
538.354483	24454.838954
538.714821	24950.825478
539.075103	24997.572097
539.435328	24782.536639
539.795497	24335.449307
540.155609	24741.962912
540.515665	25026.899010
540.875665	24284.901658
541.235609	24548.070053
541.595496	24520.210116
541.955328	24876.045002
542.315102	24790.541991
542.674821	24354.782132
543.034483	24224.972421
543.394090	24408.052005
543.753640	24175.765718
544.113134	24820.335211
544.472571	24411.061574
544.831953	24706.604259
545.191278	24322.556556
545.550548	24253.956535
545.909761	24460.918585
546.268918	24688.428379
546.628019	24638.846110
546.987064	24353.700805
547.346053	24113.857828
547.704986	24237.184616
548.063863	24393.415015
548.422684	24390.591969
548.781449	23940.404327
549.140158	24341.070194
549.498811	23922.803139
549.857408	23654.865812
550.215949	24090.602986
550.574434	23771.261013
550.932864	23996.328367
551.291237	24145.218846
551.649555	24007.461756
552.007817	24057.200300
552.366022	23924.232306
552.724173	23988.189425
553.082267	23914.331480
553.440305	24381.704414
553.798288	23653.315657
554.156215	24177.842673
554.514086	24258.538944
554.871902	23636.818481
555.229661	23924.469240
555.587365	23786.853302
555.945014	23620.901038
556.302606	23882.541963
556.660143	23830.434077
557.017625	24089.463685
557.375050	23626.411019
557.732421	24010.831767
558.089735	23820.815555
558.446994	23880.853177
558.804197	23904.153390
559.161345	23871.441343
559.518437	23608.774542
559.875474	23810.251817
560.232455	23985.933508
560.589381	23822.002747
560.946251	23782.885914
561.303065	24116.524599
561.659825	24192.109139
562.016528	23805.820643
562.373177	23549.286406
562.729770	23896.478233
563.086307	23761.423201
563.442789	23931.899901
563.799216	23762.343212
564.155587	23764.543675
564.511904	23754.542026
564.868164	23679.229708
565.224370	23683.290358
565.580520	23577.214398
565.936615	23717.948290
566.292654	23379.863308
566.648638	23698.698644
567.004567	23515.936653
567.360441	23468.196926
567.716260	23193.537220
568.072023	23521.744062
568.427732	23281.573411
568.783385	23067.440319
569.138982	23290.816366
569.494525	23335.148273
569.850013	23084.091250
570.205445	23180.830992
570.560823	22985.108194
570.916145	22751.508687
571.271412	22925.010078
571.626625	22682.102080
571.981782	22796.334627
572.336884	22594.214604
572.691931	22723.837793
573.046923	22462.695942
573.401860	22352.350125
573.756743	22344.609433
574.111570	22260.787648
574.466342	22199.514943
574.821059	22284.130711
575.175722	21990.972491
575.530330	21977.129482
575.884882	21994.690342
576.239380	21904.458729
576.593823	21803.063481
576.948211	21773.083739
577.302544	21631.089559
577.656823	21501.983088
578.011047	21596.300556
578.365216	21463.672840
578.719330	21349.616734
579.073389	21244.422977
579.427394	21388.413454
579.781344	21168.651914
580.135239	21055.881302
580.489080	21025.034482
580.842866	20786.678646
581.196597	20975.726956
581.550273	20945.543047
581.903895	20850.600477
582.257463	21157.710089
582.610975	20689.142401
582.964434	20996.877117
583.317837	20701.457940
583.671186	20801.587858
584.024481	20749.795044
584.377721	20533.688340
584.730906	20598.923391
585.084037	20622.354674
585.437113	20523.956393
585.790135	20719.157431
586.143103	20190.925167
586.496016	20206.227589
586.848874	20450.892429
587.201679	20388.770290
587.554428	20056.137316
587.907124	20385.506143
588.259765	20161.910806
588.612352	20248.258209
588.964884	19806.098605
589.317362	19973.543051
589.669786	20030.434993
590.022155	20078.036088
590.374470	20269.383164
590.726731	20074.598021
591.078937	19823.089814
591.431090	19926.443551
591.783188	19666.655249
592.135232	19642.941661
592.487222	19741.602083
592.839157	19758.868035
593.191038	19645.459718
593.542866	19528.338590
593.894639	19256.358258
594.246358	19468.921030
594.598022	19379.934583
594.949633	19134.546337
595.301190	19093.309698
595.652692	19264.650956
596.004141	19499.367079
596.355535	18830.829421
596.706876	18843.029013
597.058162	18736.824504
597.409395	18964.992168
597.760573	19045.653151
598.111698	18821.621753
598.462768	18748.083921
598.813785	18716.493531
599.164748	18545.326193
599.515657	18569.788392
599.866511	18360.605713
600.217312	18726.850581
600.568060	18253.271986
600.918753	18569.042301
601.269392	18470.538155
601.619978	18251.086646
601.970510	18464.307289
602.320988	18399.059635
602.671412	18601.663608
603.021783	18505.864041
603.372100	18246.287468
603.722363	18375.961068
604.072572	18326.134303
604.422728	18450.824723
604.772830	18225.613696
605.122878	18162.740425
605.472872	18159.531730
605.822813	18153.623498
606.172701	18115.847612
606.522534	18313.808682
606.872314	18337.544955
607.222041	18160.015681
607.571714	18384.561276
607.921333	18210.228094
608.270899	18290.528634
608.620411	18478.878744
608.969870	18241.178258
609.319276	18248.460205
609.668627	18271.747815
610.017926	18413.086645
610.367171	18523.956742
610.716362	18565.422753
611.065500	18385.748468
611.414585	18518.305608
611.763616	18501.158124
612.112594	18454.522409
612.461518	18417.810207
612.810389	18615.050392
613.159207	18467.178226
613.507971	18378.980719
613.856682	18655.339293
614.205340	18571.144463
614.553945	18728.904852
614.902496	18463.662021
615.250994	18699.111632
615.599439	18640.450246
615.947830	18628.633781
616.296169	18680.209826
616.644454	18659.042021
616.992686	18624.033728
617.340864	18828.886056
617.688990	18592.738245
618.037063	18760.374254
618.385082	18612.149208
618.733048	18893.982475
619.080961	18760.906096
619.428821	18806.538621
619.776628	18684.293161
620.124382	18608.128888
620.472083	18644.573909
620.819731	18677.810237
621.167326	18368.974029
621.514868	18415.440864
621.862357	18174.148556
622.209793	18186.438889
622.557176	18014.560749
622.904506	17840.378801
623.251783	17750.792456
623.599007	17523.630502
623.946179	17467.721585
624.293297	17402.688180
624.640363	17158.633319
624.987376	17180.970672
625.334336	16967.634082
625.681243	16815.910475
626.028097	16825.392886
626.374899	16757.042401
626.721647	16619.522245
627.068343	16449.826924
627.414987	16389.640588
627.761577	16358.347626
628.108115	16402.999646
628.454600	16125.799199
628.801032	16225.793006
629.147412	16143.879297
629.493739	16176.684606
629.840014	15974.272197
630.186236	16074.971765
630.532405	15841.246229
630.878521	16046.532096
631.224585	15930.436843
631.570597	15763.778818
631.916556	15789.420647
632.262462	15771.620332
632.608316	15685.751838
632.954117	15630.336955
633.299866	15631.014990
633.645562	15545.527103
633.991206	15299.309588
634.336797	15169.562890
634.682336	15146.630682
635.027823	15020.780796
635.373257	14908.705864
635.718639	14807.910513
636.063968	14753.120733
636.409245	14502.121683
636.754470	14535.854564
637.099642	14380.375297
