Dividing Wavelength (nm)	Counts (n)	Blue Motor Position (mm): 15.200000	Red Motor Position (mm): 0.000000	
326.493990	2172.669252
326.888308	2172.669252
327.282561	2172.669252
327.676750	2132.488735
328.070874	2128.637294
328.464933	2130.207613
328.858929	2135.268932
329.252859	2137.920579
329.646726	2146.137659
330.040528	2159.617705
330.434265	2170.443583
330.827938	2188.100224
331.221547	2208.295086
331.615091	2224.530122
332.008571	2243.457134
332.401986	2260.770977
332.795338	2278.656991
333.188625	2300.742286
333.581847	2316.722744
333.975006	2335.054900
334.368100	2353.008969
334.761129	2370.227030
335.154095	2391.382232
335.546996	2411.501477
335.939833	2438.257401
336.332606	2452.155863
336.725315	2465.300671
337.117960	2478.574029
337.510540	2490.201451
337.903056	2501.317195
338.295508	2511.517970
338.687896	2519.195647
339.080220	2526.230577
339.472480	2530.250897
339.864676	2539.012423
340.256807	2542.778165
340.648875	2546.801005
341.040879	2549.999618
341.432818	2552.774773
341.824694	2555.388611
342.216506	2557.246276
342.608253	2559.552604
342.999937	2558.708211
343.391557	2556.769887
343.783113	2558.236863
344.174605	2556.011193
344.566033	2555.582695
344.957397	2554.284598
345.348697	2553.399876
345.739934	2550.831408
346.131106	2549.472817
346.522215	2548.386448
346.913260	2546.281767
347.304241	2542.538710
347.695159	2543.509132
348.086012	2540.771785
348.476802	2540.277752
348.867528	2531.871628
349.258191	2531.223840
349.648789	2534.719880
350.039324	2525.300484
350.429796	2530.258459
350.820203	2527.793335
351.210548	2529.371216
351.600828	2526.467511
351.991045	2526.190248
352.381198	2524.030113
352.771288	2523.672192
353.161314	2524.753519
353.551276	2524.982892
353.941175	2521.297808
354.331010	2523.347037
354.720782	2524.188910
355.110490	2522.963909
355.500135	2524.380474
355.889717	2523.468025
356.279235	2524.425844
356.668689	2520.370236
357.058080	2523.382325
357.447408	2523.770494
357.836672	2524.937521
358.225873	2522.676564
358.615010	2523.064732
359.004084	2523.583971
359.393095	2524.060360
359.782043	2525.696215
360.170927	2527.372398
360.559748	2526.762419
360.948505	2527.410207
361.337199	2528.736031
361.725830	2528.456247
362.114398	2530.412214
362.502903	2529.862728
362.891344	2527.705115
363.279722	2532.405991
363.668037	2530.586134
364.056289	2530.689478
364.444478	2531.702750
364.832603	2532.484128
365.220665	2535.072761
365.608665	2533.527647
365.996601	2532.947915
366.384474	2531.712832
366.772284	2535.786084
367.160031	2534.722401
367.547715	2536.227185
367.935336	2534.639222
368.322893	2535.019829
368.710388	2531.251566
369.097820	2531.233922
369.485189	2533.058820
369.872495	2536.585107
370.259738	2534.934129
370.646918	2533.691485
371.034035	2537.714326
371.421090	2537.298430
371.808081	2536.055786
372.195010	2537.921013
372.581875	2539.390509
372.968678	2539.418236
373.355418	2539.846734
373.742096	2539.413194
374.128710	2538.901517
374.515262	2540.620551
374.901751	2539.786240
375.288177	2540.741538
375.674540	2540.912938
376.060841	2540.547454
376.447079	2541.086857
376.833254	2542.677342
377.219367	2542.712630
377.605417	2542.342105
377.991404	2540.252547
378.377329	2538.321785
378.763191	2542.737835
379.148991	2539.882022
379.534727	2542.132897
379.920402	2542.773123
380.306013	2541.225489
380.691563	2542.707588
381.077049	2545.167672
381.462474	2542.037115
381.847835	2544.920655
382.233134	2545.588608
382.618371	2543.612476
383.003545	2543.678011
383.388657	2545.828063
383.773706	2543.665408
384.158693	2545.016437
384.543618	2545.601211
384.928480	2543.113401
385.313280	2546.372507
385.698017	2545.386962
386.082692	2545.903680
386.467305	2547.189174
386.851856	2547.289997
387.236344	2548.981304
387.620770	2544.267826
388.005133	2545.389482
388.389435	2543.942671
388.773674	2542.432846
389.157851	2547.612631
389.541965	2549.286294
389.926018	2549.548434
390.310008	2550.400389
390.693936	2550.503733
391.077802	2549.182951
391.461606	2547.978115
391.845348	2549.102292
392.229027	2551.471634
392.612645	2549.929041
392.996200	2550.299566
393.379694	2549.137580
393.763125	2550.435677
394.146494	2553.044474
394.529801	2551.758980
394.913047	2550.596994
395.296230	2552.474824
395.679351	2550.286963
396.062410	2551.466593
396.445408	2548.378887
396.828343	2552.434495
397.211217	2552.779814
397.594028	2551.680842
397.976778	2548.666232
398.359466	2551.728733
398.742092	2552.961295
399.124656	2554.350133
399.507158	2551.728733
399.889598	2555.111347
400.271977	2550.138249
400.654294	2554.277037
401.036549	2554.145967
401.418742	2552.404248
401.800874	2553.581357
402.182944	2553.442726
402.564952	2552.671429
402.946898	2555.103786
403.328783	2556.101934
403.710606	2556.419527
404.092367	2556.278375
404.474067	2557.440361
404.855705	2555.252500
405.237282	2555.728889
405.618797	2554.521532
406.000250	2557.982285
406.381642	2556.921122
406.762972	2548.951057
407.144240	2551.181768
407.525447	2554.692932
407.906593	2552.406768
408.287677	2557.596636
408.668700	2558.554456
409.049661	2558.070505
409.430560	2554.864331
409.811399	2557.410114
410.192176	2558.456153
410.572891	2559.048489
410.953545	2560.361709
411.334138	2556.364074
411.714669	2559.229970
412.095139	2559.698797
412.475547	2558.395659
412.855894	2559.482028
413.236180	2557.727706
413.616405	2560.845660
413.996568	2558.657799
414.376670	2560.354147
414.756711	2557.405073
415.136691	2562.564693
415.516609	2561.647203
415.896466	2560.402038
416.276262	2560.248283
416.655997	2561.906823
417.035670	2560.865825
417.415283	2562.662996
417.794834	2560.064281
418.174324	2560.296174
418.553753	2561.594271
418.933121	2560.896072
419.312428	2560.828016
419.691674	2563.865311
420.070859	2562.468912
420.449983	2561.453119
420.829045	2561.727862
421.208047	2560.729713
421.586988	2564.626525
421.965867	2563.527554
422.344686	2564.034190
422.723444	2563.144426
423.102141	2563.419169
423.480777	2564.888665
423.859352	2564.155177
424.237866	2563.519992
424.616319	2561.740465
424.994712	2564.533264
425.373044	2563.799776
425.751314	2559.464384
426.129524	2558.730896
426.507673	2562.267265
426.885762	2559.338355
427.263789	2568.916547
427.641756	2565.087791
428.019662	2566.892524
428.397508	2562.983109
428.775292	2565.271793
429.153016	2564.883624
429.530679	2565.433110
429.908282	2565.753223
430.285824	2563.789694
430.663305	2566.453944
431.040726	2565.896896
431.418086	2565.632236
431.795385	2566.201886
432.172624	2563.439334
432.549802	2566.653069
432.926920	2565.173491
433.303977	2565.498645
433.680974	2566.534602
434.057910	2567.598286
434.434786	2564.550908
434.811601	2568.089798
435.188355	2567.434448
435.565050	2565.571742
435.941683	2568.999726
436.318257	2568.389747
436.694770	2565.977555
437.071222	2567.749520
437.447614	2565.995199
437.823946	2567.983934
438.200218	2565.163408
438.576429	2569.274469
438.952580	2568.193142
439.328670	2568.732545
439.704700	2569.740776
440.080670	2568.881259
440.456580	2567.704150
440.832429	2570.789336
441.208218	2567.610888
441.583947	2570.002916
441.959616	2568.193142
442.335224	2569.531568
442.710773	2567.741958
443.086261	2566.771536
443.461689	2570.133986
443.837057	2569.297154
444.212365	2569.579459
444.587612	2566.433779
444.962800	2563.913202
445.337927	2565.322205
445.712995	2566.048131
446.088002	2571.245560
446.462949	2568.740107
446.837837	2571.167423
447.212664	2571.424521
447.587431	2569.773543
447.962139	2570.214644
448.336786	2571.439645
448.711374	2570.121383
449.085901	2570.449058
449.460369	2572.072310
449.834776	2570.212124
450.209124	2571.059038
450.583412	2571.759758
450.957640	2571.490056
451.331808	2573.579615
451.705917	2571.273287
452.079965	2571.626167
452.453954	2574.885273
452.827883	2569.849161
453.201752	2571.815211
453.575562	2571.762279
453.949311	2576.213617
454.323001	2574.484502
454.696632	2575.071796
455.070202	2572.992320
455.443713	2573.032649
455.817164	2574.708833
456.190556	2573.675397
456.563888	2575.812846
456.937160	2576.589183
457.310373	2574.918041
457.683526	2574.655901
458.056619	2574.053483
458.429653	2573.756055
458.802628	2575.223031
459.175542	2574.418967
459.548398	2575.031467
459.921194	2574.524831
460.293930	2574.718915
460.666607	2575.822928
461.039224	2576.132959
461.411782	2578.426684
461.784280	2576.838721
462.156719	2579.056828
462.529099	2578.804771
462.901419	2578.991293
463.273680	2577.239492
463.645882	2575.026426
464.018024	2572.490725
464.390106	2571.863102
464.762130	2576.848803
465.134094	2575.661611
465.505999	2578.744277
465.877845	2580.967426
466.249631	2583.208218
466.621358	2580.629668
466.993026	2582.721747
467.364634	2585.897674
467.736184	2580.964905
468.107674	2579.147569
468.479105	2579.041705
468.850477	2581.116140
469.221790	2581.998342
469.593043	2580.927096
469.964238	2582.923393
470.335373	2580.062538
470.706449	2582.799885
471.077467	2581.317786
471.448425	2583.009093
471.819324	2584.203846
472.190164	2588.448498
472.560945	2586.003538
472.931667	2583.785431
473.302330	2582.240317
473.672934	2584.125708
474.043479	2582.452045
474.413965	2582.774679
474.784393	2583.919021
475.154761	2583.929103
475.525070	2584.012282
475.895321	2584.148394
476.265513	2583.001531
476.635645	2585.764083
477.005719	2584.408013
477.375734	2586.179979
477.745691	2588.324990
478.115588	2584.682756
478.485427	2588.536718
478.855207	2585.701069
479.224928	2588.761049
479.594591	2590.404466
479.964194	2589.391194
480.333739	2592.536874
480.703226	2590.245669
481.072653	2592.342789
481.442022	2590.490165
481.811333	2589.295412
482.180584	2587.122674
482.549777	2590.059147
482.918912	2586.424475
483.287988	2591.541246
483.657005	2592.063005
484.025964	2590.510330
484.394864	2590.129723
484.763706	2591.004363
485.132489	2590.762387
485.501213	2590.192737
485.869879	2591.132912
486.238487	2593.827409
486.607036	2594.069384
486.975527	2592.183993
487.343959	2592.594847
487.712333	2593.701380
488.080648	2592.423448
488.448905	2594.570979
488.817104	2592.350351
489.185244	2595.460743
489.553326	2593.547625
489.921350	2594.921339
490.289315	2596.000146
490.657222	2597.083994
491.025070	2598.813110
491.392861	2596.020311
491.760593	2596.746237
492.128267	2599.770929
492.495883	2597.121803
492.863440	2596.345465
493.230939	2596.269848
493.598380	2595.632142
493.965763	2595.763212
494.333088	2596.945363
494.700354	2592.801534
495.067563	2596.242122
495.434713	2595.904364
495.801805	2595.806062
496.168839	2596.635332
496.535815	2597.454519
496.902733	2596.123655
497.269593	2596.957966
497.636395	2597.504931
498.003139	2597.706577
498.369825	2595.937132
498.736453	2596.050558
499.103023	2599.193717
499.469535	2598.326639
499.835989	2597.394025
500.202385	2590.976637
500.568723	2595.959817
500.935003	2594.916298
501.301226	2592.546956
501.667390	2598.762699
502.033497	2602.825869
502.399546	2598.351845
502.765537	2599.922164
503.131470	2599.874273
503.497345	2603.965169
503.863163	2601.920982
504.228923	2598.679520
504.594625	2604.091198
504.960269	2604.436517
505.325856	2603.791250
505.691385	2603.670262
506.056856	2603.236723
506.422270	2605.855602
506.787625	2608.330809
507.152924	2607.108329
507.518164	2608.040942
507.883347	2608.154368
508.248472	2608.303082
508.613540	2610.942126
508.978550	2610.750562
509.343503	2610.185953
509.708398	2611.544544
510.073236	2612.779627
510.438016	2618.140894
510.802738	2612.850203
511.167403	2615.106119
511.532010	2613.170316
511.896561	2617.621655
512.261053	2615.708537
512.625488	2617.840945
512.989866	2617.316665
513.354186	2621.505864
513.718449	2620.227932
514.082655	2623.421503
514.446803	2623.146760
514.810894	2624.961575
515.174927	2627.746813
515.538904	2626.131123
515.902822	2625.100207
516.266684	2631.502472
516.630488	2628.298819
516.994235	2633.216465
517.357925	2630.164046
517.721558	2633.390384
518.085133	2633.768471
518.448651	2634.602782
518.812112	2630.847122
519.175516	2636.742752
519.538863	2635.837865
519.902152	2639.137300
520.265385	2644.516211
520.628560	2643.936478
520.991678	2645.514359
521.354739	2647.462765
521.717743	2646.149545
522.080690	2650.759680
522.443580	2652.103147
522.806413	2655.815957
523.169189	2655.730258
523.531908	2657.882830
523.894569	2658.107162
524.257174	2660.811741
524.619722	2662.848367
524.982213	2666.084788
525.344647	2668.194511
525.707025	2671.025118
526.069345	2672.605520
526.431608	2672.504697
526.793815	2676.038546
527.155964	2677.664318
527.518057	2678.067610
527.880093	2681.760256
528.242072	2687.232428
528.603995	2690.012624
528.965860	2691.461956
529.327669	2692.472707
529.689421	2694.310208
530.051117	2696.883717
530.412755	2700.780529
530.774337	2705.932588
531.135862	2705.037783
531.497331	2711.770244
531.858743	2713.131356
532.220098	2720.836760
532.581396	2724.552090
532.942638	2726.495455
533.303824	2731.345045
533.664953	2737.210427
534.026025	2737.107084
534.387040	2745.735018
534.747999	2754.549476
535.108902	2756.444950
535.469748	2762.030548
535.830537	2764.478028
536.191270	2776.687703
536.551947	2775.954215
536.912567	2779.019237
537.273131	2789.172121
537.633638	2795.155970
537.994089	2806.286838
538.354483	2809.036787
538.714821	2824.399704
539.075103	2831.840447
539.435328	2839.762620
539.795497	2844.037518
540.155609	2858.868593
540.515665	2867.788915
540.875665	2869.087012
541.235609	2880.573281
541.595496	2894.867473
541.955328	2910.308527
542.315102	2924.587595
542.674821	2928.247473
543.034483	2933.553287
543.394090	2951.497274
543.753640	2955.767132
544.113134	2981.376193
544.472571	2990.079745
544.831953	3013.518590
545.191278	3015.025895
545.550548	3032.773277
545.909761	3043.858775
546.268918	3072.091757
546.628019	3086.990887
546.987064	3107.654577
547.346053	3119.662605
547.704986	3139.693630
548.063863	3164.334790
548.422684	3171.624298
548.781449	3192.971064
549.140158	3224.082545
549.498811	3243.057448
549.857408	3248.146493
550.215949	3284.977163
550.574434	3300.713125
550.932864	3335.313084
551.291237	3362.368957
551.649555	3390.977505
552.007817	3423.858431
552.366022	3445.343829
552.724173	3468.132365
553.082267	3500.622601
553.440305	3549.662946
553.798288	3551.581105
554.156215	3607.560598
554.514086	3641.447234
554.871902	3644.381185
555.229661	3690.419523
555.587365	3729.407807
555.945014	3754.406889
556.302606	3818.878205
556.660143	3843.161443
557.017625	3902.266452
557.375050	3919.855037
557.732421	3971.824292
558.089735	4016.713247
558.446994	4050.234399
558.804197	4107.905199
559.161345	4157.686593
559.518437	4159.055267
559.875474	4238.241711
560.232455	4278.349131
560.589381	4335.851053
560.946251	4369.417576
561.303065	4448.024287
561.659825	4512.893855
562.016528	4531.241135
562.373177	4562.970157
562.729770	4628.033809
563.086307	4701.881672
563.442789	4764.845683
563.799216	4807.483762
564.155587	4850.769630
564.511904	4923.362245
564.868164	4956.898521
565.224370	5033.897105
565.580520	5061.018513
565.936615	5154.935209
566.292654	5159.409233
566.648638	5280.326349
567.004567	5305.489269
567.360441	5373.005442
567.716260	5392.474378
568.072023	5526.069996
568.427732	5559.598711
568.783385	5586.692392
569.138982	5681.723183
569.494525	5779.982833
569.850013	5825.464123
570.205445	5890.253033
570.560823	5913.717083
570.916145	5984.930943
571.271412	6048.726745
571.626625	6125.939578
571.981782	6189.838723
572.336884	6219.989864
572.691931	6321.022149
573.046923	6319.663558
573.401860	6405.685807
573.756743	6502.594428
574.111570	6540.234204
574.466342	6596.523728
574.821059	6696.895621
575.175722	6706.617486
575.530330	6811.261758
575.884882	6874.848352
576.239380	6948.827285
576.593823	6999.145562
576.948211	7046.144239
577.302544	7091.375992
577.656823	7142.878940
578.011047	7262.626509
578.365216	7302.577653
578.719330	7366.416305
579.073389	7405.051708
579.427394	7557.980151
579.781344	7537.845782
580.135239	7625.350131
580.489080	7682.542021
580.842866	7678.529263
581.196597	7858.639607
581.550273	7881.163483
581.903895	7992.668765
582.257463	8135.066237
582.610975	8108.282587
582.964434	8262.189014
583.317837	8273.551775
583.671186	8382.254175
584.024481	8470.703740
584.377721	8446.629710
584.730906	8563.319818
585.084037	8661.513933
585.437113	8712.318682
585.790135	8838.251746
586.143103	8763.065457
586.496016	8826.906629
586.848874	9038.725832
587.201679	9068.786232
587.554428	9030.793576
587.907124	9236.301254
588.259765	9231.507117
588.612352	9366.282365
588.964884	9292.096745
589.317362	9429.962220
589.669786	9521.902784
590.022155	9612.235220
590.374470	9777.650601
590.726731	9789.104102
591.078937	9766.242470
591.431090	9876.048883
591.783188	9847.180715
592.135232	9897.665350
592.487222	10053.298373
592.839157	10127.201688
593.191038	10183.755872
593.542866	10190.982366
593.894639	10178.676910
594.246358	10338.990643
594.598022	10362.583243
594.949633	10339.381333
595.301190	10379.844154
595.652692	10541.100583
596.004141	10731.676363
596.355535	10498.490230
596.706876	10572.368340
597.058162	10611.396953
597.409395	10765.832701
597.760573	10915.877604
598.111698	10882.636236
598.462768	10925.123080
598.813785	10965.855603
599.164748	10961.227824
599.515657	11035.904957
599.866511	11012.501400
600.217312	11257.826631
600.568060	11093.855541
600.918753	11329.670635
601.269392	11378.665610
601.619978	11299.060749
601.970510	11520.874039
602.320988	11535.974815
602.671412	11725.428939
603.021783	11741.109448
603.372100	11663.853765
603.722363	11824.900986
604.072572	11858.046573
604.422728	11981.035603
604.772830	11958.466358
605.122878	11952.479987
605.472872	12041.355530
605.822813	12107.949172
606.172701	12154.660503
606.522534	12338.597084
606.872314	12426.918099
607.222041	12354.595186
607.571714	12583.415679
607.921333	12550.877552
608.270899	12669.884071
608.620411	12893.900345
608.969870	12750.754261
609.319276	12837.832632
609.668627	12945.080659
610.017926	13098.188063
610.367171	13228.827044
610.716362	13353.716590
611.065500	13267.051593
611.414585	13420.156477
611.763616	13481.550169
612.112594	13516.399666
612.461518	13538.104353
612.810389	13736.854364
613.159207	13668.057738
613.507971	13673.713912
613.856682	13962.413232
614.205340	13953.465183
614.553945	14139.876970
614.902496	13977.846724
615.250994	14252.808899
615.599439	14251.646913
615.947830	14280.000883
616.296169	14345.561088
616.644454	14416.722016
616.992686	14409.873609
617.340864	14625.156084
617.688990	14530.251321
618.037063	14696.841291
618.385082	14640.408095
618.733048	14877.690165
619.080961	14821.403162
619.428821	14918.770528
619.776628	14908.453806
620.124382	14878.970618
620.472083	14960.924656
620.819731	15046.518407
621.167326	14853.233007
621.514868	14931.703608
621.862357	14806.597293
622.209793	14870.151119
622.557176	14804.162416
622.904506	14697.468915
623.251783	14686.229662
623.599007	14587.498664
623.946179	14588.156535
624.293297	14602.632208
624.640363	14444.713023
624.987376	14500.619419
625.334336	14368.863822
625.681243	14295.537719
626.028097	14324.088294
626.374899	14343.118649
626.721647	14247.046860
627.068343	14147.000121
627.414987	14129.363644
627.761577	14164.636597
628.108115	14245.685748
628.454600	14021.503116
628.801032	14129.736689
629.147412	14098.037914
629.493739	14161.289271
629.840014	14025.624260
630.186236	14130.495383
630.532405	13977.156086
630.878521	14163.499817
631.224585	14089.616667
631.570597	13986.192354
631.916556	14023.043189
632.262462	14033.211196
632.608316	14001.847657
632.954117	13967.555208
633.299866	13998.580990
633.645562	13960.361482
633.991206	13759.779012
634.336797	13665.937933
634.682336	13689.674206
635.027823	13614.608904
635.373257	13557.500193
635.718639	13472.932317
636.063968	13456.649390
636.409245	13286.157567
636.754470	13324.014111
637.099642	13210.600753
637.444762	13008.579033
637.789829	13094.908793
638.134845	12961.093884
638.479808	12996.376920
638.824719	12974.634423
639.169577	12846.642048
639.514383	12927.771857
639.859137	12761.721291
640.203839	12859.063451
640.548489	12722.909447
640.893086	12740.581212
641.237632	12610.106068
641.582125	12785.818006
641.926566	12645.918425
642.270955	12663.259994
