Dividing Wavelength (nm)	Counts (n)	Blue Motor Position (mm): 11.600000	Red Motor Position (mm): 0.000000	
326.493990	2163.796821
326.888308	2163.796821
327.282561	2163.796821
327.676750	2121.405759
328.070874	2118.018103
328.464933	2119.948865
328.858929	2122.597992
329.252859	2128.738117
329.646726	2137.106432
330.040528	2148.166724
330.434265	2164.167346
330.827938	2180.689728
331.221547	2196.024918
331.615091	2211.337423
332.008571	2232.333828
332.401986	2250.416447
332.795338	2273.593152
333.188625	2290.271810
333.581847	2307.109263
333.975006	2326.101811
334.368100	2341.517659
334.761129	2363.562625
335.154095	2377.864378
335.546996	2397.950856
335.939833	2425.115113
336.332606	2437.660025
336.725315	2451.495471
337.117960	2463.427883
337.510540	2473.116980
337.903056	2486.849083
338.295508	2494.183962
338.687896	2503.300889
339.080220	2511.805315
339.472480	2519.934176
339.864676	2522.611029
340.256807	2529.061185
340.648875	2531.861546
341.040879	2533.837678
341.432818	2538.999820
341.824694	2540.796991
342.216506	2542.334543
342.608253	2541.492670
342.999937	2541.369162
343.391557	2546.042312
343.783113	2542.808412
344.174605	2541.742207
344.566033	2541.104502
344.957397	2537.164840
345.348697	2539.650129
345.739934	2536.219623
346.131106	2532.007739
346.522215	2533.769623
346.913260	2531.405322
347.304241	2527.390043
347.695159	2526.785104
348.086012	2523.823426
348.476802	2524.566996
348.867528	2518.983918
349.258191	2517.673218
349.648789	2514.809843
350.039324	2510.653412
350.429796	2515.860924
350.820203	2512.952178
351.210548	2515.245903
351.600828	2514.802281
351.991045	2511.349091
352.381198	2507.364059
352.771288	2507.928668
353.161314	2511.031498
353.551276	2509.156189
353.941175	2506.759120
354.331010	2508.563853
354.720782	2507.091837
355.110490	2507.911024
355.500135	2504.752741
355.889717	2508.629388
356.279235	2509.246930
356.668689	2509.052845
357.058080	2509.037722
357.447408	2509.221724
357.836672	2507.485047
358.225873	2508.702485
358.615010	2511.036539
359.004084	2513.118536
359.393095	2512.105264
359.782043	2511.623834
360.170927	2511.805315
360.559748	2510.081241
360.948505	2512.982425
361.337199	2514.252796
361.725830	2511.921262
362.114398	2512.775738
362.502903	2513.816736
362.891344	2513.894874
363.279722	2512.498474
363.668037	2514.454442
364.056289	2513.640295
364.444478	2518.701614
364.832603	2515.460152
365.220665	2516.347395
365.608665	2517.592560
365.996601	2517.597601
366.384474	2517.365708
366.772284	2518.845287
367.160031	2520.133302
367.547715	2520.443333
367.935336	2519.770338
368.322893	2518.154649
368.710388	2515.750018
369.097820	2515.744977
369.485189	2517.418640
369.872495	2521.426357
370.259738	2520.224042
370.646918	2521.685977
371.034035	2523.049609
371.421090	2521.703621
371.808081	2522.467356
372.195010	2521.693539
372.581875	2523.074815
372.968678	2521.748991
373.355418	2523.886441
373.742096	2525.350896
374.128710	2523.102541
374.515262	2526.384332
374.901751	2523.984743
375.288177	2521.733868
375.674540	2523.374763
376.060841	2527.374919
376.447079	2524.249404
376.833254	2525.907943
377.219367	2527.609333
377.605417	2526.210413
377.991404	2527.342152
378.377329	2526.223015
378.763191	2524.894671
379.148991	2526.795186
379.534727	2528.153777
379.920402	2526.573376
380.306013	2528.713345
380.691563	2527.755526
381.077049	2529.030938
381.462474	2527.732841
381.847835	2528.975485
382.233134	2529.189734
382.618371	2527.248890
383.003545	2531.352389
383.388657	2527.619415
383.773706	2528.090763
384.158693	2530.412214
384.543618	2531.024714
384.928480	2529.635877
385.313280	2529.608150
385.698017	2530.520599
386.082692	2530.639066
386.467305	2530.999509
386.851856	2532.983203
387.236344	2530.971782
387.620770	2528.297450
388.005133	2526.893489
388.389435	2529.298119
388.773674	2527.581606
389.157851	2532.348017
389.541965	2527.541277
389.926018	2535.289531
390.310008	2530.820548
390.693936	2533.515044
391.077802	2534.888759
391.461606	2532.814324
391.845348	2531.695188
392.229027	2534.954294
392.612645	2532.189221
392.996200	2535.173584
393.379694	2530.565969
393.763125	2537.744572
394.146494	2534.182997
394.529801	2538.195756
394.913047	2534.480425
395.296230	2534.956814
395.679351	2535.271887
396.062410	2539.309851
396.445408	2536.638039
396.828343	2537.535365
397.211217	2537.111908
397.594028	2539.032587
397.976778	2536.292720
398.359466	2536.421270
398.742092	2536.305323
399.124656	2538.573842
399.507158	2535.279448
399.889598	2538.843544
400.271977	2538.800694
400.654294	2538.226003
401.036549	2539.118287
401.418742	2536.990920
401.800874	2538.853626
402.182944	2538.583925
402.564952	2539.735828
402.946898	2538.178112
403.328783	2538.379758
403.710606	2539.463606
404.092367	2540.686086
404.474067	2539.491332
404.855705	2540.824718
405.237282	2538.226003
405.618797	2542.082485
406.000250	2540.585263
406.381642	2540.663401
406.762972	2536.602751
407.144240	2537.127031
407.525447	2538.410005
407.906593	2535.481094
408.287677	2540.633154
408.668700	2540.328164
409.049661	2542.528628
409.430560	2540.290355
409.811399	2544.159441
410.192176	2544.671118
410.572891	2547.209339
410.953545	2542.281611
411.334138	2542.974770
411.714669	2540.547454
412.095139	2543.494008
412.475547	2544.993752
412.855894	2542.725232
413.236180	2541.512835
413.616405	2543.141128
413.996568	2540.136600
414.376670	2544.257743
414.756711	2543.733463
415.136691	2542.773123
415.516609	2544.759338
415.896466	2544.829914
416.276262	2544.892929
416.655997	2547.721016
417.035670	2543.960315
417.415283	2543.514173
417.794834	2545.076931
418.174324	2544.098947
418.553753	2543.317568
418.933121	2543.335212
419.312428	2544.308155
419.691674	2544.323278
420.070859	2546.732950
420.449983	2546.143135
420.829045	2546.329658
421.208047	2545.152548
421.586988	2544.124153
421.965867	2545.654143
422.344686	2544.136756
422.723444	2548.270502
423.102141	2546.354863
423.480777	2545.944009
423.859352	2548.305790
424.237866	2547.383259
424.616319	2548.280584
424.994712	2546.138094
425.373044	2545.593649
425.751314	2547.514329
426.129524	2543.476364
426.507673	2545.754966
426.885762	2543.902342
427.263789	2545.996941
427.641756	2548.104144
428.019662	2546.354863
428.397508	2548.802343
428.775292	2548.494833
429.153016	2549.513146
429.530679	2547.589946
429.908282	2546.995090
430.285824	2547.839483
430.663305	2550.806202
431.040726	2546.243958
431.418086	2547.416026
431.795385	2549.077086
432.172624	2548.227652
432.549802	2550.975081
432.926920	2548.819988
433.303977	2550.344937
433.680974	2549.593805
434.057910	2549.195553
434.434786	2549.482899
434.811601	2551.937941
435.188355	2550.029864
435.565050	2549.553475
435.941683	2550.990204
436.318257	2549.339226
436.694770	2548.870399
437.071222	2550.075235
437.447614	2549.999617
437.823946	2553.442726
438.200218	2548.744370
438.576429	2551.080945
438.952580	2550.869217
439.328670	2553.430123
439.704700	2551.252344
440.080670	2549.205636
440.456580	2554.304763
440.832429	2551.146480
441.208218	2548.404092
441.583947	2553.324258
441.959616	2552.810061
442.335224	2550.755791
442.710773	2552.038764
443.086261	2552.673950
443.461689	2553.236038
443.837057	2553.460370
444.212365	2553.631769
444.587612	2548.726726
444.962800	2551.496840
445.337927	2549.717313
445.712995	2549.815615
446.088002	2552.462221
446.462949	2554.322407
446.837837	2551.567416
447.212664	2557.011862
447.587431	2552.857952
447.962139	2553.490617
448.336786	2553.535987
448.711374	2551.890050
449.085901	2552.643703
449.460369	2557.886503
449.834776	2554.027499
450.209124	2556.550597
450.583412	2554.335010
450.957640	2552.744526
451.331808	2556.066646
451.705917	2552.719320
452.079965	2551.590102
452.453954	2554.392983
452.827883	2552.847869
453.201752	2553.462890
453.575562	2554.455997
453.949311	2553.999773
454.323001	2553.664536
454.696632	2554.501368
455.070202	2556.477500
455.443713	2553.301573
455.817164	2557.430278
456.190556	2555.817109
456.563888	2557.359702
456.937160	2555.255020
457.310373	2554.992880
457.683526	2555.355843
458.056619	2556.343910
458.429653	2554.766028
458.802628	2556.790052
459.175542	2553.810730
459.548398	2556.757284
459.921194	2556.472459
460.293930	2557.064795
460.666607	2555.456667
461.039224	2558.040258
461.411782	2558.746019
461.784280	2556.059084
462.156719	2556.608570
462.529099	2559.857594
462.901419	2556.974054
463.273680	2557.642007
463.645882	2552.416851
464.018024	2555.396173
464.390106	2552.774773
464.762130	2557.720145
465.134094	2556.764846
465.505999	2556.628735
465.877845	2556.779969
466.249631	2558.562017
466.621358	2559.298026
466.993026	2560.454971
467.364634	2561.957234
467.736184	2560.074363
468.107674	2561.647203
468.479105	2561.382543
468.850477	2558.057902
469.221790	2557.034548
469.593043	2557.621842
469.964238	2559.043447
470.335373	2558.874569
470.706449	2558.171328
471.077467	2560.107131
471.448425	2557.931873
471.819324	2561.102759
472.190164	2562.841957
472.560945	2559.708880
472.931667	2561.329611
473.302330	2562.123593
473.672934	2559.134188
474.043479	2559.633263
474.413965	2562.027811
474.784393	2561.468243
475.154761	2560.749878
475.525070	2559.315670
475.895321	2560.230639
476.265513	2561.871535
476.635645	2562.126113
477.005719	2562.887327
477.375734	2564.364385
477.745691	2563.512430
478.115588	2561.150650
478.485427	2562.988150
478.855207	2562.242060
479.224928	2564.152657
479.594591	2564.646690
479.964194	2563.751885
480.333739	2564.503017
480.703226	2564.578634
481.072653	2565.463357
481.442022	2565.546536
481.811333	2564.258521
482.180584	2562.047975
482.549777	2565.150805
482.918912	2561.652245
483.287988	2563.802297
483.657005	2564.918912
484.025964	2565.707853
484.394864	2568.994685
484.763706	2568.147771
485.132489	2568.235992
485.501213	2562.506720
485.869879	2567.414283
486.238487	2567.709191
486.607036	2564.223233
486.975527	2567.389078
487.343959	2566.675754
487.712333	2566.617781
488.080648	2566.640466
488.448905	2567.280693
488.817104	2565.153326
489.185244	2564.750034
489.553326	2569.304716
489.921350	2568.767833
490.289315	2566.070816
490.657222	2570.456620
491.025070	2569.934860
491.392861	2570.953173
491.760593	2569.960066
492.128267	2571.616085
492.495883	2571.951322
492.863440	2568.500652
493.230939	2570.592731
493.598380	2571.512742
493.965763	2573.420818
494.333088	2568.687175
494.700354	2568.475446
495.067563	2570.302865
495.434713	2567.666341
495.801805	2567.096691
496.168839	2568.908986
496.535815	2571.119532
496.902733	2567.996537
497.269593	2566.441341
497.636395	2567.981413
498.003139	2569.113152
498.369825	2569.264387
498.736453	2569.745817
499.103023	2570.658266
499.469535	2570.244891
499.835989	2570.370920
500.202385	2567.744479
500.568723	2566.542164
500.935003	2566.776577
501.301226	2563.986299
501.667390	2567.338666
502.033497	2570.630540
502.399546	2571.926116
502.765537	2570.688513
503.131470	2571.863102
503.497345	2570.587690
503.863163	2572.896538
504.228923	2569.816393
504.594625	2573.095664
504.960269	2568.379664
505.325856	2571.197669
505.691385	2569.534089
506.056856	2569.483677
506.422270	2569.929819
506.787625	2571.240519
507.152924	2570.905283
507.518164	2569.443348
507.883347	2570.202042
508.248472	2572.621795
508.613540	2569.614747
508.978550	2569.808832
509.343503	2573.284707
509.708398	2573.514080
510.073236	2573.345201
510.438016	2574.119018
510.802738	2574.943247
511.167403	2575.558267
511.532010	2573.904769
511.896561	2577.118505
512.261053	2573.892166
512.625488	2574.035839
512.989866	2574.734039
513.354186	2574.608010
513.718449	2579.127404
514.082655	2574.804615
514.446803	2575.729667
514.810894	2579.011458
515.174927	2578.504822
515.538904	2576.299317
515.902822	2576.629513
516.266684	2579.248392
516.630488	2581.181675
516.994235	2577.189081
517.357925	2582.252920
517.721558	2583.321644
518.085133	2581.153948
518.448651	2580.307034
518.812112	2580.286870
519.175516	2581.423650
519.538863	2579.485326
519.902152	2585.418764
520.265385	2585.408682
520.628560	2586.051429
520.991678	2584.271902
521.354739	2585.350709
521.717743	2585.506985
522.080690	2587.422623
522.443580	2587.601584
522.806413	2591.062336
523.169189	2589.701225
523.531908	2592.367995
523.894569	2588.564444
524.257174	2593.071236
524.619722	2591.362285
524.982213	2594.873448
525.344647	2595.856473
525.707025	2596.025352
526.069345	2595.213726
526.431608	2595.599375
526.793815	2597.278079
527.155964	2598.435024
527.518057	2598.195569
527.880093	2599.571804
528.242072	2599.009715
528.603995	2602.130189
528.965860	2599.912082
529.327669	2600.728749
529.689421	2605.560695
530.051117	2603.458533
530.412755	2603.531630
530.774337	2604.738987
531.135862	2604.859974
531.497331	2605.734614
531.858743	2605.512804
532.220098	2609.097064
532.581396	2610.044801
532.942638	2609.454986
533.303824	2610.453134
533.664953	2612.522528
534.026025	2608.557661
534.387040	2613.566047
534.747999	2613.109822
535.108902	2613.772734
535.469748	2612.683845
535.830537	2612.910697
536.191270	2619.323045
536.551947	2611.950357
536.912567	2614.062601
537.273131	2616.484875
537.633638	2617.097375
537.994089	2621.236162
538.354483	2619.852366
538.714821	2621.677263
539.075103	2620.321193
539.435328	2622.120885
539.795497	2622.093159
540.155609	2625.672378
540.515665	2623.507202
540.875665	2622.428395
541.235609	2623.940742
541.595496	2624.220526
541.955328	2624.954013
542.315102	2627.915691
542.674821	2627.971144
543.034483	2627.038531
543.394090	2629.501134
543.753640	2630.375774
544.113134	2631.779736
544.472571	2629.770836
544.831953	2632.135137
545.191278	2632.964407
545.550548	2630.423665
545.909761	2634.063378
546.268918	2632.203193
546.628019	2635.295941
546.987064	2634.741414
547.346053	2634.839716
547.704986	2633.405508
548.063863	2637.267032
548.422684	2636.684778
548.781449	2636.954480
549.140158	2635.729480
549.498811	2636.712505
549.857408	2635.177473
550.215949	2639.717032
550.574434	2637.254429
550.932864	2640.644605
551.291237	2639.565798
551.649555	2641.559574
552.007817	2640.634522
552.366022	2642.535037
552.724173	2639.286014
553.082267	2642.235089
553.440305	2642.424132
553.798288	2641.446148
554.156215	2645.204328
554.514086	2640.221148
554.871902	2639.212917
555.229661	2641.166364
555.587365	2639.497742
555.945014	2645.703403
556.302606	2647.034267
556.660143	2649.615338
557.017625	2647.387148
557.375050	2646.542755
557.732421	2648.932262
558.089735	2647.971922
558.446994	2648.039977
558.804197	2650.953764
559.161345	2648.884371
559.518437	2648.390338
559.875474	2650.043836
560.232455	2651.137767
560.589381	2653.638179
560.946251	2650.404279
561.303065	2652.967705
561.659825	2656.398211
562.016528	2652.332520
562.373177	2653.643220
562.729770	2651.692293
563.086307	2654.631286
563.442789	2655.021976
563.799216	2656.483910
564.155587	2656.894764
564.511904	2662.016577
564.868164	2657.933242
565.224370	2658.651606
565.580520	2658.838129
565.936615	2660.564724
566.292654	2656.607418
566.648638	2660.529436
567.004567	2661.336021
567.360441	2663.491114
567.716260	2660.279899
568.072023	2664.461536
568.427732	2662.329128
568.783385	2665.149654
569.138982	2666.190652
569.494525	2666.102432
569.850013	2668.189469
570.205445	2667.193842
570.560823	2665.270641
570.916145	2669.341373
571.271412	2666.651917
571.626625	2671.531754
571.981782	2673.207938
572.336884	2669.762309
572.691931	2672.550067
573.046923	2667.987823
573.401860	2671.935047
573.756743	2677.634071
574.111570	2676.204904
574.466342	2678.302024
574.821059	2681.989628
575.175722	2679.244720
575.530330	2682.002231
575.884882	2686.385514
576.239380	2685.011800
576.593823	2685.699917
576.948211	2689.092614
577.302544	2685.581450
577.656823	2688.739733
578.011047	2690.095803
578.365216	2691.764425
578.719330	2694.448840
579.073389	2696.021680
579.427394	2700.878832
579.781344	2698.292720
580.135239	2700.626774
580.489080	2699.981506
580.842866	2699.873121
581.196597	2714.716799
581.550273	2707.137424
581.903895	2712.347457
582.257463	2718.749722
582.610975	2716.445915
582.964434	2722.631410
583.317837	2724.088304
583.671186	2730.667010
584.024481	2735.985427
584.377721	2733.643811
584.730906	2735.481312
585.084037	2739.967938
585.437113	2741.535737
585.790135	2748.991604
586.143103	2748.545462
586.496016	2750.445977
586.848874	2758.436206
587.201679	2758.610125
587.554428	2759.051226
587.907124	2767.711929
588.259765	2771.565891
588.612352	2779.115019
588.964884	2781.910338
589.317362	2786.243210
589.669786	2792.453912
590.022155	2796.151598
590.374470	2801.659059
590.726731	2805.185346
591.078937	2806.622075
591.431090	2813.679690
591.783188	2815.106337
592.135232	2821.153201
592.487222	2829.760971
592.839157	2836.395129
593.191038	2842.058866
593.542866	2841.431242
593.894639	2847.246213
594.246358	2859.445805
594.598022	2861.729448
594.949633	2866.039634
595.301190	2870.120448
595.652692	2879.749052
596.004141	2886.791544
596.355535	2886.141235
596.706876	2893.271947
597.058162	2899.341497
597.409395	2906.220151
597.760573	2915.274063
598.111698	2919.639703
598.462768	2927.410641
598.813785	2936.431786
599.164748	2934.690068
599.515657	2944.109463
599.866511	2951.582974
600.217312	2968.105356
600.568060	2963.205354
600.918753	2984.000114
601.269392	2992.938080
601.619978	2993.207781
601.970510	3014.015144
602.320988	3018.005217
602.671412	3034.658669
603.021783	3043.740308
603.372100	3048.872202
603.722363	3063.138668
604.072572	3074.937488
604.422728	3088.656988
604.772830	3094.550097
605.122878	3098.640993
605.472872	3116.519446
605.822813	3129.046713
606.172701	3142.244454
606.522534	3157.098213
606.872314	3172.839216
607.222041	3177.013292
607.571714	3199.315356
607.921333	3212.008982
608.270899	3230.840212
608.620411	3256.774428
608.969870	3255.738471
609.319276	3278.375772
609.668627	3301.507107
610.017926	3328.026096
610.367171	3346.360773
610.716362	3374.046790
611.065500	3379.609703
611.414585	3403.265318
611.763616	3418.615631
612.112594	3440.693364
612.461518	3451.557051
612.810389	3483.482678
613.159207	3488.796054
613.507971	3504.559742
613.856682	3556.128226
614.205340	3571.856626
614.553945	3616.196094
614.902496	3606.441462
615.250994	3656.542969
615.599439	3674.965866
615.947830	3696.438661
616.296169	3720.089234
616.644454	3749.708533
616.992686	3764.564814
617.340864	3815.636743
617.688990	3837.641380
618.037063	3888.100809
618.385082	3903.181421
618.733048	3950.850572
619.080961	3969.449909
619.428821	4013.534799
619.776628	4041.976989
620.124382	4059.265626
620.472083	4093.293415
620.819731	4128.110144
621.167326	4120.271150
621.514868	4143.054644
621.862357	4151.705264
622.209793	4174.045138
622.557176	4180.475129
622.904506	4173.747710
623.251783	4190.892674
623.599007	4204.566804
623.946179	4220.138928
624.293297	4235.590064
624.640363	4240.371599
624.987376	4255.603445
625.334336	4255.681583
625.681243	4268.473511
626.028097	4287.556799
626.374899	4334.232842
626.721647	4325.536852
627.068343	4335.641845
627.414987	4357.585987
627.761577	4399.946803
628.108115	4443.023463
628.454600	4420.653343
628.801032	4454.698775
629.147412	4480.380933
629.493739	4515.303527
629.840014	4531.699880
630.186236	4570.395777
630.532405	4571.618256
630.878521	4636.364316
631.224585	4651.528107
631.570597	4671.085263
631.916556	4694.183830
632.262462	4722.081575
632.608316	4758.909725
632.954117	4775.341366
633.299866	4816.532634
633.645562	4832.850849
633.991206	4818.097912
634.336797	4807.629956
634.682336	4850.086554
635.027823	4846.371223
635.373257	4868.980798
635.718639	4856.582080
636.063968	4880.303230
636.409245	4871.861818
636.754470	4899.570520
637.099642	4905.090583
637.444762	4878.997571
637.789829	4925.933234
638.134845	4921.562553
638.479808	4951.703612
638.824719	4968.430161
639.169577	4963.399089
639.514383	4996.027958
639.859137	4996.542155
640.203839	5046.081574
640.548489	5030.219583
640.893086	5076.391512
641.237632	5043.596285
641.582125	5133.338906
641.926566	5121.519921
642.270955	5148.842975
642.615292	5172.896840
642.959576	5203.907498
643.303809	5249.890383
643.647990	5251.692595
643.992118	5315.203572
644.336195	5267.131129
