Dividing Wavelength (nm)	Counts (n)	Blue Motor Position (mm): 5.200000	Red Motor Position (mm): 0.000000	
326.493990	2158.813641
326.888308	2158.813641
327.282561	2158.813641
327.676750	2119.127157
328.070874	2113.465941
328.464933	2114.605242
328.858929	2118.033227
329.252859	2123.364247
329.646726	2133.194497
330.040528	2145.474748
330.434265	2159.610143
330.827938	2172.800322
331.221547	2192.687674
331.615091	2208.844572
332.008571	2228.374002
332.401986	2248.213463
332.795338	2263.677203
333.188625	2287.743671
333.581847	2302.544499
333.975006	2320.075111
334.368100	2341.031188
334.761129	2359.073477
335.154095	2373.607124
335.546996	2391.805689
335.939833	2407.201373
336.332606	2423.033117
336.725315	2435.441917
337.117960	2446.693772
337.510540	2458.631225
337.903056	2471.221506
338.295508	2481.107209
338.687896	2487.554845
339.080220	2496.767553
339.472480	2499.830054
339.864676	2509.040243
340.256807	2511.853206
340.648875	2519.316635
341.040879	2518.381501
341.432818	2522.346368
341.824694	2525.577748
342.216506	2525.247552
342.608253	2527.309384
342.999937	2525.771832
343.391557	2526.870804
343.783113	2526.868283
344.174605	2525.285361
344.566033	2522.568179
344.957397	2523.150432
345.348697	2521.645648
345.739934	2522.129598
346.131106	2520.085411
346.522215	2518.260513
346.913260	2515.850841
347.304241	2512.196005
347.695159	2515.719771
348.086012	2510.787002
348.476802	2508.034532
348.867528	2502.748883
349.258191	2501.271824
349.648789	2499.025990
350.039324	2497.440547
350.429796	2500.785353
350.820203	2499.020949
351.210548	2499.381392
351.600828	2497.990033
351.991045	2496.374343
352.381198	2496.250835
352.771288	2494.819147
353.161314	2493.347131
353.551276	2494.264621
353.941175	2490.723210
354.331010	2490.788745
354.720782	2491.106338
355.110490	2496.039107
355.500135	2489.334372
355.889717	2490.183807
356.279235	2492.880824
356.668689	2491.754126
357.058080	2490.725731
357.447408	2493.904178
357.836672	2492.399394
358.225873	2494.201606
358.615010	2493.823520
359.004084	2494.491472
359.393095	2490.955103
359.782043	2496.081957
360.170927	2493.513489
360.559748	2497.639673
360.948505	2497.453150
361.337199	2497.352327
361.725830	2495.454333
362.114398	2499.066320
362.502903	2496.089518
362.891344	2496.583551
363.279722	2499.436844
363.668037	2500.520692
364.056289	2499.139416
364.444478	2501.647390
364.832603	2500.066989
365.220665	2502.897597
365.608665	2501.720487
365.996601	2499.545229
366.384474	2505.584532
366.772284	2501.115549
367.160031	2503.053872
367.547715	2502.932885
367.935336	2503.915910
368.322893	2500.225785
368.710388	2500.185456
369.097820	2505.035046
369.485189	2504.687206
369.872495	2504.382216
370.259738	2508.228617
370.646918	2508.271467
371.034035	2504.200735
371.421090	2510.610562
371.808081	2504.629233
372.195010	2508.422701
372.581875	2507.142248
372.968678	2509.650222
373.355418	2508.820952
373.742096	2507.694254
374.128710	2507.033863
374.515262	2509.806498
374.901751	2507.207783
375.288177	2507.626199
375.674540	2508.468072
376.060841	2509.693072
376.447079	2508.279028
376.833254	2510.388751
377.219367	2512.304390
377.605417	2509.209121
377.991404	2510.454286
378.377329	2510.376148
378.763191	2513.098371
379.148991	2510.671056
379.534727	2510.383710
379.920402	2510.880264
380.306013	2510.618124
380.691563	2510.865140
381.077049	2511.144924
381.462474	2511.643998
381.847835	2513.973012
382.233134	2511.742301
382.618371	2512.354801
383.003545	2514.666170
383.388657	2514.409071
383.773706	2513.375635
384.158693	2515.654236
384.543618	2511.845645
384.928480	2517.509381
385.313280	2513.519308
385.698017	2513.670542
386.082692	2514.212466
386.467305	2514.265398
386.851856	2515.790348
387.236344	2514.585512
387.620770	2511.124760
388.005133	2512.841273
388.389435	2513.458814
388.773674	2510.764317
389.157851	2515.931500
389.541965	2513.194153
389.926018	2517.902591
390.310008	2517.216994
390.693936	2517.020389
391.077802	2518.706655
391.461606	2517.514422
391.845348	2515.848321
392.229027	2516.617097
392.612645	2519.039371
392.996200	2518.129443
393.379694	2518.106758
393.763125	2521.552386
394.146494	2519.286388
394.529801	2520.027437
394.913047	2518.943589
395.296230	2519.777900
395.679351	2519.765297
396.062410	2519.730009
396.445408	2519.155318
396.828343	2518.835204
397.211217	2520.287057
397.594028	2519.997190
397.976778	2519.379649
398.359466	2521.605318
398.742092	2520.203878
399.124656	2519.649351
399.507158	2524.395597
399.889598	2521.519619
400.271977	2520.297139
400.654294	2524.662778
401.036549	2521.996008
401.418742	2523.624301
401.800874	2524.622449
402.182944	2525.202182
402.564952	2523.301667
402.946898	2522.053981
403.328783	2523.715041
403.710606	2522.374094
404.092367	2522.437109
404.474067	2522.588343
404.855705	2525.156811
405.237282	2523.205885
405.618797	2523.049609
406.000250	2524.710669
406.381642	2522.119516
406.762972	2524.395597
407.144240	2519.820750
407.525447	2521.103724
407.906593	2521.154135
408.287677	2526.681760
408.668700	2525.187058
409.049661	2528.128572
409.430560	2526.170083
409.811399	2528.829292
410.192176	2526.102028
410.572891	2528.234436
410.953545	2524.090607
411.334138	2525.807120
411.714669	2524.493900
412.095139	2528.088242
412.475547	2526.434744
412.855894	2529.482121
413.236180	2527.392563
413.616405	2524.849301
413.996568	2526.457429
414.376670	2528.998171
414.756711	2529.683768
415.136691	2528.844415
415.516609	2529.056144
415.896466	2527.269055
416.276262	2531.072605
416.655997	2528.814168
417.035670	2528.854498
417.415283	2529.562780
417.794834	2526.558252
418.174324	2528.821730
418.553753	2528.078160
418.933121	2530.404652
419.312428	2528.219312
419.691674	2531.765764
420.070859	2528.471370
420.449983	2530.744930
420.829045	2527.042203
421.208047	2530.974303
421.586988	2531.496062
421.965867	2529.688809
422.344686	2529.630835
422.723444	2529.809796
423.102141	2530.865918
423.480777	2529.809796
423.859352	2528.741072
424.237866	2529.928263
424.616319	2531.047400
424.994712	2530.865918
425.373044	2531.725435
425.751314	2529.542615
426.129524	2526.175124
426.507673	2528.161339
426.885762	2526.452388
427.263789	2534.732483
427.641756	2532.436238
428.019662	2533.348686
428.397508	2534.482946
428.775292	2530.694519
429.153016	2532.307688
429.530679	2533.177287
429.908282	2534.233409
430.285824	2535.004705
430.663305	2535.652494
431.040726	2531.745599
431.418086	2532.310209
431.795385	2534.674510
432.172624	2534.475384
432.549802	2533.043697
432.926920	2534.775333
433.303977	2533.676361
433.680974	2534.936650
434.057910	2533.262987
434.434786	2534.412370
434.811601	2533.094108
435.188355	2536.315405
435.565050	2535.158461
435.941683	2537.726928
436.318257	2533.583100
436.694770	2533.847761
437.071222	2533.656197
437.447614	2535.531506
437.823946	2536.849768
438.200218	2535.776002
438.576429	2534.777853
438.952580	2535.075282
439.328670	2535.108049
439.704700	2535.546629
440.080670	2536.678368
440.456580	2537.064017
440.832429	2537.467309
441.208218	2535.271887
441.583947	2538.551157
441.959616	2538.430169
442.335224	2535.100487
442.710773	2538.105015
443.086261	2534.669469
443.461689	2534.946732
443.837057	2538.982176
444.212365	2538.079809
444.587612	2532.705939
444.962800	2533.855322
445.337927	2531.780888
445.712995	2533.424304
446.088002	2535.163502
446.462949	2536.242309
446.837837	2538.198276
447.212664	2536.612833
447.587431	2538.157947
447.962139	2537.386651
448.336786	2540.938143
448.711374	2538.851106
449.085901	2536.290200
449.460369	2538.064686
449.834776	2538.775488
450.209124	2538.074768
450.583412	2538.326826
450.957640	2538.878832
451.331808	2538.120138
451.705917	2537.895807
452.079965	2539.506456
452.453954	2538.525951
452.827883	2539.014943
453.201752	2536.688451
453.575562	2538.238606
453.949311	2538.949408
454.323001	2539.246836
454.696632	2538.906558
455.070202	2537.873122
455.443713	2539.171219
455.817164	2540.822197
456.190556	2539.647608
456.563888	2538.452855
456.937160	2541.918648
457.310373	2539.256919
457.683526	2539.128369
458.056619	2541.573329
458.429653	2539.733308
458.802628	2535.150899
459.175542	2541.711961
459.548398	2542.747918
459.921194	2540.718853
460.293930	2540.764224
460.666607	2540.189532
461.039224	2540.383617
461.411782	2540.338246
461.784280	2540.832279
462.156719	2541.417053
462.529099	2541.308668
462.901419	2541.661549
463.273680	2537.719367
463.645882	2536.864891
464.018024	2537.626105
464.390106	2537.197607
464.762130	2542.180788
465.134094	2541.535520
465.505999	2540.940664
465.877845	2541.296065
466.249631	2541.837989
466.621358	2540.663401
466.993026	2540.655839
467.364634	2544.711447
467.736184	2541.669111
468.107674	2540.426466
468.479105	2541.885880
468.850477	2540.744059
469.221790	2542.962167
469.593043	2541.177598
469.964238	2543.446118
470.335373	2542.994934
470.706449	2545.558361
471.077467	2540.779347
471.448425	2540.360931
471.819324	2543.093237
472.190164	2545.134904
472.560945	2542.669780
472.931667	2541.696837
473.302330	2542.079965
473.672934	2541.621220
474.043479	2543.310006
474.413965	2540.403781
474.784393	2543.887218
475.154761	2544.043494
475.525070	2544.512322
475.895321	2542.962167
476.265513	2542.246323
476.635645	2545.714637
477.005719	2544.776982
477.375734	2541.946374
477.745691	2544.671118
478.115588	2542.253885
478.485427	2543.935109
478.855207	2544.048535
479.224928	2543.262115
479.594591	2543.612476
479.964194	2545.817980
480.333739	2545.757487
480.703226	2545.560882
481.072653	2543.347815
481.442022	2546.488454
481.811333	2542.742877
482.180584	2541.079296
482.549777	2540.955787
482.918912	2539.645087
483.287988	2542.977290
483.657005	2543.337733
484.025964	2545.316386
484.394864	2544.020809
484.763706	2545.376879
485.132489	2542.521066
485.501213	2544.928217
485.869879	2544.053577
486.238487	2543.587270
486.607036	2547.544576
486.975527	2543.446117
487.343959	2544.482075
487.712333	2548.141952
488.080648	2543.917465
488.448905	2543.811601
488.817104	2549.777807
489.185244	2544.673638
489.553326	2543.428473
489.921350	2543.221786
490.289315	2546.543907
490.657222	2546.354863
491.025070	2544.630789
491.392861	2546.112888
491.760593	2543.703216
492.128267	2547.179092
492.495883	2543.478885
492.863440	2544.257743
493.230939	2543.022661
493.598380	2544.935778
493.965763	2543.052908
494.333088	2548.179761
494.700354	2545.127342
495.067563	2545.588608
495.434713	2545.079451
495.801805	2546.672456
496.168839	2546.052394
496.535815	2546.856458
496.902733	2546.133052
497.269593	2545.112219
497.636395	2544.885367
498.003139	2542.584080
498.369825	2549.477858
498.736453	2543.461241
499.103023	2544.101467
499.469535	2548.966181
499.835989	2545.051725
500.202385	2544.877805
500.568723	2541.313709
500.935003	2544.058618
501.301226	2542.367311
501.667390	2547.441232
502.033497	2550.491130
502.399546	2546.402754
502.765537	2544.915614
503.131470	2544.643392
503.497345	2546.639688
503.863163	2547.625234
504.228923	2544.446787
504.594625	2547.892415
504.960269	2546.064997
505.325856	2545.931406
505.691385	2546.942158
506.056856	2545.339071
506.422270	2547.970553
506.787625	2549.238403
507.152924	2543.771272
507.518164	2546.259081
507.883347	2547.312683
508.248472	2546.770758
508.613540	2549.508105
508.978550	2548.590615
509.343503	2546.851417
509.708398	2549.389638
510.073236	2546.044832
510.438016	2545.210521
510.802738	2546.559030
511.167403	2545.696993
511.532010	2545.409647
511.896561	2549.273691
512.261053	2545.273536
512.625488	2548.023485
512.989866	2546.556509
513.354186	2545.069369
513.718449	2543.728422
514.082655	2548.273022
514.446803	2547.156407
514.810894	2547.388300
515.174927	2548.010882
515.538904	2545.271015
515.902822	2545.555840
516.266684	2547.390820
516.630488	2549.616490
516.994235	2545.553320
517.357925	2547.325285
517.721558	2549.238403
518.085133	2548.721685
518.448651	2546.496016
518.812112	2541.858154
519.175516	2542.137938
519.538863	2544.197249
519.902152	2547.479041
520.265385	2548.177240
520.628560	2548.915769
520.991678	2547.547096
521.354739	2550.251675
521.717743	2546.866540
522.080690	2548.492312
522.443580	2544.592980
522.806413	2547.829401
523.169189	2548.499874
523.531908	2545.807898
523.894569	2547.675646
524.257174	2548.399051
524.619722	2551.050698
524.982213	2549.601366
525.344647	2547.441232
525.707025	2550.289484
526.069345	2548.053732
526.431608	2548.905687
526.793815	2547.910059
527.155964	2549.487940
527.518057	2548.056253
527.880093	2544.996272
528.242072	2547.189174
528.603995	2550.566747
528.965860	2549.435008
529.327669	2549.742519
529.689421	2550.871737
530.051117	2548.416695
530.412755	2548.038609
530.774337	2549.165307
531.135862	2547.670604
531.497331	2546.246478
531.858743	2550.947354
532.220098	2547.083310
532.581396	2550.556665
532.942638	2549.523228
533.303824	2548.358722
533.664953	2549.225800
534.026025	2548.867878
534.387040	2548.013403
534.747999	2546.483413
535.108902	2548.618341
535.469748	2548.860317
535.830537	2549.049360
536.191270	2547.955430
536.551947	2546.831252
536.912567	2546.284287
537.273131	2547.700851
537.633638	2541.520397
537.994089	2547.905018
538.354483	2547.496685
538.714821	2549.636654
539.075103	2551.065822
539.435328	2549.682025
539.795497	2548.119267
540.155609	2548.583053
540.515665	2548.298228
540.875665	2549.671943
541.235609	2546.745553
541.595496	2549.548434
541.955328	2551.257385
542.315102	2550.801161
542.674821	2551.111192
543.034483	2547.655481
543.394090	2549.024154
543.753640	2549.694628
544.113134	2549.112374
544.472571	2550.090358
544.831953	2551.330482
545.191278	2548.809905
545.550548	2551.204453
545.909761	2546.082641
546.268918	2548.890564
546.628019	2550.259237
546.987064	2550.067673
547.346053	2548.285625
547.704986	2549.770245
548.063863	2549.193033
548.422684	2548.966181
548.781449	2548.641027
549.140158	2548.603218
549.498811	2551.040616
549.857408	2548.638506
550.215949	2549.435008
550.574434	2549.326623
550.932864	2547.867209
551.291237	2549.500543
551.649555	2547.930224
552.007817	2551.806871
552.366022	2547.680687
552.724173	2549.818136
553.082267	2552.048847
553.440305	2548.313352
553.798288	2550.687735
554.156215	2548.429298
554.514086	2548.300749
554.871902	2545.971736
555.229661	2544.517363
555.587365	2545.747404
555.945014	2547.625234
556.302606	2548.086500
556.660143	2549.195553
557.017625	2551.025492
557.375050	2550.261757
557.732421	2547.252189
558.089735	2550.657488
558.446994	2548.101623
558.804197	2547.925183
559.161345	2550.571788
559.518437	2549.387117
559.875474	2548.900646
560.232455	2551.948023
560.589381	2547.937786
560.946251	2550.536500
561.303065	2546.274205
561.659825	2549.717313
562.016528	2547.804195
562.373177	2550.891902
562.729770	2550.483568
563.086307	2552.512633
563.442789	2549.999617
563.799216	2549.145142
564.155587	2550.193702
564.511904	2550.627241
564.868164	2548.971222
565.224370	2550.644885
565.580520	2552.943651
565.936615	2550.783517
566.292654	2552.026161
566.648638	2549.228321
567.004567	2550.279402
567.360441	2553.314176
567.716260	2550.004659
568.072023	2550.914587
568.427732	2552.575647
568.783385	2550.503733
569.138982	2550.024823
569.494525	2547.753783
569.850013	2549.679504
570.205445	2548.862837
570.560823	2547.244627
570.916145	2549.639175
571.271412	2549.306459
571.626625	2549.959288
571.981782	2549.442570
572.336884	2546.208670
572.691931	2544.489636
573.046923	2545.099616
573.401860	2546.566592
573.756743	2548.169679
574.111570	2549.331665
574.466342	2551.267468
574.821059	2549.815615
575.175722	2550.796120
575.530330	2549.508105
575.884882	2553.152859
576.239380	2549.893753
576.593823	2552.633620
576.948211	2552.918446
577.302544	2550.468445
577.656823	2547.640357
578.011047	2551.547252
578.365216	2548.908208
578.719330	2551.317879
579.073389	2550.062632
579.427394	2552.293342
579.781344	2549.256047
580.135239	2549.319062
580.489080	2553.122612
580.842866	2549.016592
581.196597	2549.336706
581.550273	2551.338044
581.903895	2549.787889
582.257463	2551.118754
582.610975	2551.522046
582.964434	2551.028013
583.317837	2551.186809
583.671186	2552.159752
584.024481	2550.612118
584.377721	2548.555327
584.730906	2549.984494
585.084037	2550.501212
585.437113	2549.258568
585.790135	2551.746377
586.143103	2550.574309
586.496016	2551.895091
586.848874	2549.671943
587.201679	2552.792417
587.554428	2551.297715
587.907124	2550.286963
588.259765	2553.286450
588.612352	2551.769063
588.964884	2550.695297
589.317362	2552.915925
589.669786	2549.926521
590.022155	2546.390151
590.374470	2545.986859
590.726731	2548.893084
591.078937	2545.124822
591.431090	2552.505071
591.783188	2552.232849
592.135232	2551.862324
592.487222	2550.181099
592.839157	2551.761501
593.191038	2551.809392
593.542866	2550.700338
593.894639	2548.608259
594.246358	2553.656975
594.598022	2550.029864
594.949633	2551.726213
595.301190	2547.978115
595.652692	2552.568085
596.004141	2549.135060
596.355535	2550.876778
596.706876	2551.272509
597.058162	2551.945503
597.409395	2549.515667
597.760573	2551.726213
598.111698	2549.435008
598.462768	2550.223949
598.813785	2550.657488
599.164748	2547.970553
599.515657	2549.959288
599.866511	2547.892415
600.217312	2548.978784
600.568060	2549.858465
600.918753	2554.602191
601.269392	2550.551624
601.619978	2548.618341
601.970510	2548.764535
602.320988	2550.828887
602.671412	2551.043136
603.021783	2549.349309
603.372100	2552.489947
603.722363	2549.649257
604.072572	2550.309648
604.422728	2551.363250
604.772830	2551.995914
605.122878	2551.927859
605.472872	2550.481048
605.822813	2551.302756
606.172701	2554.012376
606.522534	2554.554300
606.872314	2552.888199
607.222041	2551.481717
607.571714	2548.774617
607.921333	2546.614483
608.270899	2551.721172
608.620411	2545.167672
608.969870	2555.108827
609.319276	2554.100596
609.668627	2558.536812
610.017926	2561.939590
610.367171	2564.016546
610.716362	2563.910682
611.065500	2561.891699
611.414585	2561.206102
611.763616	2557.248797
612.112594	2555.358364
612.461518	2556.800134
612.810389	2554.070349
613.159207	2553.767880
613.507971	2553.599001
613.856682	2553.810730
614.205340	2553.178065
614.553945	2555.529763
614.902496	2553.183106
615.250994	2551.330482
615.599439	2550.261758
615.947830	2551.597663
616.296169	2550.050029
616.644454	2552.250493
616.992686	2550.052550
617.340864	2551.670760
617.688990	2548.540203
618.037063	2551.373332
618.385082	2550.586912
618.733048	2554.289639
619.080961	2551.461552
619.428821	2548.406613
619.776628	2548.509957
620.124382	2552.260575
620.472083	2550.942313
620.819731	2549.878630
621.167326	2550.627241
621.514868	2552.772252
621.862357	2550.823846
622.209793	2551.680842
622.557176	2552.419371
622.904506	2550.533980
623.251783	2550.904505
623.599007	2551.063301
623.946179	2550.602035
624.293297	2553.094886
624.640363	2547.594987
624.987376	2547.584905
625.334336	2547.547096
625.681243	2548.787220
626.028097	2547.214380
626.374899	2552.469783
626.721647	2551.784186
627.068343	2551.522046
627.414987	2551.481717
627.761577	2550.145811
628.108115	2551.595143
628.454600	2551.587581
628.801032	2550.919628
629.147412	2553.445246
629.493739	2551.643034
629.840014	2554.715617
630.186236	2552.250493
630.532405	2552.731923
630.878521	2552.673950
631.224585	2553.757798
631.570597	2550.775955
631.916556	2552.318548
632.262462	2549.326623
632.608316	2550.039947
632.954117	2548.215049
633.299866	2550.211346
633.645562	2547.045501
633.991206	2552.711758
634.336797	2549.490461
634.682336	2548.825029
635.027823	2550.909546
635.373257	2548.101623
635.718639	2549.530790
636.063968	2549.911397
636.409245	2551.133877
636.754470	2549.245965
637.099642	2551.353167
637.444762	2550.723023
637.789829	2550.092879
638.134845	2551.196892
638.479808	2546.100285
638.824719	2549.024154
639.169577	2551.075904
639.514383	2548.971222
639.859137	2549.019113
640.203839	2551.136398
640.548489	2550.904505
640.893086	2547.962991
641.237632	2550.753270
641.582125	2551.585060
641.926566	2548.585574
642.270955	2549.407282
642.615292	2544.287990
642.959576	2549.031716
643.303809	2545.530635
643.647990	2551.106151
643.992118	2551.552293
644.336195	2549.757642
